'Elapsed time','II'
'seconds','mV'
0.000,-0.131
0.001,-0.097
0.002,-0.096
0.003,-0.094
0.004,-0.095
0.005,-0.097
0.006,-0.097
0.007,-0.094
0.008,-0.088
0.009,-0.088
0.010,-0.088
0.011,-0.084
0.012,-0.078
0.013,-0.075
0.014,-0.077
0.015,-0.075
0.016,-0.084
0.017,-0.091
0.018,-0.101
0.019,-0.106
0.020,-0.106
0.021,-0.103
0.022,-0.103
0.023,-0.103
0.024,-0.106
0.025,-0.113
0.026,-0.126
0.027,-0.134
0.028,-0.136
0.029,-0.137
0.030,-0.143
0.031,-0.141
0.032,-0.142
0.033,-0.147
0.034,-0.151
0.035,-0.159
0.036,-0.162
0.037,-0.166
0.038,-0.166
0.039,-0.162
0.040,-0.161
0.041,-0.159
0.042,-0.153
0.043,-0.153
0.044,-0.153
0.045,-0.156
0.046,-0.156
0.047,-0.156
0.048,-0.156
0.049,-0.159
0.050,-0.159
0.051,-0.159
0.052,-0.158
0.053,-0.156
0.054,-0.161
0.055,-0.162
0.056,-0.162
0.057,-0.159
0.058,-0.159
0.059,-0.159
0.060,-0.161
0.061,-0.159
0.062,-0.164
0.063,-0.166
0.064,-0.164
0.065,-0.162
0.066,-0.166
0.067,-0.162
0.068,-0.164
0.069,-0.162
0.070,-0.164
0.071,-0.166
0.072,-0.166
0.073,-0.166
0.074,-0.166
0.075,-0.166
0.076,-0.166
0.077,-0.166
0.078,-0.164
0.079,-0.162
0.080,-0.162
0.081,-0.162
0.082,-0.162
0.083,-0.162
0.084,-0.166
0.085,-0.166
0.086,-0.166
0.087,-0.169
0.088,-0.175
0.089,-0.178
0.090,-0.184
0.091,-0.194
0.092,-0.208
0.093,-0.219
0.094,-0.231
0.095,-0.250
0.096,-0.264
0.097,-0.278
0.098,-0.295
0.099,-0.309
0.100,-0.322
0.101,-0.334
0.102,-0.347
0.103,-0.350
0.104,-0.358
0.105,-0.359
0.106,-0.364
0.107,-0.359
0.108,-0.348
0.109,-0.328
0.110,-0.302
0.111,-0.269
0.112,-0.233
0.113,-0.191
0.114,-0.136
0.115,-0.081
0.116,-0.028
0.117,0.028
0.118,0.083
0.119,0.153
0.120,0.236
0.121,0.337
0.122,0.437
0.123,0.553
0.124,0.670
0.125,0.803
0.126,0.941
0.127,1.091
0.128,1.244
0.129,1.400
0.130,1.556
0.131,1.694
0.132,1.825
0.133,1.956
0.134,2.081
0.135,2.162
0.136,2.223
0.137,2.197
0.138,2.132
0.139,1.987
0.140,1.819
0.141,1.659
0.142,1.484
0.143,1.337
0.144,1.197
0.145,1.069
0.146,0.949
0.147,0.847
0.148,0.766
0.149,0.675
0.150,0.580
0.151,0.459
0.152,0.322
0.153,0.212
0.154,0.113
0.155,0.037
0.156,-0.031
0.157,-0.081
0.158,-0.125
0.159,-0.159
0.160,-0.191
0.161,-0.209
0.162,-0.222
0.163,-0.213
0.164,-0.206
0.165,-0.191
0.166,-0.183
0.167,-0.175
0.168,-0.167
0.169,-0.159
0.170,-0.146
0.171,-0.137
0.172,-0.128
0.173,-0.122
0.174,-0.119
0.175,-0.116
0.176,-0.109
0.177,-0.106
0.178,-0.103
0.179,-0.097
0.180,-0.095
0.181,-0.097
0.182,-0.098
0.183,-0.103
0.184,-0.106
0.185,-0.106
0.186,-0.103
0.187,-0.100
0.188,-0.091
0.189,-0.084
0.190,-0.083
0.191,-0.084
0.192,-0.078
0.193,-0.075
0.194,-0.075
0.195,-0.072
0.196,-0.075
0.197,-0.078
0.198,-0.081
0.199,-0.081
0.200,-0.079
0.201,-0.081
0.202,-0.084
0.203,-0.088
0.204,-0.089
0.205,-0.091
0.206,-0.084
0.207,-0.081
0.208,-0.077
0.209,-0.075
0.210,-0.072
0.211,-0.072
0.212,-0.074
0.213,-0.072
0.214,-0.078
0.215,-0.078
0.216,-0.075
0.217,-0.075
0.218,-0.078
0.219,-0.075
0.220,-0.071
0.221,-0.069
0.222,-0.066
0.223,-0.066
0.224,-0.067
0.225,-0.066
0.226,-0.067
0.227,-0.069
0.228,-0.061
0.229,-0.056
0.230,-0.057
0.231,-0.059
0.232,-0.056
0.233,-0.053
0.234,-0.056
0.235,-0.053
0.236,-0.056
0.237,-0.056
0.238,-0.055
0.239,-0.053
0.240,-0.050
0.241,-0.050
0.242,-0.046
0.243,-0.044
0.244,-0.044
0.245,-0.044
0.246,-0.046
0.247,-0.044
0.248,-0.039
0.249,-0.034
0.250,-0.031
0.251,-0.031
0.252,-0.032
0.253,-0.031
0.254,-0.031
0.255,-0.028
0.256,-0.025
0.257,-0.022
0.258,-0.019
0.259,-0.019
0.260,-0.017
0.261,-0.019
0.262,-0.019
0.263,-0.019
0.264,-0.014
0.265,-0.013
0.266,-0.009
0.267,-0.009
0.268,-0.008
0.269,-0.003
0.270,-0.003
0.271,-0.003
0.272,-0.001
0.273,-0.003
0.274,0.000
0.275,0.006
0.276,0.006
0.277,0.009
0.278,0.012
0.279,0.012
0.280,0.016
0.281,0.012
0.282,0.019
0.283,0.022
0.284,0.028
0.285,0.034
0.286,0.036
0.287,0.037
0.288,0.042
0.289,0.047
0.290,0.050
0.291,0.047
0.292,0.046
0.293,0.044
0.294,0.047
0.295,0.050
0.296,0.056
0.297,0.059
0.298,0.061
0.299,0.062
0.300,0.067
0.301,0.075
0.302,0.078
0.303,0.084
0.304,0.089
0.305,0.094
0.306,0.098
0.307,0.100
0.308,0.102
0.309,0.103
0.310,0.109
0.311,0.113
0.312,0.120
0.313,0.125
0.314,0.132
0.315,0.137
0.316,0.141
0.317,0.144
0.318,0.147
0.319,0.153
0.320,0.162
0.321,0.169
0.322,0.175
0.323,0.181
0.324,0.189
0.325,0.197
0.326,0.199
0.327,0.203
0.328,0.209
0.329,0.212
0.330,0.222
0.331,0.228
0.332,0.234
0.333,0.237
0.334,0.244
0.335,0.250
0.336,0.254
0.337,0.262
0.338,0.270
0.339,0.281
0.340,0.287
0.341,0.291
0.342,0.297
0.343,0.306
0.344,0.311
0.345,0.319
0.346,0.324
0.347,0.328
0.348,0.334
0.349,0.341
0.350,0.350
0.351,0.359
0.352,0.370
0.353,0.378
0.354,0.380
0.355,0.384
0.356,0.386
0.357,0.384
0.358,0.389
0.359,0.400
0.360,0.409
0.361,0.416
0.362,0.414
0.363,0.412
0.364,0.422
0.365,0.428
0.366,0.432
0.367,0.441
0.368,0.444
0.369,0.447
0.370,0.447
0.371,0.447
0.372,0.450
0.373,0.450
0.374,0.452
0.375,0.450
0.376,0.449
0.377,0.447
0.378,0.450
0.379,0.453
0.380,0.449
0.381,0.444
0.382,0.442
0.383,0.437
0.384,0.429
0.385,0.425
0.386,0.417
0.387,0.406
0.388,0.399
0.389,0.388
0.390,0.378
0.391,0.366
0.392,0.355
0.393,0.344
0.394,0.334
0.395,0.322
0.396,0.305
0.397,0.287
0.398,0.275
0.399,0.259
0.400,0.251
0.401,0.241
0.402,0.227
0.403,0.212
0.404,0.196
0.405,0.181
0.406,0.173
0.407,0.159
0.408,0.148
0.409,0.137
0.410,0.128
0.411,0.116
0.412,0.103
0.413,0.091
0.414,0.082
0.415,0.072
0.416,0.061
0.417,0.053
0.418,0.044
0.419,0.037
0.420,0.028
0.421,0.022
0.422,0.014
0.423,0.009
0.424,-0.001
0.425,-0.009
0.426,-0.017
0.427,-0.025
0.428,-0.025
0.429,-0.031
0.430,-0.039
0.431,-0.044
0.432,-0.046
0.433,-0.050
0.434,-0.054
0.435,-0.063
0.436,-0.066
0.437,-0.066
0.438,-0.066
0.439,-0.066
0.440,-0.075
0.441,-0.078
0.442,-0.081
0.443,-0.084
0.444,-0.081
0.445,-0.084
0.446,-0.084
0.447,-0.088
0.448,-0.091
0.449,-0.094
0.450,-0.099
0.451,-0.097
0.452,-0.100
0.453,-0.100
0.454,-0.100
0.455,-0.100
0.456,-0.099
0.457,-0.100
0.458,-0.101
0.459,-0.106
0.460,-0.111
0.461,-0.113
0.462,-0.114
0.463,-0.113
0.464,-0.109
0.465,-0.109
0.466,-0.105
0.467,-0.106
0.468,-0.111
0.469,-0.116
0.470,-0.120
0.471,-0.122
0.472,-0.119
0.473,-0.119
0.474,-0.123
0.475,-0.122
0.476,-0.116
0.477,-0.106
0.478,-0.108
0.479,-0.106
0.480,-0.111
0.481,-0.116
0.482,-0.119
0.483,-0.119
0.484,-0.121
0.485,-0.116
0.486,-0.118
0.487,-0.116
0.488,-0.120
0.489,-0.122
0.490,-0.124
0.491,-0.122
0.492,-0.121
0.493,-0.122
0.494,-0.119
0.495,-0.116
0.496,-0.111
0.497,-0.113
0.498,-0.117
0.499,-0.119
0.500,-0.120
0.501,-0.122
0.502,-0.121
0.503,-0.122
0.504,-0.122
0.505,-0.122
0.506,-0.122
0.507,-0.122
0.508,-0.122
0.509,-0.122
0.510,-0.122
0.511,-0.119
0.512,-0.116
0.513,-0.116
0.514,-0.113
0.515,-0.113
0.516,-0.120
0.517,-0.125
0.518,-0.125
0.519,-0.122
0.520,-0.118
0.521,-0.113
0.522,-0.113
0.523,-0.116
0.524,-0.116
0.525,-0.116
0.526,-0.114
0.527,-0.113
0.528,-0.109
0.529,-0.113
0.530,-0.117
0.531,-0.119
0.532,-0.118
0.533,-0.116
0.534,-0.116
0.535,-0.113
0.536,-0.111
0.537,-0.113
0.538,-0.114
0.539,-0.116
0.540,-0.113
0.541,-0.113
0.542,-0.116
0.543,-0.116
0.544,-0.119
0.545,-0.119
0.546,-0.118
0.547,-0.116
0.548,-0.120
0.549,-0.122
0.550,-0.121
0.551,-0.119
0.552,-0.118
0.553,-0.113
0.554,-0.117
0.555,-0.116
0.556,-0.114
0.557,-0.113
0.558,-0.117
0.559,-0.116
0.560,-0.114
0.561,-0.113
0.562,-0.116
0.563,-0.116
0.564,-0.116
0.565,-0.116
0.566,-0.116
0.567,-0.119
0.568,-0.114
0.569,-0.113
0.570,-0.114
0.571,-0.113
0.572,-0.111
0.573,-0.109
0.574,-0.109
0.575,-0.109
0.576,-0.109
0.577,-0.109
0.578,-0.109
0.579,-0.113
0.580,-0.113
0.581,-0.109
0.582,-0.114
0.583,-0.116
0.584,-0.113
0.585,-0.113
0.586,-0.117
0.587,-0.116
0.588,-0.114
0.589,-0.116
0.590,-0.114
0.591,-0.116
0.592,-0.113
0.593,-0.113
0.594,-0.117
0.595,-0.116
0.596,-0.114
0.597,-0.116
0.598,-0.116
0.599,-0.116
0.600,-0.116
0.601,-0.116
0.602,-0.116
0.603,-0.116
0.604,-0.117
0.605,-0.119
0.606,-0.119
0.607,-0.119
0.608,-0.118
0.609,-0.116
0.610,-0.109
0.611,-0.106
0.612,-0.111
0.613,-0.109
0.614,-0.113
0.615,-0.116
0.616,-0.119
0.617,-0.119
0.618,-0.116
0.619,-0.116
0.620,-0.116
0.621,-0.116
0.622,-0.116
0.623,-0.116
0.624,-0.116
0.625,-0.116
0.626,-0.116
0.627,-0.116
0.628,-0.119
0.629,-0.122
0.630,-0.118
0.631,-0.116
0.632,-0.114
0.633,-0.113
0.634,-0.113
0.635,-0.116
0.636,-0.116
0.637,-0.113
0.638,-0.116
0.639,-0.122
0.640,-0.124
0.641,-0.122
0.642,-0.118
0.643,-0.116
0.644,-0.114
0.645,-0.119
0.646,-0.122
0.647,-0.128
0.648,-0.129
0.649,-0.128
0.650,-0.124
0.651,-0.125
0.652,-0.125
0.653,-0.125
0.654,-0.125
0.655,-0.125
0.656,-0.124
0.657,-0.125
0.658,-0.122
0.659,-0.119
0.660,-0.120
0.661,-0.122
0.662,-0.120
0.663,-0.122
0.664,-0.121
0.665,-0.119
0.666,-0.122
0.667,-0.122
0.668,-0.119
0.669,-0.119
0.670,-0.121
0.671,-0.122
0.672,-0.123
0.673,-0.122
0.674,-0.122
0.675,-0.122
0.676,-0.122
0.677,-0.122
0.678,-0.122
0.679,-0.122
0.680,-0.121
0.681,-0.119
0.682,-0.122
0.683,-0.122
0.684,-0.119
0.685,-0.119
0.686,-0.122
0.687,-0.122
0.688,-0.119
0.689,-0.119
0.690,-0.122
0.691,-0.122
0.692,-0.122
0.693,-0.125
0.694,-0.124
0.695,-0.125
0.696,-0.125
0.697,-0.125
0.698,-0.125
0.699,-0.125
0.700,-0.125
0.701,-0.125
0.702,-0.125
0.703,-0.125
0.704,-0.125
0.705,-0.125
0.706,-0.125
0.707,-0.125
0.708,-0.125
0.709,-0.125
0.710,-0.124
0.711,-0.122
0.712,-0.125
0.713,-0.125
0.714,-0.125
0.715,-0.125
0.716,-0.126
0.717,-0.128
0.718,-0.127
0.719,-0.125
0.720,-0.122
0.721,-0.119
0.722,-0.116
0.723,-0.116
0.724,-0.117
0.725,-0.122
0.726,-0.126
0.727,-0.128
0.728,-0.125
0.729,-0.128
0.730,-0.125
0.731,-0.125
0.732,-0.128
0.733,-0.125
0.734,-0.125
0.735,-0.125
0.736,-0.127
0.737,-0.125
0.738,-0.126
0.739,-0.128
0.740,-0.127
0.741,-0.125
0.742,-0.125
0.743,-0.125
0.744,-0.126
0.745,-0.128
0.746,-0.128
0.747,-0.125
0.748,-0.128
0.749,-0.128
0.750,-0.128
0.751,-0.128
0.752,-0.127
0.753,-0.125
0.754,-0.128
0.755,-0.128
0.756,-0.129
0.757,-0.128
0.758,-0.127
0.759,-0.128
0.760,-0.128
0.761,-0.128
0.762,-0.125
0.763,-0.128
0.764,-0.129
0.765,-0.134
0.766,-0.134
0.767,-0.134
0.768,-0.133
0.769,-0.131
0.770,-0.131
0.771,-0.131
0.772,-0.131
0.773,-0.131
0.774,-0.127
0.775,-0.128
0.776,-0.133
0.777,-0.137
0.778,-0.139
0.779,-0.137
0.780,-0.133
0.781,-0.131
0.782,-0.133
0.783,-0.131
0.784,-0.137
0.785,-0.137
0.786,-0.137
0.787,-0.137
0.788,-0.136
0.789,-0.134
0.790,-0.134
0.791,-0.134
0.792,-0.134
0.793,-0.134
0.794,-0.133
0.795,-0.134
0.796,-0.131
0.797,-0.134
0.798,-0.137
0.799,-0.134
0.800,-0.132
0.801,-0.131
0.802,-0.131
0.803,-0.131
0.804,-0.134
0.805,-0.134
0.806,-0.133
0.807,-0.131
0.808,-0.131
0.809,-0.131
0.810,-0.129
0.811,-0.131
0.812,-0.131
0.813,-0.131
0.814,-0.133
0.815,-0.131
0.816,-0.130
0.817,-0.131
0.818,-0.128
0.819,-0.125
0.820,-0.124
0.821,-0.125
0.822,-0.128
0.823,-0.128
0.824,-0.128
0.825,-0.125
0.826,-0.125
0.827,-0.128
0.828,-0.125
0.829,-0.125
0.830,-0.127
0.831,-0.128
0.832,-0.128
0.833,-0.134
0.834,-0.133
0.835,-0.131
0.836,-0.128
0.837,-0.125
0.838,-0.126
0.839,-0.128
0.840,-0.126
0.841,-0.128
0.842,-0.129
0.843,-0.134
0.844,-0.136
0.845,-0.134
0.846,-0.131
0.847,-0.131
0.848,-0.131
0.849,-0.131
0.850,-0.127
0.851,-0.122
0.852,-0.116
0.853,-0.116
0.854,-0.108
0.855,-0.109
0.856,-0.103
0.857,-0.097
0.858,-0.091
0.859,-0.091
0.860,-0.083
0.861,-0.078
0.862,-0.071
0.863,-0.069
0.864,-0.064
0.865,-0.056
0.866,-0.056
0.867,-0.063
0.868,-0.070
0.869,-0.078
0.870,-0.078
0.871,-0.084
0.872,-0.086
0.873,-0.088
0.874,-0.084
0.875,-0.084
0.876,-0.080
0.877,-0.072
0.878,-0.066
0.879,-0.059
0.880,-0.057
0.881,-0.056
0.882,-0.050
0.883,-0.041
0.884,-0.030
0.885,-0.025
0.886,-0.020
0.887,-0.016
0.888,-0.016
0.889,-0.013
0.890,-0.011
0.891,-0.013
0.892,-0.017
0.893,-0.031
0.894,-0.034
0.895,-0.044
0.896,-0.043
0.897,-0.050
0.898,-0.053
0.899,-0.059
0.900,-0.063
0.901,-0.069
0.902,-0.070
0.903,-0.072
0.904,-0.073
0.905,-0.075
0.906,-0.075
0.907,-0.072
0.908,-0.067
0.909,-0.069
0.910,-0.061
0.911,-0.050
0.912,-0.047
0.913,-0.047
0.914,-0.053
0.915,-0.056
0.916,-0.061
0.917,-0.063
0.918,-0.073
0.919,-0.078
0.920,-0.083
0.921,-0.084
0.922,-0.086
0.923,-0.088
0.924,-0.094
0.925,-0.103
0.926,-0.108
0.927,-0.106
0.928,-0.109
0.929,-0.113
0.930,-0.120
0.931,-0.122
0.932,-0.122
0.933,-0.125
0.934,-0.128
0.935,-0.134
0.936,-0.137
0.937,-0.141
0.938,-0.144
0.939,-0.144
0.940,-0.143
0.941,-0.141
0.942,-0.133
0.943,-0.131
0.944,-0.131
0.945,-0.134
0.946,-0.133
0.947,-0.131
0.948,-0.134
0.949,-0.141
0.950,-0.141
0.951,-0.141
0.952,-0.141
0.953,-0.141
0.954,-0.144
0.955,-0.144
0.956,-0.144
0.957,-0.141
0.958,-0.141
0.959,-0.141
0.960,-0.137
0.961,-0.131
0.962,-0.134
0.963,-0.134
0.964,-0.136
0.965,-0.137
0.966,-0.139
0.967,-0.134
0.968,-0.137
0.969,-0.137
0.970,-0.137
0.971,-0.137
0.972,-0.137
0.973,-0.137
0.974,-0.139
0.975,-0.141
0.976,-0.142
0.977,-0.144
0.978,-0.143
0.979,-0.141
0.980,-0.142
0.981,-0.144
0.982,-0.144
0.983,-0.144
0.984,-0.147
0.985,-0.147
0.986,-0.146
0.987,-0.147
0.988,-0.152
0.989,-0.153
0.990,-0.158
0.991,-0.166
0.992,-0.177
0.993,-0.184
0.994,-0.197
0.995,-0.216
0.996,-0.234
0.997,-0.253
0.998,-0.270
0.999,-0.284
1.000,-0.301
1.001,-0.319
1.002,-0.333
1.003,-0.338
1.004,-0.347
1.005,-0.350
1.006,-0.353
1.007,-0.347
1.008,-0.336
1.009,-0.316
1.010,-0.291
1.011,-0.259
1.012,-0.222
1.013,-0.178
1.014,-0.129
1.015,-0.081
1.016,-0.028
1.017,0.028
1.018,0.086
1.019,0.159
1.020,0.242
1.021,0.344
1.022,0.448
1.023,0.569
1.024,0.683
1.025,0.812
1.026,0.954
1.027,1.109
1.028,1.261
1.029,1.416
1.030,1.573
1.031,1.712
1.032,1.848
1.033,1.984
1.034,2.114
1.035,2.200
1.036,2.261
1.037,2.234
1.038,2.167
1.039,2.019
1.040,1.846
1.041,1.681
1.042,1.516
1.043,1.378
1.044,1.239
1.045,1.112
1.046,0.997
1.047,0.900
1.048,0.816
1.049,0.722
1.050,0.625
1.051,0.503
1.052,0.367
1.053,0.259
1.054,0.158
1.055,0.081
1.056,0.008
1.057,-0.047
1.058,-0.094
1.059,-0.131
1.060,-0.166
1.061,-0.188
1.062,-0.205
1.063,-0.200
1.064,-0.199
1.065,-0.188
1.066,-0.175
1.067,-0.162
1.068,-0.147
1.069,-0.131
1.070,-0.122
1.071,-0.119
1.072,-0.109
1.073,-0.103
1.074,-0.100
1.075,-0.097
1.076,-0.091
1.077,-0.088
1.078,-0.083
1.079,-0.075
1.080,-0.075
1.081,-0.078
1.082,-0.078
1.083,-0.081
1.084,-0.089
1.085,-0.094
1.086,-0.089
1.087,-0.084
1.088,-0.077
1.089,-0.072
1.090,-0.064
1.091,-0.059
1.092,-0.056
1.093,-0.056
1.094,-0.056
1.095,-0.053
1.096,-0.052
1.097,-0.050
1.098,-0.056
1.099,-0.059
1.100,-0.057
1.101,-0.059
1.102,-0.064
1.103,-0.069
1.104,-0.069
1.105,-0.069
1.106,-0.063
1.107,-0.059
1.108,-0.057
1.109,-0.059
1.110,-0.055
1.111,-0.053
1.112,-0.056
1.113,-0.056
1.114,-0.061
1.115,-0.059
1.116,-0.056
1.117,-0.056
1.118,-0.059
1.119,-0.056
1.120,-0.054
1.121,-0.056
1.122,-0.054
1.123,-0.056
1.124,-0.056
1.125,-0.053
1.126,-0.052
1.127,-0.050
1.128,-0.048
1.129,-0.050
1.130,-0.050
1.131,-0.050
1.132,-0.048
1.133,-0.047
1.134,-0.050
1.135,-0.047
1.136,-0.044
1.137,-0.038
1.138,-0.039
1.139,-0.041
1.140,-0.036
1.141,-0.034
1.142,-0.031
1.143,-0.031
1.144,-0.029
1.145,-0.028
1.146,-0.030
1.147,-0.028
1.148,-0.025
1.149,-0.022
1.150,-0.019
1.151,-0.019
1.152,-0.020
1.153,-0.019
1.154,-0.018
1.155,-0.013
1.156,-0.011
1.157,-0.009
1.158,-0.005
1.159,-0.003
1.160,0.000
1.161,0.000
1.162,-0.001
1.163,-0.003
1.164,0.000
1.165,0.000
1.166,0.004
1.167,0.006
1.168,0.006
1.169,0.009
1.170,0.012
1.171,0.016
1.172,0.019
1.173,0.019
1.174,0.020
1.175,0.025
1.176,0.025
1.177,0.028
1.178,0.028
1.179,0.025
1.180,0.032
1.181,0.034
1.182,0.039
1.183,0.041
1.184,0.044
1.185,0.047
1.186,0.050
1.187,0.053
1.188,0.055
1.189,0.056
1.190,0.061
1.191,0.059
1.192,0.062
1.193,0.066
1.194,0.073
1.195,0.081
1.196,0.083
1.197,0.081
1.198,0.081
1.199,0.081
1.200,0.081
1.201,0.084
1.202,0.084
1.203,0.087
1.204,0.097
1.205,0.106
1.206,0.113
1.207,0.116
1.208,0.119
1.209,0.122
1.210,0.127
1.211,0.128
1.212,0.133
1.213,0.134
1.214,0.142
1.215,0.147
1.216,0.152
1.217,0.156
1.218,0.161
1.219,0.169
1.220,0.174
1.221,0.175
1.222,0.178
1.223,0.181
1.224,0.187
1.225,0.194
1.226,0.200
1.227,0.209
1.228,0.220
1.229,0.228
1.230,0.234
1.231,0.237
1.232,0.244
1.233,0.247
1.234,0.252
1.235,0.256
1.236,0.262
1.237,0.272
1.238,0.278
1.239,0.287
1.240,0.297
1.241,0.303
1.242,0.308
1.243,0.316
1.244,0.319
1.245,0.325
1.246,0.331
1.247,0.337
1.248,0.344
1.249,0.350
1.250,0.356
1.251,0.363
1.252,0.367
1.253,0.369
1.254,0.375
1.255,0.384
1.256,0.392
1.257,0.397
1.258,0.400
1.259,0.409
1.260,0.417
1.261,0.422
1.262,0.423
1.263,0.425
1.264,0.431
1.265,0.434
1.266,0.436
1.267,0.441
1.268,0.445
1.269,0.450
1.270,0.452
1.271,0.453
1.272,0.455
1.273,0.453
1.274,0.455
1.275,0.453
1.276,0.456
1.277,0.459
1.278,0.459
1.279,0.459
1.280,0.453
1.281,0.447
1.282,0.445
1.283,0.441
1.284,0.431
1.285,0.425
1.286,0.419
1.287,0.409
1.288,0.404
1.289,0.397
1.290,0.389
1.291,0.378
1.292,0.367
1.293,0.356
1.294,0.344
1.295,0.328
1.296,0.312
1.297,0.297
1.298,0.286
1.299,0.272
1.300,0.262
1.301,0.250
1.302,0.241
1.303,0.231
1.304,0.214
1.305,0.200
1.306,0.187
1.307,0.169
1.308,0.156
1.309,0.144
1.310,0.134
1.311,0.122
1.312,0.116
1.313,0.109
1.314,0.100
1.315,0.087
1.316,0.075
1.317,0.066
1.318,0.056
1.319,0.050
1.320,0.041
1.321,0.034
1.322,0.025
1.323,0.019
1.324,0.011
1.325,0.006
1.326,0.000
1.327,-0.006
1.328,-0.008
1.329,-0.016
1.330,-0.023
1.331,-0.028
1.332,-0.030
1.333,-0.034
1.334,-0.038
1.335,-0.044
1.336,-0.047
1.337,-0.047
1.338,-0.054
1.339,-0.063
1.340,-0.070
1.341,-0.072
1.342,-0.071
1.343,-0.069
1.344,-0.068
1.345,-0.072
1.346,-0.075
1.347,-0.081
1.348,-0.084
1.349,-0.088
1.350,-0.097
1.351,-0.100
1.352,-0.102
1.353,-0.100
1.354,-0.101
1.355,-0.103
1.356,-0.102
1.357,-0.103
1.358,-0.100
1.359,-0.100
1.360,-0.103
1.361,-0.103
1.362,-0.104
1.363,-0.103
1.364,-0.103
1.365,-0.106
1.366,-0.102
1.367,-0.103
1.368,-0.103
1.369,-0.103
1.370,-0.106
1.371,-0.106
1.372,-0.103
1.373,-0.103
1.374,-0.108
1.375,-0.106
1.376,-0.106
1.377,-0.103
1.378,-0.108
1.379,-0.109
1.380,-0.109
1.381,-0.109
1.382,-0.109
1.383,-0.106
1.384,-0.109
1.385,-0.106
1.386,-0.109
1.387,-0.109
1.388,-0.111
1.389,-0.109
1.390,-0.111
1.391,-0.109
1.392,-0.108
1.393,-0.109
1.394,-0.111
1.395,-0.113
1.396,-0.108
1.397,-0.109
1.398,-0.111
1.399,-0.109
1.400,-0.106
1.401,-0.103
1.402,-0.103
1.403,-0.106
1.404,-0.109
1.405,-0.113
1.406,-0.111
1.407,-0.109
1.408,-0.109
1.409,-0.109
1.410,-0.109
1.411,-0.106
1.412,-0.103
1.413,-0.103
1.414,-0.106
1.415,-0.113
1.416,-0.114
1.417,-0.113
1.418,-0.113
1.419,-0.109
1.420,-0.109
1.421,-0.109
1.422,-0.108
1.423,-0.109
1.424,-0.109
1.425,-0.109
1.426,-0.109
1.427,-0.109
1.428,-0.105
1.429,-0.106
1.430,-0.113
1.431,-0.116
1.432,-0.114
1.433,-0.113
1.434,-0.111
1.435,-0.106
1.436,-0.103
1.437,-0.103
1.438,-0.103
1.439,-0.103
1.440,-0.102
1.441,-0.103
1.442,-0.105
1.443,-0.103
1.444,-0.104
1.445,-0.103
1.446,-0.103
1.447,-0.103
1.448,-0.106
1.449,-0.106
1.450,-0.108
1.451,-0.109
1.452,-0.111
1.453,-0.109
1.454,-0.111
1.455,-0.106
1.456,-0.105
1.457,-0.103
1.458,-0.106
1.459,-0.103
1.460,-0.103
1.461,-0.103
1.462,-0.108
1.463,-0.109
1.464,-0.108
1.465,-0.106
1.466,-0.104
1.467,-0.106
1.468,-0.109
1.469,-0.116
1.470,-0.117
1.471,-0.116
1.472,-0.113
1.473,-0.109
1.474,-0.109
1.475,-0.109
1.476,-0.111
1.477,-0.113
1.478,-0.109
1.479,-0.109
1.480,-0.109
1.481,-0.106
1.482,-0.109
1.483,-0.109
1.484,-0.106
1.485,-0.106
1.486,-0.111
1.487,-0.109
1.488,-0.108
1.489,-0.109
1.490,-0.106
1.491,-0.106
1.492,-0.111
1.493,-0.119
1.494,-0.122
1.495,-0.119
1.496,-0.108
1.497,-0.100
1.498,-0.101
1.499,-0.103
1.500,-0.104
1.501,-0.106
1.502,-0.108
1.503,-0.109
1.504,-0.108
1.505,-0.106
1.506,-0.106
1.507,-0.106
1.508,-0.108
1.509,-0.109
1.510,-0.106
1.511,-0.106
1.512,-0.111
1.513,-0.109
1.514,-0.108
1.515,-0.106
1.516,-0.109
1.517,-0.109
1.518,-0.106
1.519,-0.106
1.520,-0.106
1.521,-0.106
1.522,-0.108
1.523,-0.109
1.524,-0.108
1.525,-0.106
1.526,-0.108
1.527,-0.109
1.528,-0.109
1.529,-0.109
1.530,-0.109
1.531,-0.113
1.532,-0.114
1.533,-0.116
1.534,-0.113
1.535,-0.113
1.536,-0.114
1.537,-0.113
1.538,-0.113
1.539,-0.116
1.540,-0.119
1.541,-0.119
1.542,-0.117
1.543,-0.119
1.544,-0.111
1.545,-0.109
1.546,-0.108
1.547,-0.109
1.548,-0.119
1.549,-0.125
1.550,-0.121
1.551,-0.122
1.552,-0.122
1.553,-0.122
1.554,-0.122
1.555,-0.122
1.556,-0.121
1.557,-0.122
1.558,-0.122
1.559,-0.122
1.560,-0.123
1.561,-0.125
1.562,-0.122
1.563,-0.122
1.564,-0.122
1.565,-0.122
1.566,-0.125
1.567,-0.125
1.568,-0.121
1.569,-0.119
1.570,-0.121
1.571,-0.122
1.572,-0.122
1.573,-0.119
1.574,-0.119
1.575,-0.119
1.576,-0.122
1.577,-0.125
1.578,-0.125
1.579,-0.125
1.580,-0.124
1.581,-0.122
1.582,-0.125
1.583,-0.125
1.584,-0.122
1.585,-0.122
1.586,-0.128
1.587,-0.131
1.588,-0.128
1.589,-0.128
1.590,-0.130
1.591,-0.128
1.592,-0.126
1.593,-0.128
1.594,-0.127
1.595,-0.128
1.596,-0.128
1.597,-0.128
1.598,-0.128
1.599,-0.128
1.600,-0.129
1.601,-0.131
1.602,-0.130
1.603,-0.128
1.604,-0.127
1.605,-0.125
1.606,-0.125
1.607,-0.125
1.608,-0.122
1.609,-0.119
1.610,-0.120
1.611,-0.122
1.612,-0.125
1.613,-0.125
1.614,-0.124
1.615,-0.122
1.616,-0.125
1.617,-0.128
1.618,-0.133
1.619,-0.137
1.620,-0.134
1.621,-0.131
1.622,-0.128
1.623,-0.128
1.624,-0.127
1.625,-0.128
1.626,-0.131
1.627,-0.131
1.628,-0.128
1.629,-0.131
1.630,-0.129
1.631,-0.131
1.632,-0.136
1.633,-0.134
1.634,-0.133
1.635,-0.131
1.636,-0.134
1.637,-0.134
1.638,-0.131
1.639,-0.128
1.640,-0.128
1.641,-0.128
1.642,-0.129
1.643,-0.131
1.644,-0.131
1.645,-0.131
1.646,-0.131
1.647,-0.128
1.648,-0.131
1.649,-0.131
1.650,-0.131
1.651,-0.131
1.652,-0.130
1.653,-0.128
1.654,-0.131
1.655,-0.131
1.656,-0.133
1.657,-0.131
1.658,-0.131
1.659,-0.134
1.660,-0.134
1.661,-0.134
1.662,-0.130
1.663,-0.131
1.664,-0.129
1.665,-0.131
1.666,-0.131
1.667,-0.131
1.668,-0.131
1.669,-0.131
1.670,-0.131
1.671,-0.131
1.672,-0.131
1.673,-0.131
1.674,-0.128
1.675,-0.131
1.676,-0.131
1.677,-0.131
1.678,-0.134
1.679,-0.134
1.680,-0.131
1.681,-0.131
1.682,-0.131
1.683,-0.128
1.684,-0.133
1.685,-0.131
1.686,-0.131
1.687,-0.131
1.688,-0.131
1.689,-0.131
1.690,-0.131
1.691,-0.131
1.692,-0.131
1.693,-0.131
1.694,-0.129
1.695,-0.131
1.696,-0.128
1.697,-0.131
1.698,-0.137
1.699,-0.137
1.700,-0.134
1.701,-0.134
1.702,-0.130
1.703,-0.128
1.704,-0.131
1.705,-0.131
1.706,-0.131
1.707,-0.131
1.708,-0.128
1.709,-0.131
1.710,-0.130
1.711,-0.131
1.712,-0.130
1.713,-0.131
1.714,-0.131
1.715,-0.131
1.716,-0.128
1.717,-0.125
1.718,-0.126
1.719,-0.125
1.720,-0.129
1.721,-0.134
1.722,-0.134
1.723,-0.134
1.724,-0.131
1.725,-0.131
1.726,-0.133
1.727,-0.131
1.728,-0.130
1.729,-0.128
1.730,-0.131
1.731,-0.131
1.732,-0.131
1.733,-0.134
1.734,-0.130
1.735,-0.128
1.736,-0.133
1.737,-0.131
1.738,-0.130
1.739,-0.131
1.740,-0.136
1.741,-0.134
1.742,-0.134
1.743,-0.131
1.744,-0.133
1.745,-0.134
1.746,-0.136
1.747,-0.137
1.748,-0.136
1.749,-0.131
1.750,-0.131
1.751,-0.131
1.752,-0.133
1.753,-0.131
1.754,-0.129
1.755,-0.128
1.756,-0.128
1.757,-0.128
1.758,-0.129
1.759,-0.128
1.760,-0.128
1.761,-0.125
1.762,-0.126
1.763,-0.119
1.764,-0.114
1.765,-0.106
1.766,-0.106
1.767,-0.103
1.768,-0.100
1.769,-0.091
1.770,-0.088
1.771,-0.081
1.772,-0.081
1.773,-0.078
1.774,-0.072
1.775,-0.072
1.776,-0.078
1.777,-0.081
1.778,-0.086
1.779,-0.084
1.780,-0.088
1.781,-0.091
1.782,-0.094
1.783,-0.094
1.784,-0.098
1.785,-0.100
1.786,-0.098
1.787,-0.094
1.788,-0.086
1.789,-0.078
1.790,-0.075
1.791,-0.072
1.792,-0.059
1.793,-0.047
1.794,-0.043
1.795,-0.034
1.796,-0.027
1.797,-0.025
1.798,-0.023
1.799,-0.025
1.800,-0.028
1.801,-0.031
1.802,-0.044
1.803,-0.047
1.804,-0.059
1.805,-0.063
1.806,-0.069
1.807,-0.069
1.808,-0.074
1.809,-0.075
1.810,-0.083
1.811,-0.084
1.812,-0.084
1.813,-0.084
1.814,-0.083
1.815,-0.081
1.816,-0.081
1.817,-0.078
1.818,-0.078
1.819,-0.078
1.820,-0.074
1.821,-0.069
1.822,-0.069
1.823,-0.072
1.824,-0.072
1.825,-0.081
1.826,-0.088
1.827,-0.094
1.828,-0.095
1.829,-0.100
1.830,-0.097
1.831,-0.097
1.832,-0.103
1.833,-0.109
1.834,-0.113
1.835,-0.119
1.836,-0.122
1.837,-0.125
1.838,-0.128
1.839,-0.134
1.840,-0.136
1.841,-0.137
1.842,-0.141
1.843,-0.144
1.844,-0.147
1.845,-0.147
1.846,-0.156
1.847,-0.162
1.848,-0.159
1.849,-0.159
1.850,-0.161
1.851,-0.156
1.852,-0.153
1.853,-0.150
1.854,-0.153
1.855,-0.153
1.856,-0.153
1.857,-0.153
1.858,-0.153
1.859,-0.150
1.860,-0.150
1.861,-0.150
1.862,-0.150
1.863,-0.153
1.864,-0.153
1.865,-0.153
1.866,-0.151
1.867,-0.153
1.868,-0.153
1.869,-0.153
1.870,-0.150
1.871,-0.153
1.872,-0.153
1.873,-0.153
1.874,-0.153
1.875,-0.156
1.876,-0.153
1.877,-0.156
1.878,-0.158
1.879,-0.159
1.880,-0.159
1.881,-0.159
1.882,-0.159
1.883,-0.159
1.884,-0.159
1.885,-0.159
1.886,-0.158
1.887,-0.156
1.888,-0.158
1.889,-0.159
1.890,-0.159
1.891,-0.159
1.892,-0.158
1.893,-0.159
1.894,-0.159
1.895,-0.159
1.896,-0.158
1.897,-0.159
1.898,-0.162
1.899,-0.169
1.900,-0.179
1.901,-0.194
1.902,-0.206
1.903,-0.222
1.904,-0.239
1.905,-0.253
1.906,-0.267
1.907,-0.281
1.908,-0.300
1.909,-0.322
1.910,-0.338
1.911,-0.350
1.912,-0.354
1.913,-0.366
1.914,-0.368
1.915,-0.366
1.916,-0.359
1.917,-0.350
1.918,-0.334
1.919,-0.316
1.920,-0.291
1.921,-0.259
1.922,-0.216
1.923,-0.162
1.924,-0.109
1.925,-0.056
1.926,-0.001
1.927,0.056
1.928,0.131
1.929,0.212
1.930,0.311
1.931,0.409
1.932,0.521
1.933,0.631
1.934,0.761
1.935,0.897
1.936,1.048
1.937,1.200
1.938,1.356
1.939,1.512
1.940,1.647
1.941,1.775
1.942,1.920
1.943,2.059
1.944,2.151
1.945,2.213
1.946,2.187
1.947,2.128
1.948,1.982
1.949,1.822
1.950,1.652
1.951,1.481
1.952,1.342
1.953,1.209
1.954,1.091
1.955,0.978
1.956,0.884
1.957,0.797
1.958,0.709
1.959,0.622
1.960,0.500
1.961,0.369
1.962,0.264
1.963,0.166
1.964,0.094
1.965,0.022
1.966,-0.032
1.967,-0.084
1.968,-0.125
1.969,-0.162
1.970,-0.189
1.971,-0.216
1.972,-0.220
1.973,-0.225
1.974,-0.214
1.975,-0.203
1.976,-0.193
1.977,-0.178
1.978,-0.166
1.979,-0.153
1.980,-0.148
1.981,-0.141
1.982,-0.134
1.983,-0.128
1.984,-0.125
1.985,-0.122
1.986,-0.118
1.987,-0.116
1.988,-0.113
1.989,-0.109
1.990,-0.108
1.991,-0.106
1.992,-0.106
1.993,-0.106
1.994,-0.108
1.995,-0.106
1.996,-0.103
1.997,-0.097
1.998,-0.094
1.999,-0.088
2.000,-0.083
2.001,-0.078
2.002,-0.078
2.003,-0.078
2.004,-0.075
2.005,-0.075
2.006,-0.075
2.007,-0.078
2.008,-0.078
2.009,-0.075
2.010,-0.074
2.011,-0.075
2.012,-0.079
2.013,-0.081
2.014,-0.083
2.015,-0.081
2.016,-0.078
2.017,-0.072
2.018,-0.073
2.019,-0.072
2.020,-0.071
2.021,-0.072
2.022,-0.071
2.023,-0.072
2.024,-0.070
2.025,-0.069
2.026,-0.069
2.027,-0.072
2.028,-0.070
2.029,-0.069
2.030,-0.070
2.031,-0.069
2.032,-0.069
2.033,-0.069
2.034,-0.066
2.035,-0.066
2.036,-0.067
2.037,-0.066
2.038,-0.066
2.039,-0.066
2.040,-0.064
2.041,-0.059
2.042,-0.055
2.043,-0.056
2.044,-0.053
2.045,-0.053
2.046,-0.050
2.047,-0.050
2.048,-0.051
2.049,-0.050
2.050,-0.051
2.051,-0.050
2.052,-0.046
2.053,-0.038
2.054,-0.034
2.055,-0.038
2.056,-0.039
2.057,-0.038
2.058,-0.036
2.059,-0.034
2.060,-0.034
2.061,-0.034
2.062,-0.028
2.063,-0.025
2.064,-0.023
2.065,-0.025
2.066,-0.024
2.067,-0.019
2.068,-0.022
2.069,-0.022
2.070,-0.019
2.071,-0.013
2.072,-0.006
2.073,0.000
2.074,-0.003
2.075,-0.003
2.076,-0.006
2.077,-0.009
2.078,-0.005
2.079,0.000
2.080,0.002
2.081,0.003
2.082,0.004
2.083,0.006
2.084,0.009
2.085,0.009
2.086,0.012
2.087,0.016
2.088,0.014
2.089,0.019
2.090,0.020
2.091,0.025
2.092,0.024
2.093,0.025
2.094,0.029
2.095,0.034
2.096,0.037
2.097,0.041
2.098,0.042
2.099,0.044
2.100,0.041
2.101,0.044
2.102,0.048
2.103,0.053
2.104,0.057
2.105,0.066
2.106,0.064
2.107,0.062
2.108,0.070
2.109,0.078
2.110,0.087
2.111,0.091
2.112,0.092
2.113,0.097
2.114,0.103
2.115,0.106
2.116,0.105
2.117,0.106
2.118,0.111
2.119,0.119
2.120,0.119
2.121,0.122
2.122,0.128
2.123,0.137
2.124,0.136
2.125,0.137
2.126,0.141
2.127,0.141
2.128,0.150
2.129,0.159
2.130,0.166
2.131,0.175
2.132,0.181
2.133,0.187
2.134,0.192
2.135,0.194
2.136,0.200
2.137,0.209
2.138,0.217
2.139,0.225
2.140,0.225
2.141,0.231
2.142,0.236
2.143,0.241
2.144,0.246
2.145,0.247
2.146,0.254
2.147,0.262
2.148,0.273
2.149,0.284
2.150,0.292
2.151,0.300
2.152,0.311
2.153,0.316
2.154,0.321
2.155,0.325
2.156,0.330
2.157,0.334
2.158,0.344
2.159,0.353
2.160,0.363
2.161,0.372
2.162,0.367
2.163,0.366
2.164,0.372
2.165,0.375
2.166,0.381
2.167,0.388
2.168,0.396
2.169,0.400
2.170,0.411
2.171,0.419
2.172,0.417
2.173,0.425
2.174,0.431
2.175,0.434
2.176,0.437
2.177,0.437
2.178,0.442
2.179,0.447
2.180,0.447
2.181,0.447
2.182,0.450
2.183,0.456
2.184,0.456
2.185,0.456
2.186,0.453
2.187,0.450
2.188,0.450
2.189,0.447
2.190,0.445
2.191,0.444
2.192,0.441
2.193,0.434
2.194,0.429
2.195,0.425
2.196,0.416
2.197,0.409
2.198,0.401
2.199,0.394
2.200,0.380
2.201,0.369
2.202,0.361
2.203,0.350
2.204,0.334
2.205,0.322
2.206,0.308
2.207,0.294
2.208,0.278
2.209,0.266
2.210,0.247
2.211,0.231
2.212,0.222
2.213,0.209
2.214,0.197
2.215,0.187
2.216,0.175
2.217,0.166
2.218,0.152
2.219,0.141
2.220,0.128
2.221,0.119
2.222,0.108
2.223,0.097
2.224,0.086
2.225,0.075
2.226,0.064
2.227,0.053
2.228,0.046
2.229,0.034
2.230,0.031
2.231,0.025
2.232,0.019
2.233,0.009
2.234,0.000
2.235,-0.009
2.236,-0.014
2.237,-0.016
2.238,-0.025
2.239,-0.031
2.240,-0.036
2.241,-0.041
2.242,-0.046
2.243,-0.047
2.244,-0.054
2.245,-0.063
2.246,-0.064
2.247,-0.066
2.248,-0.068
2.249,-0.072
2.250,-0.075
2.251,-0.081
2.252,-0.083
2.253,-0.081
2.254,-0.088
2.255,-0.088
2.256,-0.091
2.257,-0.091
2.258,-0.094
2.259,-0.103
2.260,-0.102
2.261,-0.103
2.262,-0.103
2.263,-0.103
2.264,-0.103
2.265,-0.103
2.266,-0.105
2.267,-0.103
2.268,-0.103
2.269,-0.103
2.270,-0.104
2.271,-0.106
2.272,-0.106
2.273,-0.109
2.274,-0.113
2.275,-0.109
2.276,-0.109
2.277,-0.109
2.278,-0.116
2.279,-0.122
2.280,-0.122
2.281,-0.119
2.282,-0.119
2.283,-0.122
2.284,-0.119
2.285,-0.119
2.286,-0.116
2.287,-0.119
2.288,-0.119
2.289,-0.119
2.290,-0.119
2.291,-0.119
2.292,-0.114
2.293,-0.116
2.294,-0.111
2.295,-0.113
2.296,-0.114
2.297,-0.116
2.298,-0.113
2.299,-0.116
2.300,-0.117
2.301,-0.119
2.302,-0.122
2.303,-0.122
2.304,-0.122
2.305,-0.119
2.306,-0.116
2.307,-0.109
2.308,-0.108
2.309,-0.109
2.310,-0.116
2.311,-0.122
2.312,-0.125
2.313,-0.125
2.314,-0.122
2.315,-0.119
2.316,-0.119
2.317,-0.119
2.318,-0.120
2.319,-0.122
2.320,-0.118
2.321,-0.113
2.322,-0.113
2.323,-0.113
2.324,-0.113
2.325,-0.113
2.326,-0.114
2.327,-0.116
2.328,-0.117
2.329,-0.122
2.330,-0.125
2.331,-0.125
2.332,-0.124
2.333,-0.122
2.334,-0.119
2.335,-0.116
2.336,-0.116
2.337,-0.113
2.338,-0.116
2.339,-0.119
2.340,-0.119
2.341,-0.119
2.342,-0.119
2.343,-0.119
2.344,-0.114
2.345,-0.109
2.346,-0.109
2.347,-0.109
2.348,-0.109
2.349,-0.109
2.350,-0.111
2.351,-0.113
2.352,-0.113
2.353,-0.113
2.354,-0.111
2.355,-0.113
2.356,-0.114
2.357,-0.119
2.358,-0.119
2.359,-0.119
2.360,-0.119
2.361,-0.119
2.362,-0.114
2.363,-0.116
2.364,-0.116
2.365,-0.119
2.366,-0.118
2.367,-0.119
2.368,-0.114
2.369,-0.113
2.370,-0.111
2.371,-0.113
2.372,-0.109
2.373,-0.106
2.374,-0.108
2.375,-0.106
2.376,-0.106
2.377,-0.106
2.378,-0.111
2.379,-0.113
2.380,-0.109
2.381,-0.109
2.382,-0.109
2.383,-0.109
2.384,-0.109
2.385,-0.109
2.386,-0.108
2.387,-0.106
2.388,-0.114
2.389,-0.119
2.390,-0.113
2.391,-0.113
2.392,-0.111
2.393,-0.106
2.394,-0.106
2.395,-0.109
2.396,-0.106
2.397,-0.106
2.398,-0.111
2.399,-0.109
2.400,-0.109
2.401,-0.109
2.402,-0.111
2.403,-0.113
2.404,-0.111
2.405,-0.109
2.406,-0.111
2.407,-0.113
2.408,-0.111
2.409,-0.109
2.410,-0.108
2.411,-0.106
2.412,-0.106
2.413,-0.106
2.414,-0.106
2.415,-0.106
2.416,-0.108
2.417,-0.109
2.418,-0.109
2.419,-0.106
2.420,-0.102
2.421,-0.103
2.422,-0.106
2.423,-0.109
2.424,-0.113
2.425,-0.119
2.426,-0.120
2.427,-0.119
2.428,-0.116
2.429,-0.113
2.430,-0.113
2.431,-0.113
2.432,-0.114
2.433,-0.116
2.434,-0.117
2.435,-0.119
2.436,-0.119
2.437,-0.119
2.438,-0.120
2.439,-0.119
2.440,-0.118
2.441,-0.119
2.442,-0.122
2.443,-0.119
2.444,-0.118
2.445,-0.119
2.446,-0.122
2.447,-0.125
2.448,-0.124
2.449,-0.122
2.450,-0.123
2.451,-0.122
2.452,-0.123
2.453,-0.122
2.454,-0.125
2.455,-0.125
2.456,-0.128
2.457,-0.128
2.458,-0.125
2.459,-0.122
2.460,-0.125
2.461,-0.125
2.462,-0.126
2.463,-0.128
2.464,-0.127
2.465,-0.125
2.466,-0.128
2.467,-0.128
2.468,-0.129
2.469,-0.131
2.470,-0.133
2.471,-0.131
2.472,-0.131
2.473,-0.131
2.474,-0.130
2.475,-0.131
2.476,-0.133
2.477,-0.131
2.478,-0.130
2.479,-0.131
2.480,-0.136
2.481,-0.137
2.482,-0.133
2.483,-0.131
2.484,-0.131
2.485,-0.131
2.486,-0.131
2.487,-0.131
2.488,-0.131
2.489,-0.131
2.490,-0.131
2.491,-0.134
2.492,-0.134
2.493,-0.131
2.494,-0.131
2.495,-0.134
2.496,-0.137
2.497,-0.137
2.498,-0.136
2.499,-0.137
2.500,-0.136
2.501,-0.131
2.502,-0.130
2.503,-0.128
2.504,-0.131
2.505,-0.131
2.506,-0.133
2.507,-0.134
2.508,-0.136
2.509,-0.137
2.510,-0.137
2.511,-0.137
2.512,-0.134
2.513,-0.131
2.514,-0.131
2.515,-0.131
2.516,-0.137
2.517,-0.144
2.518,-0.145
2.519,-0.147
2.520,-0.146
2.521,-0.147
2.522,-0.144
2.523,-0.141
2.524,-0.141
2.525,-0.141
2.526,-0.142
2.527,-0.144
2.528,-0.143
2.529,-0.141
2.530,-0.144
2.531,-0.144
2.532,-0.144
2.533,-0.144
2.534,-0.144
2.535,-0.144
2.536,-0.144
2.537,-0.141
2.538,-0.144
2.539,-0.141
2.540,-0.141
2.541,-0.144
2.542,-0.139
2.543,-0.137
2.544,-0.133
2.545,-0.131
2.546,-0.133
2.547,-0.134
2.548,-0.139
2.549,-0.144
2.550,-0.145
2.551,-0.147
2.552,-0.146
2.553,-0.144
2.554,-0.143
2.555,-0.141
2.556,-0.137
2.557,-0.141
2.558,-0.141
2.559,-0.141
2.560,-0.141
2.561,-0.141
2.562,-0.142
2.563,-0.147
2.564,-0.148
2.565,-0.150
2.566,-0.144
2.567,-0.141
2.568,-0.144
2.569,-0.144
2.570,-0.145
2.571,-0.144
2.572,-0.147
2.573,-0.144
2.574,-0.139
2.575,-0.134
2.576,-0.136
2.577,-0.137
2.578,-0.137
2.579,-0.137
2.580,-0.139
2.581,-0.141
2.582,-0.142
2.583,-0.141
2.584,-0.143
2.585,-0.141
2.586,-0.142
2.587,-0.144
2.588,-0.141
2.589,-0.141
2.590,-0.143
2.591,-0.141
2.592,-0.137
2.593,-0.141
2.594,-0.139
2.595,-0.141
2.596,-0.141
2.597,-0.141
2.598,-0.141
2.599,-0.141
2.600,-0.136
2.601,-0.131
2.602,-0.134
2.603,-0.137
2.604,-0.139
2.605,-0.141
2.606,-0.144
2.607,-0.144
2.608,-0.144
2.609,-0.144
2.610,-0.141
2.611,-0.137
2.612,-0.136
2.613,-0.137
2.614,-0.137
2.615,-0.137
2.616,-0.136
2.617,-0.131
2.618,-0.131
2.619,-0.134
2.620,-0.137
2.621,-0.141
2.622,-0.139
2.623,-0.141
2.624,-0.142
2.625,-0.141
2.626,-0.142
2.627,-0.141
2.628,-0.136
2.629,-0.134
2.630,-0.131
2.631,-0.131
2.632,-0.134
2.633,-0.137
2.634,-0.134
2.635,-0.137
2.636,-0.141
2.637,-0.144
2.638,-0.144
2.639,-0.144
2.640,-0.144
2.641,-0.144
2.642,-0.144
2.643,-0.147
2.644,-0.144
2.645,-0.144
2.646,-0.145
2.647,-0.144
2.648,-0.141
2.649,-0.141
2.650,-0.137
2.651,-0.134
2.652,-0.131
2.653,-0.128
2.654,-0.126
2.655,-0.131
2.656,-0.121
2.657,-0.119
2.658,-0.119
2.659,-0.119
2.660,-0.111
2.661,-0.109
2.662,-0.104
2.663,-0.103
2.664,-0.097
2.665,-0.097
2.666,-0.093
2.667,-0.084
2.668,-0.081
2.669,-0.084
2.670,-0.092
2.671,-0.100
2.672,-0.096
2.673,-0.097
2.674,-0.099
2.675,-0.100
2.676,-0.099
2.677,-0.100
2.678,-0.103
2.679,-0.103
2.680,-0.094
2.681,-0.084
2.682,-0.077
2.683,-0.069
2.684,-0.061
2.685,-0.050
2.686,-0.044
2.687,-0.044
2.688,-0.034
2.689,-0.025
2.690,-0.026
2.691,-0.025
2.692,-0.028
2.693,-0.034
2.694,-0.039
2.695,-0.053
2.696,-0.059
2.697,-0.072
2.698,-0.071
2.699,-0.078
2.700,-0.078
2.701,-0.081
2.702,-0.083
2.703,-0.088
2.704,-0.089
2.705,-0.091
2.706,-0.091
2.707,-0.091
2.708,-0.089
2.709,-0.084
2.710,-0.078
2.711,-0.078
2.712,-0.078
2.713,-0.075
2.714,-0.076
2.715,-0.081
2.716,-0.083
2.717,-0.081
2.718,-0.089
2.719,-0.094
2.720,-0.099
2.721,-0.097
2.722,-0.100
2.723,-0.100
2.724,-0.106
2.725,-0.113
2.726,-0.119
2.727,-0.128
2.728,-0.133
2.729,-0.131
2.730,-0.134
2.731,-0.137
2.732,-0.143
2.733,-0.141
2.734,-0.139
2.735,-0.141
2.736,-0.143
2.737,-0.147
2.738,-0.151
2.739,-0.156
2.740,-0.159
2.741,-0.159
2.742,-0.156
2.743,-0.153
2.744,-0.146
2.745,-0.144
2.746,-0.144
2.747,-0.147
2.748,-0.151
2.749,-0.156
2.750,-0.155
2.751,-0.156
2.752,-0.156
2.753,-0.156
2.754,-0.155
2.755,-0.153
2.756,-0.153
2.757,-0.150
2.758,-0.153
2.759,-0.153
2.760,-0.156
2.761,-0.159
2.762,-0.156
2.763,-0.150
2.764,-0.152
2.765,-0.150
2.766,-0.150
2.767,-0.150
2.768,-0.153
2.769,-0.150
2.770,-0.154
2.771,-0.156
2.772,-0.153
2.773,-0.150
2.774,-0.151
2.775,-0.153
2.776,-0.154
2.777,-0.156
2.778,-0.156
2.779,-0.156
2.780,-0.155
2.781,-0.153
2.782,-0.154
2.783,-0.156
2.784,-0.156
2.785,-0.156
2.786,-0.159
2.787,-0.159
2.788,-0.156
2.789,-0.156
2.790,-0.161
2.791,-0.162
2.792,-0.170
2.793,-0.181
2.794,-0.201
2.795,-0.219
2.796,-0.230
2.797,-0.247
2.798,-0.263
2.799,-0.278
2.800,-0.293
2.801,-0.303
2.802,-0.314
2.803,-0.325
2.804,-0.339
2.805,-0.344
2.806,-0.354
2.807,-0.359
2.808,-0.356
2.809,-0.344
2.810,-0.327
2.811,-0.300
2.812,-0.266
2.813,-0.225
2.814,-0.181
2.815,-0.131
2.816,-0.074
2.817,-0.016
2.818,0.036
2.819,0.091
2.820,0.154
2.821,0.234
2.822,0.316
2.823,0.416
2.824,0.512
2.825,0.625
2.826,0.744
2.827,0.878
2.828,1.012
2.829,1.159
2.830,1.306
2.831,1.456
2.832,1.597
2.833,1.719
2.834,1.837
2.835,1.956
2.836,2.044
2.837,2.087
2.838,2.094
2.839,2.012
2.840,1.902
2.841,1.709
2.842,1.536
2.843,1.372
2.844,1.236
2.845,1.128
2.846,1.026
2.847,0.937
2.848,0.850
2.849,0.781
2.850,0.692
2.851,0.594
2.852,0.496
2.853,0.372
2.854,0.270
2.855,0.197
2.856,0.122
2.857,0.072
2.858,0.014
2.859,-0.025
2.860,-0.072
2.861,-0.109
2.862,-0.144
2.863,-0.166
2.864,-0.200
2.865,-0.213
2.866,-0.222
2.867,-0.222
2.868,-0.214
2.869,-0.206
2.870,-0.194
2.871,-0.181
2.872,-0.168
2.873,-0.159
2.874,-0.149
2.875,-0.141
2.876,-0.131
2.877,-0.122
2.878,-0.116
2.879,-0.113
2.880,-0.113
2.881,-0.109
2.882,-0.102
2.883,-0.097
2.884,-0.093
2.885,-0.091
2.886,-0.098
2.887,-0.103
2.888,-0.104
2.889,-0.106
2.890,-0.097
2.891,-0.091
2.892,-0.080
2.893,-0.072
2.894,-0.069
2.895,-0.069
2.896,-0.069
2.897,-0.066
2.898,-0.064
2.899,-0.063
2.900,-0.066
2.901,-0.066
2.902,-0.064
2.903,-0.066
2.904,-0.063
2.905,-0.059
2.906,-0.061
2.907,-0.063
2.908,-0.061
2.909,-0.063
2.910,-0.059
2.911,-0.059
2.912,-0.059
2.913,-0.063
2.914,-0.066
2.915,-0.066
2.916,-0.068
2.917,-0.063
2.918,-0.056
2.919,-0.053
2.920,-0.056
2.921,-0.053
2.922,-0.050
2.923,-0.050
2.924,-0.048
2.925,-0.050
2.926,-0.049
2.927,-0.044
2.928,-0.043
2.929,-0.041
2.930,-0.039
2.931,-0.041
2.932,-0.041
2.933,-0.041
2.934,-0.038
2.935,-0.034
2.936,-0.038
2.937,-0.034
2.938,-0.036
2.939,-0.034
2.940,-0.033
2.941,-0.031
2.942,-0.025
2.943,-0.022
2.944,-0.019
2.945,-0.019
2.946,-0.019
2.947,-0.019
2.948,-0.023
2.949,-0.025
2.950,-0.023
2.951,-0.022
2.952,-0.019
2.953,-0.019
2.954,-0.018
2.955,-0.013
2.956,-0.011
2.957,-0.006
2.958,-0.009
2.959,-0.013
2.960,-0.011
2.961,-0.013
2.962,-0.008
2.963,-0.006
2.964,-0.003
2.965,0.000
2.966,0.003
2.967,0.003
2.968,0.008
2.969,0.009
2.970,0.008
2.971,0.009
2.972,0.012
2.973,0.016
2.974,0.019
2.975,0.019
2.976,0.017
2.977,0.019
2.978,0.019
2.979,0.022
2.980,0.024
2.981,0.022
2.982,0.028
2.983,0.028
2.984,0.032
2.985,0.034
2.986,0.037
2.987,0.041
2.988,0.042
2.989,0.044
2.990,0.048
2.991,0.053
2.992,0.057
2.993,0.056
2.994,0.061
2.995,0.066
2.996,0.070
2.997,0.075
2.998,0.081
2.999,0.084
3.000,0.084
3.001,0.084
3.002,0.083
3.003,0.084
3.004,0.091
3.005,0.100
3.006,0.109
3.007,0.119
3.008,0.122
3.009,0.122
3.010,0.126
3.011,0.131
3.012,0.136
3.013,0.137
3.014,0.145
3.015,0.150
3.016,0.155
3.017,0.156
3.018,0.161
3.019,0.166
3.020,0.167
3.021,0.172
3.022,0.182
3.023,0.191
3.024,0.198
3.025,0.206
3.026,0.211
3.027,0.216
3.028,0.219
3.029,0.225
3.030,0.234
3.031,0.241
3.032,0.247
3.033,0.250
3.034,0.259
3.035,0.266
3.036,0.272
3.037,0.278
3.038,0.284
3.039,0.294
3.040,0.303
3.041,0.316
3.042,0.329
3.043,0.341
3.044,0.339
3.045,0.341
3.046,0.341
3.047,0.344
3.048,0.350
3.049,0.356
3.050,0.359
3.051,0.363
3.052,0.370
3.053,0.378
3.054,0.391
3.055,0.400
3.056,0.406
3.057,0.416
3.058,0.423
3.059,0.428
3.060,0.428
3.061,0.434
3.062,0.442
3.063,0.447
3.064,0.447
3.065,0.447
3.066,0.452
3.067,0.453
3.068,0.453
3.069,0.456
3.070,0.458
3.071,0.459
3.072,0.467
3.073,0.475
3.074,0.477
3.075,0.475
3.076,0.477
3.077,0.475
3.078,0.475
3.079,0.475
3.080,0.475
3.081,0.475
3.082,0.468
3.083,0.459
3.084,0.457
3.085,0.453
3.086,0.445
3.087,0.441
3.088,0.436
3.089,0.428
3.090,0.422
3.091,0.412
3.092,0.400
3.093,0.384
3.094,0.374
3.095,0.363
3.096,0.353
3.097,0.341
3.098,0.322
3.099,0.303
3.100,0.292
3.101,0.278
3.102,0.269
3.103,0.256
3.104,0.244
3.105,0.231
3.106,0.216
3.107,0.203
3.108,0.194
3.109,0.178
3.110,0.167
3.111,0.156
3.112,0.148
3.113,0.137
3.114,0.124
3.115,0.109
3.116,0.101
3.117,0.091
3.118,0.078
3.119,0.069
3.120,0.059
3.121,0.053
3.122,0.044
3.123,0.037
3.124,0.025
3.125,0.016
3.126,0.009
3.127,0.006
3.128,-0.001
3.129,-0.009
3.130,-0.014
3.131,-0.025
3.132,-0.028
3.133,-0.028
3.134,-0.034
3.135,-0.044
3.136,-0.046
3.137,-0.050
3.138,-0.056
3.139,-0.059
3.140,-0.056
3.141,-0.053
3.142,-0.061
3.143,-0.063
3.144,-0.066
3.145,-0.069
3.146,-0.068
3.147,-0.072
3.148,-0.072
3.149,-0.075
3.150,-0.076
3.151,-0.078
3.152,-0.086
3.153,-0.088
3.154,-0.091
3.155,-0.091
3.156,-0.091
3.157,-0.091
3.158,-0.092
3.159,-0.097
3.160,-0.097
3.161,-0.100
3.162,-0.100
3.163,-0.097
3.164,-0.097
3.165,-0.094
3.166,-0.093
3.167,-0.094
3.168,-0.089
3.169,-0.091
3.170,-0.095
3.171,-0.100
3.172,-0.104
3.173,-0.106
3.174,-0.103
3.175,-0.103
3.176,-0.108
3.177,-0.106
3.178,-0.108
3.179,-0.106
3.180,-0.109
3.181,-0.109
3.182,-0.108
3.183,-0.106
3.184,-0.106
3.185,-0.103
3.186,-0.106
3.187,-0.103
3.188,-0.106
3.189,-0.106
3.190,-0.106
3.191,-0.103
3.192,-0.106
3.193,-0.106
3.194,-0.105
3.195,-0.106
3.196,-0.109
3.197,-0.113
3.198,-0.109
3.199,-0.113
3.200,-0.113
3.201,-0.109
3.202,-0.109
3.203,-0.109
3.204,-0.108
3.205,-0.109
3.206,-0.106
3.207,-0.103
3.208,-0.103
3.209,-0.103
3.210,-0.103
3.211,-0.103
3.212,-0.106
3.213,-0.106
3.214,-0.104
3.215,-0.106
3.216,-0.105
3.217,-0.106
3.218,-0.108
3.219,-0.106
3.220,-0.109
3.221,-0.109
3.222,-0.108
3.223,-0.106
3.224,-0.103
3.225,-0.103
3.226,-0.103
3.227,-0.103
3.228,-0.104
3.229,-0.106
3.230,-0.102
3.231,-0.103
3.232,-0.106
3.233,-0.106
3.234,-0.105
3.235,-0.103
3.236,-0.104
3.237,-0.103
3.238,-0.101
3.239,-0.103
3.240,-0.103
3.241,-0.103
3.242,-0.100
3.243,-0.100
3.244,-0.103
3.245,-0.103
3.246,-0.106
3.247,-0.106
3.248,-0.105
3.249,-0.103
3.250,-0.106
3.251,-0.106
3.252,-0.106
3.253,-0.106
3.254,-0.108
3.255,-0.106
3.256,-0.109
3.257,-0.106
3.258,-0.102
3.259,-0.097
3.260,-0.103
3.261,-0.103
3.262,-0.103
3.263,-0.103
3.264,-0.105
3.265,-0.103
3.266,-0.103
3.267,-0.103
3.268,-0.101
3.269,-0.103
3.270,-0.102
3.271,-0.103
3.272,-0.102
3.273,-0.097
3.274,-0.097
3.275,-0.097
3.276,-0.097
3.277,-0.097
3.278,-0.098
3.279,-0.100
3.280,-0.099
3.281,-0.100
3.282,-0.100
3.283,-0.097
3.284,-0.100
3.285,-0.100
3.286,-0.097
3.287,-0.097
3.288,-0.101
3.289,-0.100
3.290,-0.099
3.291,-0.100
3.292,-0.094
3.293,-0.091
3.294,-0.091
3.295,-0.094
3.296,-0.098
3.297,-0.097
3.298,-0.093
3.299,-0.091
3.300,-0.092
3.301,-0.094
3.302,-0.098
3.303,-0.103
3.304,-0.102
3.305,-0.100
3.306,-0.100
3.307,-0.100
3.308,-0.100
3.309,-0.100
3.310,-0.099
3.311,-0.097
3.312,-0.094
3.313,-0.094
3.314,-0.101
3.315,-0.103
3.316,-0.103
3.317,-0.103
3.318,-0.105
3.319,-0.103
3.320,-0.101
3.321,-0.103
3.322,-0.103
3.323,-0.103
3.324,-0.103
3.325,-0.103
3.326,-0.103
3.327,-0.103
3.328,-0.103
3.329,-0.103
3.330,-0.104
3.331,-0.106
3.332,-0.103
3.333,-0.103
3.334,-0.105
3.335,-0.106
3.336,-0.103
3.337,-0.103
3.338,-0.106
3.339,-0.106
3.340,-0.103
3.341,-0.103
3.342,-0.106
3.343,-0.106
3.344,-0.106
3.345,-0.109
3.346,-0.108
3.347,-0.113
3.348,-0.111
3.349,-0.113
3.350,-0.114
3.351,-0.113
3.352,-0.109
3.353,-0.113
3.354,-0.111
3.355,-0.109
3.356,-0.109
3.357,-0.109
3.358,-0.109
3.359,-0.113
3.360,-0.113
3.361,-0.113
3.362,-0.113
3.363,-0.113
3.364,-0.109
3.365,-0.109
3.366,-0.108
3.367,-0.106
3.368,-0.113
3.369,-0.116
3.370,-0.113
3.371,-0.113
3.372,-0.116
3.373,-0.119
3.374,-0.123
3.375,-0.125
3.376,-0.125
3.377,-0.125
3.378,-0.122
3.379,-0.119
3.380,-0.119
3.381,-0.119
3.382,-0.119
3.383,-0.119
3.384,-0.122
3.385,-0.122
3.386,-0.118
3.387,-0.116
3.388,-0.118
3.389,-0.116
3.390,-0.113
3.391,-0.113
3.392,-0.116
3.393,-0.116
3.394,-0.114
3.395,-0.116
3.396,-0.117
3.397,-0.122
3.398,-0.123
3.399,-0.125
3.400,-0.126
3.401,-0.128
3.402,-0.127
3.403,-0.125
3.404,-0.125
3.405,-0.125
3.406,-0.125
3.407,-0.125
3.408,-0.119
3.409,-0.113
3.410,-0.113
3.411,-0.113
3.412,-0.113
3.413,-0.113
3.414,-0.119
3.415,-0.122
3.416,-0.123
3.417,-0.125
3.418,-0.125
3.419,-0.125
3.420,-0.125
3.421,-0.125
3.422,-0.126
3.423,-0.128
3.424,-0.125
3.425,-0.125
3.426,-0.124
3.427,-0.125
3.428,-0.127
3.429,-0.125
3.430,-0.123
3.431,-0.128
3.432,-0.125
3.433,-0.125
3.434,-0.129
3.435,-0.128
3.436,-0.127
3.437,-0.125
3.438,-0.127
3.439,-0.125
3.440,-0.126
3.441,-0.128
3.442,-0.128
3.443,-0.128
3.444,-0.128
3.445,-0.128
3.446,-0.129
3.447,-0.131
3.448,-0.130
3.449,-0.125
3.450,-0.128
3.451,-0.128
3.452,-0.129
3.453,-0.131
3.454,-0.130
3.455,-0.128
3.456,-0.130
3.457,-0.128
3.458,-0.128
3.459,-0.125
3.460,-0.124
3.461,-0.125
3.462,-0.126
3.463,-0.128
3.464,-0.125
3.465,-0.128
3.466,-0.126
3.467,-0.128
3.468,-0.128
3.469,-0.128
3.470,-0.128
3.471,-0.128
3.472,-0.128
3.473,-0.128
3.474,-0.130
3.475,-0.128
3.476,-0.129
3.477,-0.131
3.478,-0.130
3.479,-0.128
3.480,-0.125
3.481,-0.125
3.482,-0.129
3.483,-0.134
3.484,-0.134
3.485,-0.131
3.486,-0.130
3.487,-0.131
3.488,-0.131
3.489,-0.131
3.490,-0.130
3.491,-0.131
3.492,-0.133
3.493,-0.131
3.494,-0.130
3.495,-0.125
3.496,-0.122
3.497,-0.122
3.498,-0.123
3.499,-0.128
3.500,-0.131
3.501,-0.134
3.502,-0.128
3.503,-0.128
3.504,-0.128
3.505,-0.128
3.506,-0.131
3.507,-0.134
3.508,-0.134
3.509,-0.134
3.510,-0.131
3.511,-0.131
3.512,-0.130
3.513,-0.131
3.514,-0.133
3.515,-0.131
3.516,-0.127
3.517,-0.125
3.518,-0.124
3.519,-0.122
3.520,-0.123
3.521,-0.125
3.522,-0.116
3.523,-0.113
3.524,-0.100
3.525,-0.097
3.526,-0.098
3.527,-0.100
3.528,-0.095
3.529,-0.097
3.530,-0.091
3.531,-0.088
3.532,-0.083
3.533,-0.084
3.534,-0.081
3.535,-0.075
3.536,-0.074
3.537,-0.078
3.538,-0.080
3.539,-0.081
3.540,-0.074
3.541,-0.072
3.542,-0.075
3.543,-0.078
3.544,-0.081
3.545,-0.088
3.546,-0.089
3.547,-0.088
3.548,-0.084
3.549,-0.081
3.550,-0.076
3.551,-0.072
3.552,-0.063
3.553,-0.050
3.554,-0.039
3.555,-0.034
3.556,-0.027
3.557,-0.019
3.558,-0.018
3.559,-0.013
3.560,-0.011
3.561,-0.013
3.562,-0.017
3.563,-0.031
3.564,-0.034
3.565,-0.044
3.566,-0.047
3.567,-0.059
3.568,-0.064
3.569,-0.072
3.570,-0.075
3.571,-0.081
3.572,-0.084
3.573,-0.088
3.574,-0.086
3.575,-0.084
3.576,-0.081
3.577,-0.075
3.578,-0.070
3.579,-0.072
3.580,-0.072
3.581,-0.069
3.582,-0.061
3.583,-0.056
3.584,-0.061
3.585,-0.063
3.586,-0.075
3.587,-0.084
3.588,-0.089
3.589,-0.088
3.590,-0.089
3.591,-0.088
3.592,-0.091
3.593,-0.094
3.594,-0.098
3.595,-0.106
3.596,-0.114
3.597,-0.116
3.598,-0.116
3.599,-0.116
3.600,-0.123
3.601,-0.125
3.602,-0.126
3.603,-0.131
3.604,-0.131
3.605,-0.134
3.606,-0.137
3.607,-0.141
3.608,-0.144
3.609,-0.144
3.610,-0.144
3.611,-0.144
3.612,-0.139
3.613,-0.141
3.614,-0.139
3.615,-0.141
3.616,-0.142
3.617,-0.144
3.618,-0.144
3.619,-0.147
3.620,-0.147
3.621,-0.147
3.622,-0.147
3.623,-0.147
3.624,-0.150
3.625,-0.150
3.626,-0.151
3.627,-0.150
3.628,-0.150
3.629,-0.150
3.630,-0.150
3.631,-0.147
3.632,-0.146
3.633,-0.141
3.634,-0.142
3.635,-0.144
3.636,-0.147
3.637,-0.144
3.638,-0.147
3.639,-0.147
3.640,-0.147
3.641,-0.147
3.642,-0.146
3.643,-0.144
3.644,-0.144
3.645,-0.144
3.646,-0.148
3.647,-0.153
3.648,-0.154
3.649,-0.156
3.650,-0.158
3.651,-0.159
3.652,-0.156
3.653,-0.153
3.654,-0.156
3.655,-0.156
3.656,-0.156
3.657,-0.159
3.658,-0.166
3.659,-0.169
3.660,-0.176
3.661,-0.188
3.662,-0.197
3.663,-0.203
3.664,-0.214
3.665,-0.231
3.666,-0.242
3.667,-0.253
3.668,-0.269
3.669,-0.281
3.670,-0.298
3.671,-0.316
3.672,-0.334
3.673,-0.344
3.674,-0.349
3.675,-0.347
3.676,-0.347
3.677,-0.338
3.678,-0.324
3.679,-0.300
3.680,-0.278
3.681,-0.250
3.682,-0.216
3.683,-0.175
3.684,-0.118
3.685,-0.059
3.686,-0.003
3.687,0.056
3.688,0.106
3.689,0.172
3.690,0.249
3.691,0.344
3.692,0.439
3.693,0.550
3.694,0.662
3.695,0.791
3.696,0.925
3.697,1.072
3.698,1.226
3.699,1.384
3.700,1.537
3.701,1.672
3.702,1.800
3.703,1.928
3.704,2.064
3.705,2.156
3.706,2.222
3.707,2.200
3.708,2.134
3.709,1.987
3.710,1.808
3.711,1.637
3.712,1.474
3.713,1.337
3.714,1.208
3.715,1.091
3.716,0.978
3.717,0.884
3.718,0.803
3.719,0.712
3.720,0.616
3.721,0.494
3.722,0.358
3.723,0.250
3.724,0.150
3.725,0.075
3.726,0.009
3.727,-0.038
3.728,-0.080
3.729,-0.113
3.730,-0.150
3.731,-0.175
3.732,-0.201
3.733,-0.206
3.734,-0.214
3.735,-0.213
3.736,-0.204
3.737,-0.197
3.738,-0.184
3.739,-0.172
3.740,-0.159
3.741,-0.153
3.742,-0.144
3.743,-0.137
3.744,-0.130
3.745,-0.122
3.746,-0.111
3.747,-0.103
3.748,-0.102
3.749,-0.097
3.750,-0.095
3.751,-0.097
3.752,-0.097
3.753,-0.100
3.754,-0.103
3.755,-0.103
3.756,-0.101
3.757,-0.100
3.758,-0.094
3.759,-0.091
3.760,-0.083
3.761,-0.078
3.762,-0.074
3.763,-0.072
3.764,-0.075
3.765,-0.075
3.766,-0.072
3.767,-0.069
3.768,-0.072
3.769,-0.072
3.770,-0.070
3.771,-0.072
3.772,-0.074
3.773,-0.075
3.774,-0.075
3.775,-0.075
3.776,-0.073
3.777,-0.075
3.778,-0.072
3.779,-0.072
3.780,-0.069
3.781,-0.069
3.782,-0.072
3.783,-0.072
3.784,-0.075
3.785,-0.072
3.786,-0.068
3.787,-0.066
3.788,-0.068
3.789,-0.063
3.790,-0.061
3.791,-0.063
3.792,-0.061
3.793,-0.063
3.794,-0.061
3.795,-0.056
3.796,-0.056
3.797,-0.056
3.798,-0.053
3.799,-0.053
3.800,-0.053
3.801,-0.053
3.802,-0.051
3.803,-0.050
3.804,-0.052
3.805,-0.047
3.806,-0.048
3.807,-0.047
3.808,-0.048
3.809,-0.050
3.810,-0.048
3.811,-0.050
3.812,-0.046
3.813,-0.044
3.814,-0.041
3.815,-0.038
3.816,-0.039
3.817,-0.038
3.818,-0.034
3.819,-0.031
3.820,-0.024
3.821,-0.019
3.822,-0.019
3.823,-0.016
3.824,-0.020
3.825,-0.022
3.826,-0.025
3.827,-0.028
3.828,-0.025
3.829,-0.025
3.830,-0.021
3.831,-0.019
3.832,-0.016
3.833,-0.013
3.834,-0.008
3.835,-0.006
3.836,0.000
3.837,0.003
3.838,0.002
3.839,0.003
3.840,0.006
3.841,0.009
3.842,0.011
3.843,0.009
3.844,0.009
3.845,0.012
3.846,0.012
3.847,0.016
3.848,0.017
3.849,0.016
3.850,0.022
3.851,0.022
3.852,0.025
3.853,0.025
3.854,0.025
3.855,0.025
3.856,0.027
3.857,0.028
3.858,0.034
3.859,0.041
3.860,0.051
3.861,0.056
3.862,0.056
3.863,0.056
3.864,0.058
3.865,0.059
3.866,0.062
3.867,0.062
3.868,0.067
3.869,0.072
3.870,0.075
3.871,0.081
3.872,0.080
3.873,0.081
3.874,0.083
3.875,0.084
3.876,0.094
3.877,0.100
3.878,0.104
3.879,0.109
3.880,0.116
3.881,0.119
3.882,0.125
3.883,0.128
3.884,0.134
3.885,0.137
3.886,0.141
3.887,0.144
3.888,0.148
3.889,0.156
3.890,0.166
3.891,0.172
3.892,0.181
3.893,0.191
3.894,0.192
3.895,0.194
3.896,0.196
3.897,0.200
3.898,0.208
3.899,0.212
3.900,0.222
3.901,0.228
3.902,0.237
3.903,0.244
3.904,0.249
3.905,0.253
3.906,0.259
3.907,0.269
3.908,0.275
3.909,0.284
3.910,0.294
3.911,0.300
3.912,0.306
3.913,0.316
3.914,0.322
3.915,0.331
3.916,0.337
3.917,0.344
3.918,0.350
3.919,0.356
3.920,0.359
3.921,0.363
3.922,0.372
3.923,0.378
3.924,0.381
3.925,0.388
3.926,0.395
3.927,0.400
3.928,0.403
3.929,0.412
3.930,0.419
3.931,0.422
3.932,0.421
3.933,0.419
3.934,0.429
3.935,0.437
3.936,0.441
3.937,0.447
3.938,0.451
3.939,0.456
3.940,0.458
3.941,0.459
3.942,0.461
3.943,0.459
3.944,0.462
3.945,0.462
3.946,0.462
3.947,0.462
3.948,0.466
3.949,0.469
3.950,0.467
3.951,0.466
3.952,0.462
3.953,0.456
3.954,0.447
3.955,0.441
3.956,0.437
3.957,0.431
3.958,0.422
3.959,0.409
3.960,0.400
3.961,0.388
3.962,0.377
3.963,0.366
3.964,0.357
3.965,0.347
3.966,0.334
3.967,0.322
3.968,0.311
3.969,0.297
3.970,0.284
3.971,0.269
3.972,0.253
3.973,0.237
3.974,0.223
3.975,0.212
3.976,0.200
3.977,0.181
3.978,0.167
3.979,0.153
3.980,0.142
3.981,0.128
3.982,0.119
3.983,0.109
3.984,0.099
3.985,0.084
3.986,0.076
3.987,0.072
3.988,0.061
3.989,0.053
3.990,0.042
3.991,0.034
3.992,0.025
3.993,0.019
3.994,0.012
3.995,0.009
3.996,0.008
3.997,0.006
3.998,-0.001
3.999,-0.016
4.000,-0.025
4.001,-0.031
4.002,-0.036
4.003,-0.044
4.004,-0.047
4.005,-0.053
4.006,-0.059
4.007,-0.063
4.008,-0.066
4.009,-0.069
4.010,-0.075
4.011,-0.075
4.012,-0.075
4.013,-0.075
4.014,-0.076
4.015,-0.084
4.016,-0.089
4.017,-0.097
4.018,-0.094
4.019,-0.091
4.020,-0.093
4.021,-0.088
4.022,-0.092
4.023,-0.094
4.024,-0.097
4.025,-0.100
4.026,-0.100
4.027,-0.103
4.028,-0.100
4.029,-0.100
4.030,-0.104
4.031,-0.106
4.032,-0.108
4.033,-0.106
4.034,-0.105
4.035,-0.106
4.036,-0.102
4.037,-0.103
4.038,-0.106
4.039,-0.109
4.040,-0.113
4.041,-0.113
4.042,-0.108
4.043,-0.106
4.044,-0.111
4.045,-0.109
4.046,-0.111
4.047,-0.109
4.048,-0.113
4.049,-0.113
4.050,-0.113
4.051,-0.113
4.052,-0.113
4.053,-0.109
4.054,-0.119
4.055,-0.122
4.056,-0.122
4.057,-0.119
4.058,-0.120
4.059,-0.119
4.060,-0.121
4.061,-0.119
4.062,-0.118
4.063,-0.119
4.064,-0.119
4.065,-0.119
4.066,-0.114
4.067,-0.116
4.068,-0.119
4.069,-0.119
4.070,-0.119
4.071,-0.119
4.072,-0.116
4.073,-0.116
4.074,-0.116
4.075,-0.116
4.076,-0.117
4.077,-0.119
4.078,-0.120
4.079,-0.122
4.080,-0.122
4.081,-0.119
4.082,-0.116
4.083,-0.116
4.084,-0.116
4.085,-0.119
4.086,-0.121
4.087,-0.119
4.088,-0.116
4.089,-0.109
4.090,-0.114
4.091,-0.119
4.092,-0.119
4.093,-0.122
4.094,-0.121
4.095,-0.119
4.096,-0.118
4.097,-0.116
4.098,-0.113
4.099,-0.116
4.100,-0.119
4.101,-0.119
4.102,-0.120
4.103,-0.122
4.104,-0.122
4.105,-0.119
4.106,-0.116
4.107,-0.116
4.108,-0.116
4.109,-0.116
4.110,-0.113
4.111,-0.113
4.112,-0.116
4.113,-0.116
4.114,-0.114
4.115,-0.109
4.116,-0.109
4.117,-0.109
4.118,-0.116
4.119,-0.119
4.120,-0.119
4.121,-0.119
4.122,-0.118
4.123,-0.113
4.124,-0.113
4.125,-0.106
4.126,-0.106
4.127,-0.106
4.128,-0.113
4.129,-0.113
4.130,-0.116
4.131,-0.119
4.132,-0.121
4.133,-0.119
4.134,-0.120
4.135,-0.122
4.136,-0.119
4.137,-0.119
4.138,-0.118
4.139,-0.119
4.140,-0.118
4.141,-0.113
4.142,-0.114
4.143,-0.116
4.144,-0.119
4.145,-0.122
4.146,-0.119
4.147,-0.116
4.148,-0.113
4.149,-0.113
4.150,-0.111
4.151,-0.106
4.152,-0.109
4.153,-0.109
4.154,-0.106
4.155,-0.106
4.156,-0.114
4.157,-0.116
4.158,-0.114
4.159,-0.116
4.160,-0.114
4.161,-0.116
4.162,-0.113
4.163,-0.113
4.164,-0.117
4.165,-0.116
4.166,-0.114
4.167,-0.116
4.168,-0.116
4.169,-0.116
4.170,-0.113
4.171,-0.109
4.172,-0.109
4.173,-0.109
4.174,-0.109
4.175,-0.109
4.176,-0.109
4.177,-0.109
4.178,-0.109
4.179,-0.109
4.180,-0.108
4.181,-0.109
4.182,-0.116
4.183,-0.116
4.184,-0.117
4.185,-0.119
4.186,-0.121
4.187,-0.119
4.188,-0.116
4.189,-0.116
4.190,-0.116
4.191,-0.116
4.192,-0.116
4.193,-0.116
4.194,-0.114
4.195,-0.113
4.196,-0.114
4.197,-0.116
4.198,-0.114
4.199,-0.113
4.200,-0.111
4.201,-0.113
4.202,-0.114
4.203,-0.116
4.204,-0.116
4.205,-0.119
4.206,-0.121
4.207,-0.119
4.208,-0.118
4.209,-0.119
4.210,-0.122
4.211,-0.122
4.212,-0.120
4.213,-0.122
4.214,-0.119
4.215,-0.122
4.216,-0.122
4.217,-0.125
4.218,-0.128
4.219,-0.128
4.220,-0.125
4.221,-0.128
4.222,-0.128
4.223,-0.128
4.224,-0.128
4.225,-0.128
4.226,-0.127
4.227,-0.128
4.228,-0.128
4.229,-0.128
4.230,-0.128
4.231,-0.128
4.232,-0.126
4.233,-0.128
4.234,-0.128
4.235,-0.128
4.236,-0.131
4.237,-0.131
4.238,-0.128
4.239,-0.128
4.240,-0.131
4.241,-0.134
4.242,-0.134
4.243,-0.131
4.244,-0.131
4.245,-0.131
4.246,-0.130
4.247,-0.128
4.248,-0.128
4.249,-0.128
4.250,-0.128
4.251,-0.128
4.252,-0.131
4.253,-0.131
4.254,-0.129
4.255,-0.131
4.256,-0.134
4.257,-0.134
4.258,-0.131
4.259,-0.131
4.260,-0.136
4.261,-0.137
4.262,-0.134
4.263,-0.134
4.264,-0.130
4.265,-0.128
4.266,-0.128
4.267,-0.128
4.268,-0.129
4.269,-0.131
4.270,-0.131
4.271,-0.131
4.272,-0.133
4.273,-0.134
4.274,-0.131
4.275,-0.128
4.276,-0.128
4.277,-0.128
4.278,-0.131
4.279,-0.134
4.280,-0.136
4.281,-0.137
4.282,-0.137
4.283,-0.134
4.284,-0.133
4.285,-0.131
4.286,-0.131
4.287,-0.131
4.288,-0.130
4.289,-0.128
4.290,-0.129
4.291,-0.131
4.292,-0.129
4.293,-0.131
4.294,-0.128
4.295,-0.128
4.296,-0.131
4.297,-0.131
4.298,-0.128
4.299,-0.131
4.300,-0.134
4.301,-0.141
4.302,-0.145
4.303,-0.144
4.304,-0.139
4.305,-0.134
4.306,-0.136
4.307,-0.134
4.308,-0.137
4.309,-0.141
4.310,-0.141
4.311,-0.141
4.312,-0.137
4.313,-0.134
4.314,-0.133
4.315,-0.131
4.316,-0.133
4.317,-0.131
4.318,-0.134
4.319,-0.134
4.320,-0.136
4.321,-0.137
4.322,-0.139
4.323,-0.141
4.324,-0.141
4.325,-0.137
4.326,-0.137
4.327,-0.134
4.328,-0.134
4.329,-0.137
4.330,-0.136
4.331,-0.134
4.332,-0.134
4.333,-0.141
4.334,-0.139
4.335,-0.141
4.336,-0.142
4.337,-0.144
4.338,-0.144
4.339,-0.144
4.340,-0.144
4.341,-0.144
4.342,-0.141
4.343,-0.137
4.344,-0.134
4.345,-0.137
4.346,-0.137
4.347,-0.137
4.348,-0.136
4.349,-0.131
4.350,-0.134
4.351,-0.141
4.352,-0.142
4.353,-0.141
4.354,-0.143
4.355,-0.141
4.356,-0.139
4.357,-0.141
4.358,-0.141
4.359,-0.141
4.360,-0.141
4.361,-0.141
4.362,-0.142
4.363,-0.141
4.364,-0.141
4.365,-0.141
4.366,-0.141
4.367,-0.141
4.368,-0.137
4.369,-0.137
4.370,-0.141
4.371,-0.141
4.372,-0.141
4.373,-0.141
4.374,-0.144
4.375,-0.144
4.376,-0.142
4.377,-0.144
4.378,-0.141
4.379,-0.141
4.380,-0.145
4.381,-0.144
4.382,-0.141
4.383,-0.141
4.384,-0.144
4.385,-0.141
4.386,-0.144
4.387,-0.144
4.388,-0.143
4.389,-0.141
4.390,-0.141
4.391,-0.141
4.392,-0.142
4.393,-0.141
4.394,-0.141
4.395,-0.141
4.396,-0.144
4.397,-0.144
4.398,-0.144
4.399,-0.144
4.400,-0.141
4.401,-0.137
4.402,-0.136
4.403,-0.131
4.404,-0.129
4.405,-0.125
4.406,-0.125
4.407,-0.116
4.408,-0.109
4.409,-0.100
4.410,-0.098
4.411,-0.094
4.412,-0.095
4.413,-0.091
4.414,-0.088
4.415,-0.081
4.416,-0.080
4.417,-0.075
4.418,-0.069
4.419,-0.069
4.420,-0.078
4.421,-0.084
4.422,-0.088
4.423,-0.084
4.424,-0.086
4.425,-0.088
4.426,-0.091
4.427,-0.091
4.428,-0.094
4.429,-0.094
4.430,-0.094
4.431,-0.091
4.432,-0.084
4.433,-0.078
4.434,-0.071
4.435,-0.063
4.436,-0.053
4.437,-0.044
4.438,-0.042
4.439,-0.038
4.440,-0.031
4.441,-0.031
4.442,-0.024
4.443,-0.019
4.444,-0.022
4.445,-0.025
4.446,-0.041
4.447,-0.047
4.448,-0.055
4.449,-0.053
4.450,-0.061
4.451,-0.063
4.452,-0.070
4.453,-0.075
4.454,-0.083
4.455,-0.084
4.456,-0.083
4.457,-0.081
4.458,-0.080
4.459,-0.078
4.460,-0.079
4.461,-0.078
4.462,-0.078
4.463,-0.078
4.464,-0.074
4.465,-0.069
4.466,-0.068
4.467,-0.069
4.468,-0.069
4.469,-0.078
4.470,-0.083
4.471,-0.088
4.472,-0.088
4.473,-0.091
4.474,-0.091
4.475,-0.094
4.476,-0.097
4.477,-0.100
4.478,-0.108
4.479,-0.119
4.480,-0.119
4.481,-0.119
4.482,-0.119
4.483,-0.122
4.484,-0.126
4.485,-0.131
4.486,-0.134
4.487,-0.137
4.488,-0.144
4.489,-0.147
4.490,-0.150
4.491,-0.150
4.492,-0.146
4.493,-0.144
4.494,-0.147
4.495,-0.144
4.496,-0.144
4.497,-0.144
4.498,-0.146
4.499,-0.144
4.500,-0.144
4.501,-0.144
4.502,-0.147
4.503,-0.147
4.504,-0.150
4.505,-0.153
4.506,-0.154
4.507,-0.159
4.508,-0.158
4.509,-0.156
4.510,-0.150
4.511,-0.147
4.512,-0.148
4.513,-0.150
4.514,-0.146
4.515,-0.147
4.516,-0.147
4.517,-0.147
4.518,-0.147
4.519,-0.150
4.520,-0.148
4.521,-0.153
4.522,-0.154
4.523,-0.156
4.524,-0.156
4.525,-0.156
4.526,-0.152
4.527,-0.147
4.528,-0.147
4.529,-0.147
4.530,-0.147
4.531,-0.147
4.532,-0.147
4.533,-0.147
4.534,-0.148
4.535,-0.150
4.536,-0.150
4.537,-0.153
4.538,-0.154
4.539,-0.156
4.540,-0.156
4.541,-0.159
4.542,-0.164
4.543,-0.172
4.544,-0.183
4.545,-0.197
4.546,-0.206
4.547,-0.219
4.548,-0.234
4.549,-0.247
4.550,-0.263
4.551,-0.278
4.552,-0.292
4.553,-0.309
4.554,-0.326
4.555,-0.341
4.556,-0.347
4.557,-0.359
4.558,-0.359
4.559,-0.356
4.560,-0.347
4.561,-0.334
4.562,-0.309
4.563,-0.281
4.564,-0.247
4.565,-0.206
4.566,-0.166
4.567,-0.116
4.568,-0.056
4.569,0.003
4.570,0.055
4.571,0.109
4.572,0.189
4.573,0.275
4.574,0.372
4.575,0.469
4.576,0.587
4.577,0.706
4.578,0.845
4.579,0.991
4.580,1.144
4.581,1.297
4.582,1.447
4.583,1.597
4.584,1.736
4.585,1.869
4.586,2.000
4.587,2.125
4.588,2.194
4.589,2.231
4.590,2.187
4.591,2.109
4.592,1.956
4.593,1.787
4.594,1.622
4.595,1.456
4.596,1.317
4.597,1.184
4.598,1.066
4.599,0.953
4.600,0.858
4.601,0.769
4.602,0.676
4.603,0.584
4.604,0.458
4.605,0.322
4.606,0.218
4.607,0.119
4.608,0.049
4.609,-0.022
4.610,-0.072
4.611,-0.119
4.612,-0.155
4.613,-0.188
4.614,-0.200
4.615,-0.213
4.616,-0.206
4.617,-0.200
4.618,-0.189
4.619,-0.178
4.620,-0.170
4.621,-0.159
4.622,-0.148
4.623,-0.137
4.624,-0.131
4.625,-0.122
4.626,-0.117
4.627,-0.113
4.628,-0.111
4.629,-0.109
4.630,-0.100
4.631,-0.094
4.632,-0.092
4.633,-0.091
4.634,-0.095
4.635,-0.100
4.636,-0.102
4.637,-0.103
4.638,-0.103
4.639,-0.100
4.640,-0.096
4.641,-0.088
4.642,-0.084
4.643,-0.078
4.644,-0.075
4.645,-0.072
4.646,-0.072
4.647,-0.072
4.648,-0.070
4.649,-0.072
4.650,-0.072
4.651,-0.075
4.652,-0.079
4.653,-0.081
4.654,-0.080
4.655,-0.081
4.656,-0.086
4.657,-0.088
4.658,-0.086
4.659,-0.081
4.660,-0.081
4.661,-0.078
4.662,-0.078
4.663,-0.075
4.664,-0.074
4.665,-0.075
4.666,-0.072
4.667,-0.072
4.668,-0.072
4.669,-0.072
4.670,-0.071
4.671,-0.072
4.672,-0.072
4.673,-0.072
4.674,-0.071
4.675,-0.066
4.676,-0.063
4.677,-0.059
4.678,-0.056
4.679,-0.056
4.680,-0.057
4.681,-0.056
4.682,-0.055
4.683,-0.053
4.684,-0.054
4.685,-0.053
4.686,-0.051
4.687,-0.056
4.688,-0.052
4.689,-0.050
4.690,-0.047
4.691,-0.047
4.692,-0.048
4.693,-0.047
4.694,-0.046
4.695,-0.041
4.696,-0.041
4.697,-0.038
4.698,-0.030
4.699,-0.028
4.700,-0.032
4.701,-0.034
4.702,-0.036
4.703,-0.038
4.704,-0.038
4.705,-0.038
4.706,-0.033
4.707,-0.031
4.708,-0.024
4.709,-0.019
4.710,-0.018
4.711,-0.013
4.712,-0.011
4.713,-0.006
4.714,-0.008
4.715,-0.006
4.716,-0.004
4.717,-0.003
4.718,-0.004
4.719,-0.003
4.720,-0.002
4.721,0.000
4.722,0.002
4.723,0.003
4.724,0.006
4.725,0.009
4.726,0.009
4.727,0.009
4.728,0.012
4.729,0.012
4.730,0.017
4.731,0.022
4.732,0.023
4.733,0.031
4.734,0.028
4.735,0.028
4.736,0.025
4.737,0.025
4.738,0.032
4.739,0.041
4.740,0.042
4.741,0.044
4.742,0.050
4.743,0.056
4.744,0.052
4.745,0.053
4.746,0.055
4.747,0.056
4.748,0.059
4.749,0.066
4.750,0.070
4.751,0.075
4.752,0.077
4.753,0.078
4.754,0.083
4.755,0.081
4.756,0.084
4.757,0.091
4.758,0.098
4.759,0.103
4.760,0.104
4.761,0.109
4.762,0.111
4.763,0.116
4.764,0.120
4.765,0.128
4.766,0.130
4.767,0.134
4.768,0.137
4.769,0.144
4.770,0.154
4.771,0.162
4.772,0.167
4.773,0.172
4.774,0.172
4.775,0.175
4.776,0.186
4.777,0.197
4.778,0.204
4.779,0.209
4.780,0.208
4.781,0.209
4.782,0.219
4.783,0.228
4.784,0.230
4.785,0.237
4.786,0.247
4.787,0.256
4.788,0.264
4.789,0.269
4.790,0.272
4.791,0.275
4.792,0.283
4.793,0.291
4.794,0.294
4.795,0.297
4.796,0.309
4.797,0.316
4.798,0.323
4.799,0.331
4.800,0.339
4.801,0.347
4.802,0.353
4.803,0.359
4.804,0.363
4.805,0.366
4.806,0.372
4.807,0.381
4.808,0.389
4.809,0.394
4.810,0.400
4.811,0.406
4.812,0.416
4.813,0.422
4.814,0.424
4.815,0.422
4.816,0.416
4.817,0.419
4.818,0.428
4.819,0.434
4.820,0.442
4.821,0.447
4.822,0.451
4.823,0.456
4.824,0.458
4.825,0.459
4.826,0.461
4.827,0.466
4.828,0.467
4.829,0.469
4.830,0.466
4.831,0.462
4.832,0.464
4.833,0.462
4.834,0.458
4.835,0.453
4.836,0.450
4.837,0.444
4.838,0.439
4.839,0.434
4.840,0.424
4.841,0.416
4.842,0.407
4.843,0.400
4.844,0.384
4.845,0.372
4.846,0.361
4.847,0.347
4.848,0.332
4.849,0.322
4.850,0.308
4.851,0.294
4.852,0.279
4.853,0.269
4.854,0.256
4.855,0.247
4.856,0.236
4.857,0.222
4.858,0.206
4.859,0.194
4.860,0.179
4.861,0.169
4.862,0.156
4.863,0.147
4.864,0.131
4.865,0.119
4.866,0.108
4.867,0.097
4.868,0.083
4.869,0.069
4.870,0.061
4.871,0.053
4.872,0.046
4.873,0.034
4.874,0.029
4.875,0.022
4.876,0.017
4.877,0.009
4.878,0.002
4.879,-0.006
4.880,-0.014
4.881,-0.019
4.882,-0.025
4.883,-0.028
4.884,-0.032
4.885,-0.038
4.886,-0.044
4.887,-0.047
4.888,-0.050
4.889,-0.053
4.890,-0.059
4.891,-0.066
4.892,-0.070
4.893,-0.078
4.894,-0.079
4.895,-0.084
4.896,-0.086
4.897,-0.084
4.898,-0.091
4.899,-0.091
4.900,-0.094
4.901,-0.094
4.902,-0.094
4.903,-0.100
4.904,-0.099
4.905,-0.100
4.906,-0.100
4.907,-0.100
4.908,-0.101
4.909,-0.103
4.910,-0.106
4.911,-0.106
4.912,-0.106
4.913,-0.106
4.914,-0.109
4.915,-0.113
4.916,-0.109
4.917,-0.109
4.918,-0.114
4.919,-0.113
4.920,-0.116
4.921,-0.119
4.922,-0.121
4.923,-0.122
4.924,-0.123
4.925,-0.122
4.926,-0.122
4.927,-0.125
4.928,-0.118
4.929,-0.113
4.930,-0.111
4.931,-0.116
4.932,-0.119
4.933,-0.122
4.934,-0.122
4.935,-0.122
4.936,-0.119
4.937,-0.122
4.938,-0.119
4.939,-0.122
4.940,-0.119
4.941,-0.116
4.942,-0.113
4.943,-0.116
4.944,-0.116
4.945,-0.116
4.946,-0.120
4.947,-0.122
4.948,-0.122
4.949,-0.119
4.950,-0.119
4.951,-0.116
4.952,-0.114
4.953,-0.116
4.954,-0.114
4.955,-0.113
4.956,-0.117
4.957,-0.119
4.958,-0.120
4.959,-0.122
4.960,-0.121
4.961,-0.119
4.962,-0.118
4.963,-0.116
4.964,-0.116
4.965,-0.116
4.966,-0.114
4.967,-0.113
4.968,-0.111
4.969,-0.109
4.970,-0.109
4.971,-0.109
4.972,-0.111
4.973,-0.116
4.974,-0.119
4.975,-0.119
4.976,-0.118
4.977,-0.116
4.978,-0.116
4.979,-0.116
4.980,-0.116
4.981,-0.113
4.982,-0.114
4.983,-0.116
4.984,-0.116
4.985,-0.116
4.986,-0.116
4.987,-0.116
4.988,-0.113
4.989,-0.109
4.990,-0.109
4.991,-0.109
4.992,-0.108
4.993,-0.106
4.994,-0.108
4.995,-0.109
4.996,-0.111
4.997,-0.113
4.998,-0.111
4.999,-0.113
5.000,-0.111
5.001,-0.113
5.002,-0.111
5.003,-0.109
5.004,-0.111
5.005,-0.113
5.006,-0.113
5.007,-0.119
5.008,-0.117
5.009,-0.119
5.010,-0.118
5.011,-0.119
5.012,-0.113
5.013,-0.109
5.014,-0.108
5.015,-0.109
5.016,-0.109
5.017,-0.109
5.018,-0.114
5.019,-0.116
5.020,-0.117
5.021,-0.119
5.022,-0.122
5.023,-0.122
5.024,-0.119
5.025,-0.119
5.026,-0.118
5.027,-0.116
5.028,-0.116
5.029,-0.116
5.030,-0.116
5.031,-0.116
5.032,-0.119
5.033,-0.119
5.034,-0.117
5.035,-0.122
5.036,-0.122
5.037,-0.119
5.038,-0.114
5.039,-0.113
5.040,-0.111
5.041,-0.113
5.042,-0.119
5.043,-0.119
5.044,-0.120
5.045,-0.122
5.046,-0.124
5.047,-0.125
5.048,-0.122
5.049,-0.119
5.050,-0.119
5.051,-0.119
5.052,-0.122
5.053,-0.125
5.054,-0.125
5.055,-0.125
5.056,-0.124
5.057,-0.122
5.058,-0.121
5.059,-0.119
5.060,-0.119
5.061,-0.119
5.062,-0.120
5.063,-0.119
5.064,-0.116
5.065,-0.119
5.066,-0.123
5.067,-0.128
5.068,-0.127
5.069,-0.128
5.070,-0.129
5.071,-0.128
5.072,-0.125
5.073,-0.122
5.074,-0.122
5.075,-0.122
5.076,-0.122
5.077,-0.122
5.078,-0.122
5.079,-0.122
5.080,-0.121
5.081,-0.119
5.082,-0.120
5.083,-0.119
5.084,-0.118
5.085,-0.119
5.086,-0.123
5.087,-0.122
5.088,-0.122
5.089,-0.125
5.090,-0.125
5.091,-0.125
5.092,-0.129
5.093,-0.134
5.094,-0.134
5.095,-0.131
5.096,-0.130
5.097,-0.125
5.098,-0.127
5.099,-0.125
5.100,-0.128
5.101,-0.128
5.102,-0.126
5.103,-0.125
5.104,-0.129
5.105,-0.131
5.106,-0.130
5.107,-0.128
5.108,-0.129
5.109,-0.131
5.110,-0.136
5.111,-0.137
5.112,-0.133
5.113,-0.128
5.114,-0.129
5.115,-0.128
5.116,-0.129
5.117,-0.131
5.118,-0.130
5.119,-0.131
5.120,-0.133
5.121,-0.131
5.122,-0.128
5.123,-0.128
5.124,-0.131
5.125,-0.131
5.126,-0.129
5.127,-0.131
5.128,-0.131
5.129,-0.131
5.130,-0.131
5.131,-0.131
5.132,-0.134
5.133,-0.137
5.134,-0.134
5.135,-0.134
5.136,-0.137
5.137,-0.137
5.138,-0.133
5.139,-0.131
5.140,-0.134
5.141,-0.134
5.142,-0.134
5.143,-0.137
5.144,-0.136
5.145,-0.131
5.146,-0.130
5.147,-0.128
5.148,-0.133
5.149,-0.134
5.150,-0.133
5.151,-0.131
5.152,-0.133
5.153,-0.134
5.154,-0.136
5.155,-0.137
5.156,-0.137
5.157,-0.137
5.158,-0.137
5.159,-0.137
5.160,-0.137
5.161,-0.137
5.162,-0.139
5.163,-0.141
5.164,-0.139
5.165,-0.141
5.166,-0.141
5.167,-0.141
5.168,-0.141
5.169,-0.141
5.170,-0.136
5.171,-0.131
5.172,-0.137
5.173,-0.144
5.174,-0.145
5.175,-0.144
5.176,-0.143
5.177,-0.141
5.178,-0.141
5.179,-0.141
5.180,-0.142
5.181,-0.141
5.182,-0.144
5.183,-0.141
5.184,-0.139
5.185,-0.141
5.186,-0.139
5.187,-0.141
5.188,-0.139
5.189,-0.141
5.190,-0.142
5.191,-0.144
5.192,-0.143
5.193,-0.141
5.194,-0.141
5.195,-0.141
5.196,-0.136
5.197,-0.131
5.198,-0.133
5.199,-0.134
5.200,-0.139
5.201,-0.150
5.202,-0.151
5.203,-0.153
5.204,-0.153
5.205,-0.153
5.206,-0.149
5.207,-0.147
5.208,-0.147
5.209,-0.147
5.210,-0.144
5.211,-0.144
5.212,-0.147
5.213,-0.147
5.214,-0.148
5.215,-0.147
5.216,-0.147
5.217,-0.141
5.218,-0.141
5.219,-0.141
5.220,-0.141
5.221,-0.141
5.222,-0.141
5.223,-0.141
5.224,-0.141
5.225,-0.141
5.226,-0.142
5.227,-0.141
5.228,-0.144
5.229,-0.144
5.230,-0.144
5.231,-0.144
5.232,-0.141
5.233,-0.141
5.234,-0.144
5.235,-0.144
5.236,-0.141
5.237,-0.144
5.238,-0.142
5.239,-0.144
5.240,-0.143
5.241,-0.141
5.242,-0.141
5.243,-0.141
5.244,-0.142
5.245,-0.144
5.246,-0.143
5.247,-0.137
5.248,-0.137
5.249,-0.137
5.250,-0.136
5.251,-0.137
5.252,-0.139
5.253,-0.141
5.254,-0.141
5.255,-0.141
5.256,-0.142
5.257,-0.141
5.258,-0.137
5.259,-0.134
5.260,-0.134
5.261,-0.134
5.262,-0.131
5.263,-0.131
5.264,-0.134
5.265,-0.134
5.266,-0.136
5.267,-0.137
5.268,-0.142
5.269,-0.144
5.270,-0.142
5.271,-0.144
5.272,-0.139
5.273,-0.137
5.274,-0.142
5.275,-0.141
5.276,-0.139
5.277,-0.141
5.278,-0.141
5.279,-0.134
5.280,-0.137
5.281,-0.137
5.282,-0.139
5.283,-0.141
5.284,-0.141
5.285,-0.141
5.286,-0.142
5.287,-0.141
5.288,-0.139
5.289,-0.137
5.290,-0.142
5.291,-0.144
5.292,-0.144
5.293,-0.144
5.294,-0.143
5.295,-0.141
5.296,-0.137
5.297,-0.131
5.298,-0.129
5.299,-0.125
5.300,-0.124
5.301,-0.113
5.302,-0.111
5.303,-0.106
5.304,-0.106
5.305,-0.103
5.306,-0.102
5.307,-0.094
5.308,-0.092
5.309,-0.088
5.310,-0.083
5.311,-0.075
5.312,-0.069
5.313,-0.069
5.314,-0.076
5.315,-0.081
5.316,-0.084
5.317,-0.081
5.318,-0.084
5.319,-0.088
5.320,-0.092
5.321,-0.094
5.322,-0.100
5.323,-0.103
5.324,-0.097
5.325,-0.088
5.326,-0.080
5.327,-0.072
5.328,-0.064
5.329,-0.056
5.330,-0.051
5.331,-0.047
5.332,-0.044
5.333,-0.038
5.334,-0.031
5.335,-0.031
5.336,-0.029
5.337,-0.031
5.338,-0.036
5.339,-0.041
5.340,-0.052
5.341,-0.053
5.342,-0.061
5.343,-0.059
5.344,-0.068
5.345,-0.069
5.346,-0.071
5.347,-0.069
5.348,-0.081
5.349,-0.088
5.350,-0.088
5.351,-0.088
5.352,-0.089
5.353,-0.091
5.354,-0.089
5.355,-0.084
5.356,-0.081
5.357,-0.078
5.358,-0.074
5.359,-0.069
5.360,-0.068
5.361,-0.069
5.362,-0.069
5.363,-0.078
5.364,-0.086
5.365,-0.094
5.366,-0.097
5.367,-0.103
5.368,-0.102
5.369,-0.103
5.370,-0.106
5.371,-0.109
5.372,-0.113
5.373,-0.119
5.374,-0.122
5.375,-0.125
5.376,-0.128
5.377,-0.134
5.378,-0.137
5.379,-0.141
5.380,-0.143
5.381,-0.144
5.382,-0.147
5.383,-0.147
5.384,-0.154
5.385,-0.159
5.386,-0.158
5.387,-0.159
5.388,-0.162
5.389,-0.159
5.390,-0.156
5.391,-0.153
5.392,-0.155
5.393,-0.153
5.394,-0.152
5.395,-0.150
5.396,-0.154
5.397,-0.156
5.398,-0.156
5.399,-0.156
5.400,-0.155
5.401,-0.156
5.402,-0.155
5.403,-0.153
5.404,-0.151
5.405,-0.153
5.406,-0.156
5.407,-0.159
5.408,-0.156
5.409,-0.159
5.410,-0.158
5.411,-0.156
5.412,-0.153
5.413,-0.153
5.414,-0.151
5.415,-0.156
5.416,-0.156
5.417,-0.156
5.418,-0.152
5.419,-0.147
5.420,-0.147
5.421,-0.147
5.422,-0.148
5.423,-0.150
5.424,-0.150
5.425,-0.150
5.426,-0.150
5.427,-0.150
5.428,-0.150
5.429,-0.150
5.430,-0.151
5.431,-0.156
5.432,-0.156
5.433,-0.156
5.434,-0.161
5.435,-0.169
5.436,-0.172
5.437,-0.178
5.438,-0.186
5.439,-0.197
5.440,-0.209
5.441,-0.225
5.442,-0.244
5.443,-0.259
5.444,-0.276
5.445,-0.294
5.446,-0.306
5.447,-0.322
5.448,-0.336
5.449,-0.347
5.450,-0.350
5.451,-0.359
5.452,-0.361
5.453,-0.359
5.454,-0.350
5.455,-0.338
5.456,-0.317
5.457,-0.294
5.458,-0.263
5.459,-0.225
5.460,-0.183
5.461,-0.131
5.462,-0.074
5.463,-0.016
5.464,0.037
5.465,0.094
5.466,0.176
5.467,0.266
5.468,0.364
5.469,0.462
5.470,0.582
5.471,0.703
5.472,0.841
5.473,0.984
5.474,1.134
5.475,1.284
5.476,1.436
5.477,1.587
5.478,1.723
5.479,1.853
5.480,1.984
5.481,2.109
5.482,2.183
5.483,2.225
5.484,2.175
5.485,2.091
5.486,1.947
5.487,1.787
5.488,1.626
5.489,1.466
5.490,1.325
5.491,1.191
5.492,1.072
5.493,0.959
5.494,0.862
5.495,0.772
5.496,0.675
5.497,0.578
5.498,0.453
5.499,0.319
5.500,0.216
5.501,0.119
5.502,0.054
5.503,-0.009
5.504,-0.061
5.505,-0.109
5.506,-0.148
5.507,-0.184
5.508,-0.199
5.509,-0.213
5.510,-0.209
5.511,-0.206
5.512,-0.197
5.513,-0.188
5.514,-0.178
5.515,-0.166
5.516,-0.153
5.517,-0.141
5.518,-0.133
5.519,-0.122
5.520,-0.114
5.521,-0.106
5.522,-0.101
5.523,-0.097
5.524,-0.093
5.525,-0.091
5.526,-0.089
5.527,-0.088
5.528,-0.089
5.529,-0.091
5.530,-0.093
5.531,-0.094
5.532,-0.094
5.533,-0.091
5.534,-0.088
5.535,-0.081
5.536,-0.081
5.537,-0.078
5.538,-0.079
5.539,-0.081
5.540,-0.081
5.541,-0.081
5.542,-0.077
5.543,-0.075
5.544,-0.075
5.545,-0.078
5.546,-0.079
5.547,-0.078
5.548,-0.075
5.549,-0.075
5.550,-0.078
5.551,-0.078
5.552,-0.077
5.553,-0.072
5.554,-0.073
5.555,-0.072
5.556,-0.071
5.557,-0.066
5.558,-0.066
5.559,-0.069
5.560,-0.068
5.561,-0.069
5.562,-0.069
5.563,-0.069
5.564,-0.068
5.565,-0.069
5.566,-0.066
5.567,-0.063
5.568,-0.066
5.569,-0.066
5.570,-0.063
5.571,-0.059
5.572,-0.056
5.573,-0.056
5.574,-0.056
5.575,-0.053
5.576,-0.053
5.577,-0.053
5.578,-0.054
5.579,-0.053
5.580,-0.050
5.581,-0.053
5.582,-0.051
5.583,-0.053
5.584,-0.046
5.585,-0.041
5.586,-0.041
5.587,-0.038
5.588,-0.039
5.589,-0.038
5.590,-0.038
5.591,-0.034
5.592,-0.030
5.593,-0.031
5.594,-0.034
5.595,-0.034
5.596,-0.032
5.597,-0.031
5.598,-0.028
5.599,-0.025
5.600,-0.021
5.601,-0.019
5.602,-0.017
5.603,-0.019
5.604,-0.019
5.605,-0.016
5.606,-0.017
5.607,-0.016
5.608,-0.017
5.609,-0.016
5.610,-0.013
5.611,-0.009
5.612,-0.006
5.613,0.000
5.614,0.000
5.615,0.000
5.616,0.000
5.617,0.000
5.618,0.004
5.619,0.009
5.620,0.012
5.621,0.016
5.622,0.017
5.623,0.016
5.624,0.020
5.625,0.025
5.626,0.024
5.627,0.028
5.628,0.027
5.629,0.028
5.630,0.027
5.631,0.028
5.632,0.036
5.633,0.044
5.634,0.046
5.635,0.047
5.636,0.049
5.637,0.050
5.638,0.046
5.639,0.047
5.640,0.054
5.641,0.062
5.642,0.066
5.643,0.072
5.644,0.074
5.645,0.075
5.646,0.078
5.647,0.081
5.648,0.089
5.649,0.091
5.650,0.091
5.651,0.094
5.652,0.099
5.653,0.100
5.654,0.100
5.655,0.103
5.656,0.109
5.657,0.119
5.658,0.126
5.659,0.137
5.660,0.137
5.661,0.141
5.662,0.144
5.663,0.150
5.664,0.157
5.665,0.162
5.666,0.166
5.667,0.169
5.668,0.169
5.669,0.172
5.670,0.178
5.671,0.184
5.672,0.189
5.673,0.191
5.674,0.196
5.675,0.203
5.676,0.212
5.677,0.222
5.678,0.231
5.679,0.247
5.680,0.252
5.681,0.256
5.682,0.262
5.683,0.266
5.684,0.271
5.685,0.275
5.686,0.286
5.687,0.297
5.688,0.302
5.689,0.306
5.690,0.312
5.691,0.312
5.692,0.317
5.693,0.322
5.694,0.328
5.695,0.334
5.696,0.344
5.697,0.353
5.698,0.358
5.699,0.363
5.700,0.367
5.701,0.375
5.702,0.384
5.703,0.391
5.704,0.398
5.705,0.406
5.706,0.409
5.707,0.409
5.708,0.411
5.709,0.409
5.710,0.412
5.711,0.425
5.712,0.432
5.713,0.437
5.714,0.441
5.715,0.441
5.716,0.442
5.717,0.444
5.718,0.448
5.719,0.453
5.720,0.452
5.721,0.453
5.722,0.456
5.723,0.459
5.724,0.459
5.725,0.459
5.726,0.461
5.727,0.459
5.728,0.455
5.729,0.450
5.730,0.447
5.731,0.441
5.732,0.433
5.733,0.425
5.734,0.416
5.735,0.409
5.736,0.401
5.737,0.394
5.738,0.380
5.739,0.369
5.740,0.361
5.741,0.350
5.742,0.336
5.743,0.325
5.744,0.309
5.745,0.294
5.746,0.279
5.747,0.269
5.748,0.253
5.749,0.241
5.750,0.229
5.751,0.216
5.752,0.204
5.753,0.197
5.754,0.175
5.755,0.156
5.756,0.142
5.757,0.131
5.758,0.123
5.759,0.119
5.760,0.111
5.761,0.103
5.762,0.092
5.763,0.081
5.764,0.069
5.765,0.056
5.766,0.047
5.767,0.034
5.768,0.027
5.769,0.016
5.770,0.008
5.771,-0.003
5.772,-0.011
5.773,-0.019
5.774,-0.022
5.775,-0.022
5.776,-0.027
5.777,-0.028
5.778,-0.028
5.779,-0.028
5.780,-0.036
5.781,-0.041
5.782,-0.048
5.783,-0.056
5.784,-0.063
5.785,-0.069
5.786,-0.071
5.787,-0.075
5.788,-0.075
5.789,-0.078
5.790,-0.081
5.791,-0.081
5.792,-0.084
5.793,-0.081
5.794,-0.089
5.795,-0.094
5.796,-0.094
5.797,-0.100
5.798,-0.099
5.799,-0.100
5.800,-0.101
5.801,-0.103
5.802,-0.103
5.803,-0.103
5.804,-0.106
5.805,-0.106
5.806,-0.111
5.807,-0.116
5.808,-0.114
5.809,-0.113
5.810,-0.108
5.811,-0.106
5.812,-0.109
5.813,-0.106
5.814,-0.111
5.815,-0.116
5.816,-0.118
5.817,-0.119
5.818,-0.119
5.819,-0.116
5.820,-0.114
5.821,-0.116
5.822,-0.114
5.823,-0.116
5.824,-0.113
5.825,-0.116
5.826,-0.116
5.827,-0.116
5.828,-0.114
5.829,-0.113
5.830,-0.111
5.831,-0.116
5.832,-0.113
5.833,-0.116
5.834,-0.116
5.835,-0.116
5.836,-0.113
5.837,-0.116
5.838,-0.114
5.839,-0.113
5.840,-0.117
5.841,-0.119
5.842,-0.119
5.843,-0.116
5.844,-0.118
5.845,-0.116
5.846,-0.114
5.847,-0.116
5.848,-0.114
5.849,-0.113
5.850,-0.116
5.851,-0.116
5.852,-0.116
5.853,-0.116
5.854,-0.116
5.855,-0.116
5.856,-0.116
5.857,-0.116
5.858,-0.116
5.859,-0.116
5.860,-0.114
5.861,-0.113
5.862,-0.116
5.863,-0.119
5.864,-0.119
5.865,-0.119
5.866,-0.116
5.867,-0.116
5.868,-0.114
5.869,-0.109
5.870,-0.109
5.871,-0.109
5.872,-0.111
5.873,-0.113
5.874,-0.113
5.875,-0.109
5.876,-0.111
5.877,-0.113
5.878,-0.113
5.879,-0.113
5.880,-0.113
5.881,-0.113
5.882,-0.113
5.883,-0.113
5.884,-0.113
5.885,-0.113
5.886,-0.111
5.887,-0.109
5.888,-0.111
5.889,-0.113
5.890,-0.113
5.891,-0.113
5.892,-0.111
5.893,-0.113
5.894,-0.111
5.895,-0.113
5.896,-0.113
5.897,-0.113
5.898,-0.114
5.899,-0.116
5.900,-0.113
5.901,-0.116
5.902,-0.114
5.903,-0.116
5.904,-0.113
5.905,-0.113
5.906,-0.113
5.907,-0.116
5.908,-0.113
5.909,-0.113
5.910,-0.113
5.911,-0.113
5.912,-0.114
5.913,-0.113
5.914,-0.111
5.915,-0.109
5.916,-0.113
5.917,-0.113
5.918,-0.109
5.919,-0.109
5.920,-0.111
5.921,-0.113
5.922,-0.109
5.923,-0.106
5.924,-0.109
5.925,-0.113
5.926,-0.117
5.927,-0.119
5.928,-0.116
5.929,-0.119
5.930,-0.116
5.931,-0.109
5.932,-0.109
5.933,-0.113
5.934,-0.109
5.935,-0.109
5.936,-0.116
5.937,-0.116
5.938,-0.116
5.939,-0.116
5.940,-0.118
5.941,-0.119
5.942,-0.114
5.943,-0.109
5.944,-0.111
5.945,-0.113
5.946,-0.113
5.947,-0.113
5.948,-0.114
5.949,-0.116
5.950,-0.116
5.951,-0.116
5.952,-0.114
5.953,-0.113
5.954,-0.111
5.955,-0.109
5.956,-0.114
5.957,-0.116
5.958,-0.114
5.959,-0.119
5.960,-0.119
5.961,-0.119
5.962,-0.119
5.963,-0.122
5.964,-0.123
5.965,-0.122
5.966,-0.122
5.967,-0.122
5.968,-0.121
5.969,-0.119
5.970,-0.119
5.971,-0.119
5.972,-0.120
5.973,-0.122
5.974,-0.122
5.975,-0.122
5.976,-0.123
5.977,-0.122
5.978,-0.121
5.979,-0.122
5.980,-0.126
5.981,-0.125
5.982,-0.124
5.983,-0.125
5.984,-0.124
5.985,-0.122
5.986,-0.124
5.987,-0.125
5.988,-0.126
5.989,-0.125
5.990,-0.125
5.991,-0.122
5.992,-0.125
5.993,-0.125
5.994,-0.127
5.995,-0.125
5.996,-0.122
5.997,-0.119
5.998,-0.122
5.999,-0.122
6.000,-0.123
6.001,-0.125
6.002,-0.124
6.003,-0.122
6.004,-0.125
6.005,-0.125
6.006,-0.125
6.007,-0.125
6.008,-0.126
6.009,-0.125
6.010,-0.124
6.011,-0.122
6.012,-0.121
6.013,-0.122
6.014,-0.125
6.015,-0.125
6.016,-0.124
6.017,-0.125
6.018,-0.128
6.019,-0.128
6.020,-0.124
6.021,-0.122
6.022,-0.122
6.023,-0.122
6.024,-0.123
6.025,-0.125
6.026,-0.126
6.027,-0.128
6.028,-0.127
6.029,-0.128
6.030,-0.129
6.031,-0.128
6.032,-0.127
6.033,-0.128
6.034,-0.129
6.035,-0.128
6.036,-0.125
6.037,-0.125
6.038,-0.126
6.039,-0.125
6.040,-0.125
6.041,-0.125
6.042,-0.128
6.043,-0.128
6.044,-0.128
6.045,-0.128
6.046,-0.128
6.047,-0.128
6.048,-0.128
6.049,-0.128
6.050,-0.131
6.051,-0.134
6.052,-0.131
6.053,-0.128
6.054,-0.127
6.055,-0.125
6.056,-0.125
6.057,-0.125
6.058,-0.125
6.059,-0.128
6.060,-0.128
6.061,-0.128
6.062,-0.129
6.063,-0.131
6.064,-0.131
6.065,-0.131
6.066,-0.131
6.067,-0.131
6.068,-0.130
6.069,-0.125
6.070,-0.128
6.071,-0.131
6.072,-0.134
6.073,-0.137
6.074,-0.136
6.075,-0.131
6.076,-0.131
6.077,-0.125
6.078,-0.124
6.079,-0.125
6.080,-0.123
6.081,-0.125
6.082,-0.128
6.083,-0.134
6.084,-0.136
6.085,-0.137
6.086,-0.134
6.087,-0.131
6.088,-0.127
6.089,-0.122
6.090,-0.122
6.091,-0.122
6.092,-0.123
6.093,-0.125
6.094,-0.122
6.095,-0.125
6.096,-0.125
6.097,-0.125
6.098,-0.129
6.099,-0.134
6.100,-0.131
6.101,-0.131
6.102,-0.133
6.103,-0.134
6.104,-0.133
6.105,-0.134
6.106,-0.137
6.107,-0.137
6.108,-0.136
6.109,-0.131
6.110,-0.136
6.111,-0.134
6.112,-0.133
6.113,-0.131
6.114,-0.131
6.115,-0.131
6.116,-0.131
6.117,-0.131
6.118,-0.133
6.119,-0.134
6.120,-0.134
6.121,-0.131
6.122,-0.133
6.123,-0.131
6.124,-0.133
6.125,-0.134
6.126,-0.131
6.127,-0.131
6.128,-0.136
6.129,-0.137
6.130,-0.134
6.131,-0.137
6.132,-0.136
6.133,-0.137
6.134,-0.137
6.135,-0.137
6.136,-0.136
6.137,-0.134
6.138,-0.134
6.139,-0.134
6.140,-0.137
6.141,-0.137
6.142,-0.136
6.143,-0.134
6.144,-0.133
6.145,-0.134
6.146,-0.136
6.147,-0.137
6.148,-0.137
6.149,-0.137
6.150,-0.139
6.151,-0.137
6.152,-0.137
6.153,-0.137
6.154,-0.137
6.155,-0.137
6.156,-0.134
6.157,-0.134
6.158,-0.137
6.159,-0.137
6.160,-0.134
6.161,-0.131
6.162,-0.134
6.163,-0.134
6.164,-0.134
6.165,-0.137
6.166,-0.137
6.167,-0.141
6.168,-0.143
6.169,-0.137
6.170,-0.131
6.171,-0.128
6.172,-0.133
6.173,-0.131
6.174,-0.137
6.175,-0.141
6.176,-0.141
6.177,-0.141
6.178,-0.141
6.179,-0.141
6.180,-0.142
6.181,-0.141
6.182,-0.139
6.183,-0.137
6.184,-0.141
6.185,-0.141
6.186,-0.137
6.187,-0.134
6.188,-0.134
6.189,-0.134
6.190,-0.136
6.191,-0.134
6.192,-0.131
6.193,-0.125
6.194,-0.124
6.195,-0.113
6.196,-0.111
6.197,-0.106
6.198,-0.106
6.199,-0.103
6.200,-0.102
6.201,-0.094
6.202,-0.092
6.203,-0.088
6.204,-0.088
6.205,-0.084
6.206,-0.078
6.207,-0.078
6.208,-0.081
6.209,-0.081
6.210,-0.088
6.211,-0.088
6.212,-0.088
6.213,-0.088
6.214,-0.092
6.215,-0.094
6.216,-0.097
6.217,-0.097
6.218,-0.095
6.219,-0.091
6.220,-0.088
6.221,-0.084
6.222,-0.075
6.223,-0.066
6.224,-0.056
6.225,-0.047
6.226,-0.043
6.227,-0.034
6.228,-0.028
6.229,-0.028
6.230,-0.026
6.231,-0.028
6.232,-0.027
6.233,-0.025
6.234,-0.036
6.235,-0.038
6.236,-0.050
6.237,-0.053
6.238,-0.063
6.239,-0.066
6.240,-0.072
6.241,-0.075
6.242,-0.083
6.243,-0.084
6.244,-0.086
6.245,-0.088
6.246,-0.089
6.247,-0.091
6.248,-0.088
6.249,-0.081
6.250,-0.081
6.251,-0.081
6.252,-0.078
6.253,-0.075
6.254,-0.072
6.255,-0.072
6.256,-0.072
6.257,-0.081
6.258,-0.088
6.259,-0.094
6.260,-0.095
6.261,-0.100
6.262,-0.100
6.263,-0.103
6.264,-0.105
6.265,-0.106
6.266,-0.113
6.267,-0.122
6.268,-0.125
6.269,-0.128
6.270,-0.128
6.271,-0.131
6.272,-0.134
6.273,-0.137
6.274,-0.141
6.275,-0.144
6.276,-0.147
6.277,-0.147
6.278,-0.150
6.279,-0.150
6.280,-0.151
6.281,-0.156
6.282,-0.156
6.283,-0.150
6.284,-0.151
6.285,-0.153
6.286,-0.156
6.287,-0.156
6.288,-0.156
6.289,-0.156
6.290,-0.159
6.291,-0.159
6.292,-0.159
6.293,-0.159
6.294,-0.158
6.295,-0.159
6.296,-0.161
6.297,-0.162
6.298,-0.161
6.299,-0.162
6.300,-0.162
6.301,-0.162
6.302,-0.159
6.303,-0.162
6.304,-0.162
6.305,-0.162
6.306,-0.158
6.307,-0.156
6.308,-0.153
6.309,-0.156
6.310,-0.158
6.311,-0.159
6.312,-0.159
6.313,-0.159
6.314,-0.159
6.315,-0.159
6.316,-0.161
6.317,-0.162
6.318,-0.164
6.319,-0.166
6.320,-0.162
6.321,-0.159
6.322,-0.156
6.323,-0.153
6.324,-0.153
6.325,-0.156
6.326,-0.156
6.327,-0.156
6.328,-0.161
6.329,-0.169
6.330,-0.171
6.331,-0.175
6.332,-0.183
6.333,-0.194
6.334,-0.203
6.335,-0.216
6.336,-0.238
6.337,-0.256
6.338,-0.272
6.339,-0.288
6.340,-0.300
6.341,-0.316
6.342,-0.327
6.343,-0.334
6.344,-0.341
6.345,-0.353
6.346,-0.359
6.347,-0.363
6.348,-0.354
6.349,-0.344
6.350,-0.325
6.351,-0.303
6.352,-0.269
6.353,-0.228
6.354,-0.191
6.355,-0.144
6.356,-0.088
6.357,-0.031
6.358,0.019
6.359,0.072
6.360,0.147
6.361,0.228
6.362,0.324
6.363,0.419
6.364,0.534
6.365,0.650
6.366,0.783
6.367,0.922
6.368,1.075
6.369,1.228
6.370,1.382
6.371,1.537
6.372,1.676
6.373,1.809
6.374,1.947
6.375,2.078
6.376,2.162
6.377,2.216
6.378,2.179
6.379,2.109
6.380,1.964
6.381,1.803
6.382,1.642
6.383,1.481
6.384,1.341
6.385,1.206
6.386,1.084
6.387,0.969
6.388,0.877
6.389,0.791
6.390,0.697
6.391,0.603
6.392,0.478
6.393,0.344
6.394,0.239
6.395,0.141
6.396,0.073
6.397,0.006
6.398,-0.045
6.399,-0.094
6.400,-0.133
6.401,-0.169
6.402,-0.191
6.403,-0.213
6.404,-0.214
6.405,-0.216
6.406,-0.205
6.407,-0.194
6.408,-0.180
6.409,-0.162
6.410,-0.150
6.411,-0.137
6.412,-0.131
6.413,-0.122
6.414,-0.119
6.415,-0.116
6.416,-0.113
6.417,-0.109
6.418,-0.102
6.419,-0.097
6.420,-0.095
6.421,-0.094
6.422,-0.094
6.423,-0.094
6.424,-0.097
6.425,-0.100
6.426,-0.099
6.427,-0.094
6.428,-0.092
6.429,-0.088
6.430,-0.083
6.431,-0.075
6.432,-0.073
6.433,-0.072
6.434,-0.073
6.435,-0.075
6.436,-0.072
6.437,-0.072
6.438,-0.072
6.439,-0.075
6.440,-0.078
6.441,-0.078
6.442,-0.077
6.443,-0.078
6.444,-0.080
6.445,-0.078
6.446,-0.077
6.447,-0.072
6.448,-0.071
6.449,-0.066
6.450,-0.067
6.451,-0.066
6.452,-0.064
6.453,-0.066
6.454,-0.066
6.455,-0.069
6.456,-0.070
6.457,-0.072
6.458,-0.072
6.459,-0.075
6.460,-0.071
6.461,-0.066
6.462,-0.061
6.463,-0.053
6.464,-0.053
6.465,-0.053
6.466,-0.051
6.467,-0.053
6.468,-0.054
6.469,-0.053
6.470,-0.053
6.471,-0.053
6.472,-0.053
6.473,-0.050
6.474,-0.048
6.475,-0.053
6.476,-0.051
6.477,-0.053
6.478,-0.050
6.479,-0.050
6.480,-0.046
6.481,-0.038
6.482,-0.039
6.483,-0.038
6.484,-0.038
6.485,-0.034
6.486,-0.028
6.487,-0.028
6.488,-0.031
6.489,-0.031
6.490,-0.031
6.491,-0.031
6.492,-0.031
6.493,-0.031
6.494,-0.024
6.495,-0.019
6.496,-0.016
6.497,-0.016
6.498,-0.019
6.499,-0.019
6.500,-0.018
6.501,-0.013
6.502,-0.014
6.503,-0.013
6.504,-0.009
6.505,-0.006
6.506,-0.006
6.507,-0.003
6.508,-0.002
6.509,0.000
6.510,0.002
6.511,0.003
6.512,0.003
6.513,0.003
6.514,0.004
6.515,0.006
6.516,0.014
6.517,0.019
6.518,0.021
6.519,0.022
6.520,0.017
6.521,0.019
6.522,0.022
6.523,0.028
6.524,0.028
6.525,0.031
6.526,0.034
6.527,0.037
6.528,0.041
6.529,0.044
6.530,0.051
6.531,0.059
6.532,0.055
6.533,0.056
6.534,0.056
6.535,0.056
6.536,0.056
6.537,0.059
6.538,0.066
6.539,0.072
6.540,0.076
6.541,0.081
6.542,0.084
6.543,0.081
6.544,0.084
6.545,0.091
6.546,0.097
6.547,0.100
6.548,0.100
6.549,0.103
6.550,0.106
6.551,0.113
6.552,0.114
6.553,0.119
6.554,0.125
6.555,0.134
6.556,0.137
6.557,0.144
6.558,0.151
6.559,0.156
6.560,0.162
6.561,0.169
6.562,0.166
6.563,0.166
6.564,0.172
6.565,0.178
6.566,0.186
6.567,0.191
6.568,0.196
6.569,0.203
6.570,0.209
6.571,0.216
6.572,0.218
6.573,0.225
6.574,0.231
6.575,0.237
6.576,0.244
6.577,0.247
6.578,0.254
6.579,0.262
6.580,0.271
6.581,0.278
6.582,0.286
6.583,0.294
6.584,0.303
6.585,0.306
6.586,0.314
6.587,0.322
6.588,0.329
6.589,0.337
6.590,0.339
6.591,0.341
6.592,0.347
6.593,0.353
6.594,0.356
6.595,0.363
6.596,0.373
6.597,0.381
6.598,0.384
6.599,0.388
6.600,0.392
6.601,0.394
6.602,0.400
6.603,0.403
6.604,0.403
6.605,0.412
6.606,0.419
6.607,0.422
6.608,0.428
6.609,0.431
6.610,0.437
6.611,0.444
6.612,0.447
6.613,0.450
6.614,0.449
6.615,0.450
6.616,0.450
6.617,0.450
6.618,0.451
6.619,0.453
6.620,0.452
6.621,0.447
6.622,0.445
6.623,0.444
6.624,0.437
6.625,0.428
6.626,0.425
6.627,0.422
6.628,0.411
6.629,0.403
6.630,0.392
6.631,0.381
6.632,0.370
6.633,0.363
6.634,0.359
6.635,0.353
6.636,0.333
6.637,0.316
6.638,0.303
6.639,0.291
6.640,0.275
6.641,0.262
6.642,0.250
6.643,0.241
6.644,0.229
6.645,0.216
6.646,0.200
6.647,0.187
6.648,0.172
6.649,0.159
6.650,0.147
6.651,0.137
6.652,0.125
6.653,0.116
6.654,0.109
6.655,0.103
6.656,0.094
6.657,0.084
6.658,0.071
6.659,0.056
6.660,0.047
6.661,0.034
6.662,0.029
6.663,0.022
6.664,0.017
6.665,0.009
6.666,0.004
6.667,0.000
6.668,-0.011
6.669,-0.019
6.670,-0.028
6.671,-0.034
6.672,-0.041
6.673,-0.047
6.674,-0.050
6.675,-0.050
6.676,-0.050
6.677,-0.050
6.678,-0.056
6.679,-0.063
6.680,-0.066
6.681,-0.072
6.682,-0.075
6.683,-0.081
6.684,-0.086
6.685,-0.088
6.686,-0.091
6.687,-0.088
6.688,-0.094
6.689,-0.097
6.690,-0.096
6.691,-0.100
6.692,-0.100
6.693,-0.103
6.694,-0.104
6.695,-0.106
6.696,-0.105
6.697,-0.103
6.698,-0.105
6.699,-0.103
6.700,-0.106
6.701,-0.109
6.702,-0.113
6.703,-0.116
6.704,-0.111
6.705,-0.109
6.706,-0.114
6.707,-0.113
6.708,-0.113
6.709,-0.113
6.710,-0.114
6.711,-0.116
6.712,-0.119
6.713,-0.119
6.714,-0.119
6.715,-0.122
6.716,-0.120
6.717,-0.122
6.718,-0.118
6.719,-0.119
6.720,-0.118
6.721,-0.116
6.722,-0.119
6.723,-0.122
6.724,-0.119
6.725,-0.122
6.726,-0.119
6.727,-0.122
6.728,-0.121
6.729,-0.119
6.730,-0.116
6.731,-0.119
6.732,-0.118
6.733,-0.116
6.734,-0.118
6.735,-0.116
6.736,-0.116
6.737,-0.113
6.738,-0.116
6.739,-0.116
6.740,-0.114
6.741,-0.116
6.742,-0.114
6.743,-0.113
6.744,-0.120
6.745,-0.125
6.746,-0.125
6.747,-0.125
6.748,-0.125
6.749,-0.125
6.750,-0.122
6.751,-0.119
6.752,-0.114
6.753,-0.109
6.754,-0.111
6.755,-0.113
6.756,-0.117
6.757,-0.122
6.758,-0.121
6.759,-0.119
6.760,-0.113
6.761,-0.109
6.762,-0.111
6.763,-0.109
6.764,-0.109
6.765,-0.109
6.766,-0.111
6.767,-0.113
6.768,-0.116
6.769,-0.116
6.770,-0.118
6.771,-0.119
6.772,-0.119
6.773,-0.119
6.774,-0.118
6.775,-0.116
6.776,-0.113
6.777,-0.109
6.778,-0.111
6.779,-0.113
6.780,-0.114
6.781,-0.116
6.782,-0.119
6.783,-0.122
6.784,-0.122
6.785,-0.122
6.786,-0.119
6.787,-0.119
6.788,-0.111
6.789,-0.106
6.790,-0.106
6.791,-0.106
6.792,-0.111
6.793,-0.116
6.794,-0.119
6.795,-0.128
6.796,-0.121
6.797,-0.116
6.798,-0.117
6.799,-0.122
6.800,-0.119
6.801,-0.119
6.802,-0.114
6.803,-0.113
6.804,-0.114
6.805,-0.116
6.806,-0.119
6.807,-0.119
6.808,-0.116
6.809,-0.113
6.810,-0.116
6.811,-0.116
6.812,-0.116
6.813,-0.119
6.814,-0.116
6.815,-0.113
6.816,-0.114
6.817,-0.116
6.818,-0.116
6.819,-0.116
6.820,-0.118
6.821,-0.116
6.822,-0.113
6.823,-0.116
6.824,-0.119
6.825,-0.119
6.826,-0.118
6.827,-0.119
6.828,-0.116
6.829,-0.116
6.830,-0.120
6.831,-0.119
6.832,-0.118
6.833,-0.116
6.834,-0.118
6.835,-0.119
6.836,-0.119
6.837,-0.119
6.838,-0.119
6.839,-0.119
6.840,-0.118
6.841,-0.116
6.842,-0.116
6.843,-0.116
6.844,-0.116
6.845,-0.116
6.846,-0.116
6.847,-0.116
6.848,-0.116
6.849,-0.116
6.850,-0.117
6.851,-0.116
6.852,-0.113
6.853,-0.116
6.854,-0.117
6.855,-0.119
6.856,-0.119
6.857,-0.122
6.858,-0.122
6.859,-0.119
6.860,-0.118
6.861,-0.116
6.862,-0.117
6.863,-0.119
6.864,-0.119
6.865,-0.119
6.866,-0.119
6.867,-0.119
6.868,-0.119
6.869,-0.119
6.870,-0.118
6.871,-0.113
6.872,-0.114
6.873,-0.119
6.874,-0.126
6.875,-0.128
6.876,-0.127
6.877,-0.128
6.878,-0.128
6.879,-0.128
6.880,-0.130
6.881,-0.131
6.882,-0.133
6.883,-0.131
6.884,-0.133
6.885,-0.131
6.886,-0.133
6.887,-0.131
6.888,-0.134
6.889,-0.134
6.890,-0.130
6.891,-0.125
6.892,-0.127
6.893,-0.125
6.894,-0.125
6.895,-0.125
6.896,-0.125
6.897,-0.125
6.898,-0.127
6.899,-0.125
6.900,-0.126
6.901,-0.128
6.902,-0.129
6.903,-0.128
6.904,-0.127
6.905,-0.125
6.906,-0.124
6.907,-0.125
6.908,-0.128
6.909,-0.128
6.910,-0.125
6.911,-0.125
6.912,-0.128
6.913,-0.128
6.914,-0.129
6.915,-0.134
6.916,-0.136
6.917,-0.137
6.918,-0.137
6.919,-0.137
6.920,-0.133
6.921,-0.128
6.922,-0.125
6.923,-0.125
6.924,-0.126
6.925,-0.125
6.926,-0.124
6.927,-0.125
6.928,-0.126
6.929,-0.125
6.930,-0.124
6.931,-0.125
6.932,-0.128
6.933,-0.128
6.934,-0.127
6.935,-0.125
6.936,-0.129
6.937,-0.131
6.938,-0.133
6.939,-0.134
6.940,-0.136
6.941,-0.137
6.942,-0.136
6.943,-0.134
6.944,-0.134
6.945,-0.134
6.946,-0.136
6.947,-0.137
6.948,-0.136
6.949,-0.134
6.950,-0.136
6.951,-0.137
6.952,-0.137
6.953,-0.141
6.954,-0.141
6.955,-0.141
6.956,-0.141
6.957,-0.141
6.958,-0.141
6.959,-0.141
6.960,-0.141
6.961,-0.141
6.962,-0.141
6.963,-0.137
6.964,-0.139
6.965,-0.141
6.966,-0.143
6.967,-0.144
6.968,-0.144
6.969,-0.141
6.970,-0.144
6.971,-0.141
6.972,-0.139
6.973,-0.141
6.974,-0.139
6.975,-0.141
6.976,-0.139
6.977,-0.141
6.978,-0.139
6.979,-0.137
6.980,-0.137
6.981,-0.137
6.982,-0.139
6.983,-0.141
6.984,-0.141
6.985,-0.141
6.986,-0.142
6.987,-0.144
6.988,-0.139
6.989,-0.141
6.990,-0.142
6.991,-0.144
6.992,-0.144
6.993,-0.144
6.994,-0.144
6.995,-0.147
6.996,-0.147
6.997,-0.147
6.998,-0.144
6.999,-0.144
7.000,-0.144
7.001,-0.141
7.002,-0.142
7.003,-0.141
7.004,-0.144
7.005,-0.141
7.006,-0.141
7.007,-0.141
7.008,-0.142
7.009,-0.144
7.010,-0.144
7.011,-0.144
7.012,-0.144
7.013,-0.144
7.014,-0.143
7.015,-0.137
7.016,-0.141
7.017,-0.141
7.018,-0.139
7.019,-0.141
7.020,-0.141
7.021,-0.141
7.022,-0.142
7.023,-0.144
7.024,-0.144
7.025,-0.141
7.026,-0.141
7.027,-0.141
7.028,-0.139
7.029,-0.137
7.030,-0.134
7.031,-0.134
7.032,-0.139
7.033,-0.141
7.034,-0.141
7.035,-0.141
7.036,-0.143
7.037,-0.141
7.038,-0.134
7.039,-0.131
7.040,-0.131
7.041,-0.134
7.042,-0.139
7.043,-0.137
7.044,-0.134
7.045,-0.134
7.046,-0.139
7.047,-0.137
7.048,-0.142
7.049,-0.144
7.050,-0.145
7.051,-0.147
7.052,-0.146
7.053,-0.144
7.054,-0.145
7.055,-0.144
7.056,-0.139
7.057,-0.134
7.058,-0.137
7.059,-0.137
7.060,-0.134
7.061,-0.131
7.062,-0.130
7.063,-0.128
7.064,-0.131
7.065,-0.131
7.066,-0.131
7.067,-0.128
7.068,-0.127
7.069,-0.116
7.070,-0.113
7.071,-0.106
7.072,-0.106
7.073,-0.103
7.074,-0.100
7.075,-0.091
7.076,-0.091
7.077,-0.088
7.078,-0.088
7.079,-0.084
7.080,-0.078
7.081,-0.078
7.082,-0.081
7.083,-0.081
7.084,-0.088
7.085,-0.088
7.086,-0.088
7.087,-0.088
7.088,-0.091
7.089,-0.091
7.090,-0.094
7.091,-0.094
7.092,-0.089
7.093,-0.081
7.094,-0.075
7.095,-0.069
7.096,-0.058
7.097,-0.047
7.098,-0.041
7.099,-0.034
7.100,-0.036
7.101,-0.034
7.102,-0.027
7.103,-0.025
7.104,-0.021
7.105,-0.019
7.106,-0.025
7.107,-0.031
7.108,-0.039
7.109,-0.038
7.110,-0.051
7.111,-0.056
7.112,-0.067
7.113,-0.072
7.114,-0.078
7.115,-0.081
7.116,-0.086
7.117,-0.084
7.118,-0.084
7.119,-0.084
7.120,-0.084
7.121,-0.084
7.122,-0.080
7.123,-0.072
7.124,-0.072
7.125,-0.072
7.126,-0.072
7.127,-0.072
7.128,-0.073
7.129,-0.078
7.130,-0.077
7.131,-0.084
7.132,-0.088
7.133,-0.091
7.134,-0.089
7.135,-0.091
7.136,-0.091
7.137,-0.094
7.138,-0.100
7.139,-0.106
7.140,-0.113
7.141,-0.122
7.142,-0.124
7.143,-0.125
7.144,-0.125
7.145,-0.128
7.146,-0.129
7.147,-0.131
7.148,-0.136
7.149,-0.141
7.150,-0.144
7.151,-0.144
7.152,-0.148
7.153,-0.150
7.154,-0.147
7.155,-0.147
7.156,-0.150
7.157,-0.147
7.158,-0.146
7.159,-0.144
7.160,-0.147
7.161,-0.147
7.162,-0.147
7.163,-0.147
7.164,-0.149
7.165,-0.147
7.166,-0.147
7.167,-0.147
7.168,-0.148
7.169,-0.153
7.170,-0.154
7.171,-0.156
7.172,-0.153
7.173,-0.153
7.174,-0.152
7.175,-0.150
7.176,-0.148
7.177,-0.153
7.178,-0.154
7.179,-0.156
7.180,-0.155
7.181,-0.156
7.182,-0.153
7.183,-0.156
7.184,-0.156
7.185,-0.156
7.186,-0.156
7.187,-0.156
7.188,-0.158
7.189,-0.159
7.190,-0.159
7.191,-0.159
7.192,-0.158
7.193,-0.156
7.194,-0.156
7.195,-0.156
7.196,-0.156
7.197,-0.156
7.198,-0.156
7.199,-0.159
7.200,-0.159
7.201,-0.159
7.202,-0.159
7.203,-0.162
7.204,-0.166
7.205,-0.172
7.206,-0.184
7.207,-0.200
7.208,-0.213
7.209,-0.228
7.210,-0.242
7.211,-0.253
7.212,-0.270
7.213,-0.288
7.214,-0.299
7.215,-0.313
7.216,-0.327
7.217,-0.338
7.218,-0.341
7.219,-0.350
7.220,-0.349
7.221,-0.344
7.222,-0.334
7.223,-0.322
7.224,-0.293
7.225,-0.259
7.226,-0.221
7.227,-0.175
7.228,-0.127
7.229,-0.069
7.230,-0.017
7.231,0.034
7.232,0.091
7.233,0.150
7.234,0.226
7.235,0.309
7.236,0.403
7.237,0.497
7.238,0.606
7.239,0.716
7.240,0.842
7.241,0.975
7.242,1.132
7.243,1.291
7.244,1.427
7.245,1.562
7.246,1.683
7.247,1.797
7.248,1.906
7.249,2.009
7.250,2.055
7.251,2.069
7.252,1.986
7.253,1.869
7.254,1.700
7.255,1.516
7.256,1.375
7.257,1.234
7.258,1.122
7.259,1.016
7.260,0.922
7.261,0.834
7.262,0.754
7.263,0.681
7.264,0.572
7.265,0.462
7.266,0.366
7.267,0.259
7.268,0.184
7.269,0.116
7.270,0.064
7.271,0.012
7.272,-0.031
7.273,-0.072
7.274,-0.113
7.275,-0.150
7.276,-0.176
7.277,-0.203
7.278,-0.217
7.279,-0.231
7.280,-0.225
7.281,-0.219
7.282,-0.213
7.283,-0.203
7.284,-0.189
7.285,-0.175
7.286,-0.168
7.287,-0.156
7.288,-0.147
7.289,-0.137
7.290,-0.133
7.291,-0.128
7.292,-0.125
7.293,-0.125
7.294,-0.122
7.295,-0.119
7.296,-0.114
7.297,-0.109
7.298,-0.109
7.299,-0.109
7.300,-0.111
7.301,-0.109
7.302,-0.106
7.303,-0.100
7.304,-0.098
7.305,-0.094
7.306,-0.089
7.307,-0.084
7.308,-0.081
7.309,-0.078
7.310,-0.076
7.311,-0.078
7.312,-0.077
7.313,-0.078
7.314,-0.078
7.315,-0.075
7.316,-0.072
7.317,-0.072
7.318,-0.076
7.319,-0.078
7.320,-0.077
7.321,-0.072
7.322,-0.073
7.323,-0.072
7.324,-0.073
7.325,-0.072
7.326,-0.071
7.327,-0.072
7.328,-0.066
7.329,-0.063
7.330,-0.063
7.331,-0.063
7.332,-0.063
7.333,-0.066
7.334,-0.066
7.335,-0.066
7.336,-0.067
7.337,-0.066
7.338,-0.063
7.339,-0.059
7.340,-0.057
7.341,-0.059
7.342,-0.058
7.343,-0.053
7.344,-0.052
7.345,-0.050
7.346,-0.051
7.347,-0.050
7.348,-0.044
7.349,-0.044
7.350,-0.041
7.351,-0.041
7.352,-0.038
7.353,-0.038
7.354,-0.041
7.355,-0.041
7.356,-0.042
7.357,-0.041
7.358,-0.041
7.359,-0.038
7.360,-0.033
7.361,-0.034
7.362,-0.034
7.363,-0.031
7.364,-0.029
7.365,-0.028
7.366,-0.028
7.367,-0.028
7.368,-0.024
7.369,-0.022
7.370,-0.019
7.371,-0.019
7.372,-0.019
7.373,-0.016
7.374,-0.017
7.375,-0.016
7.376,-0.014
7.377,-0.009
7.378,-0.006
7.379,-0.003
7.380,-0.002
7.381,0.003
7.382,0.003
7.383,0.003
7.384,0.003
7.385,0.003
7.386,0.009
7.387,0.016
7.388,0.019
7.389,0.022
7.390,0.022
7.391,0.019
7.392,0.021
7.393,0.022
7.394,0.023
7.395,0.031
7.396,0.030
7.397,0.031
7.398,0.036
7.399,0.044
7.400,0.048
7.401,0.053
7.402,0.056
7.403,0.059
7.404,0.061
7.405,0.062
7.406,0.058
7.407,0.059
7.408,0.061
7.409,0.062
7.410,0.066
7.411,0.072
7.412,0.076
7.413,0.081
7.414,0.083
7.415,0.084
7.416,0.089
7.417,0.087
7.418,0.092
7.419,0.100
7.420,0.109
7.421,0.116
7.422,0.116
7.423,0.119
7.424,0.125
7.425,0.134
7.426,0.134
7.427,0.137
7.428,0.141
7.429,0.147
7.430,0.150
7.431,0.156
7.432,0.162
7.433,0.166
7.434,0.171
7.435,0.175
7.436,0.179
7.437,0.187
7.438,0.195
7.439,0.203
7.440,0.209
7.441,0.212
7.442,0.218
7.443,0.225
7.444,0.230
7.445,0.234
7.446,0.237
7.447,0.247
7.448,0.256
7.449,0.266
7.450,0.276
7.451,0.284
7.452,0.289
7.453,0.294
7.454,0.300
7.455,0.306
7.456,0.311
7.457,0.316
7.458,0.326
7.459,0.331
7.460,0.341
7.461,0.350
7.462,0.353
7.463,0.356
7.464,0.363
7.465,0.369
7.466,0.375
7.467,0.381
7.468,0.383
7.469,0.388
7.470,0.397
7.471,0.403
7.472,0.406
7.473,0.409
7.474,0.420
7.475,0.428
7.476,0.431
7.477,0.431
7.478,0.430
7.479,0.437
7.480,0.444
7.481,0.447
7.482,0.453
7.483,0.456
7.484,0.458
7.485,0.459
7.486,0.466
7.487,0.472
7.488,0.471
7.489,0.472
7.490,0.471
7.491,0.469
7.492,0.470
7.493,0.472
7.494,0.475
7.495,0.475
7.496,0.468
7.497,0.459
7.498,0.453
7.499,0.444
7.500,0.436
7.501,0.428
7.502,0.416
7.503,0.406
7.504,0.398
7.505,0.391
7.506,0.379
7.507,0.372
7.508,0.363
7.509,0.350
7.510,0.336
7.511,0.325
7.512,0.312
7.513,0.300
7.514,0.281
7.515,0.266
7.516,0.249
7.517,0.234
7.518,0.225
7.519,0.212
7.520,0.201
7.521,0.194
7.522,0.179
7.523,0.169
7.524,0.152
7.525,0.137
7.526,0.124
7.527,0.113
7.528,0.103
7.529,0.094
7.530,0.084
7.531,0.075
7.532,0.067
7.533,0.059
7.534,0.053
7.535,0.044
7.536,0.036
7.537,0.025
7.538,0.019
7.539,0.009
7.540,0.000
7.541,-0.009
7.542,-0.014
7.543,-0.016
7.544,-0.019
7.545,-0.019
7.546,-0.023
7.547,-0.028
7.548,-0.039
7.549,-0.047
7.550,-0.054
7.551,-0.063
7.552,-0.063
7.553,-0.063
7.554,-0.064
7.555,-0.069
7.556,-0.069
7.557,-0.072
7.558,-0.076
7.559,-0.078
7.560,-0.086
7.561,-0.088
7.562,-0.091
7.563,-0.091
7.564,-0.091
7.565,-0.097
7.566,-0.100
7.567,-0.106
7.568,-0.106
7.569,-0.106
7.570,-0.105
7.571,-0.103
7.572,-0.106
7.573,-0.106
7.574,-0.106
7.575,-0.106
7.576,-0.106
7.577,-0.106
7.578,-0.103
7.579,-0.103
7.580,-0.108
7.581,-0.106
7.582,-0.111
7.583,-0.116
7.584,-0.119
7.585,-0.122
7.586,-0.123
7.587,-0.122
7.588,-0.121
7.589,-0.122
7.590,-0.119
7.591,-0.119
7.592,-0.116
7.593,-0.119
7.594,-0.116
7.595,-0.113
7.596,-0.111
7.597,-0.109
7.598,-0.106
7.599,-0.109
7.600,-0.109
7.601,-0.116
7.602,-0.116
7.603,-0.116
7.604,-0.113
7.605,-0.116
7.606,-0.117
7.607,-0.119
7.608,-0.121
7.609,-0.119
7.610,-0.120
7.611,-0.119
7.612,-0.122
7.613,-0.122
7.614,-0.120
7.615,-0.122
7.616,-0.121
7.617,-0.119
7.618,-0.118
7.619,-0.113
7.620,-0.111
7.621,-0.109
7.622,-0.113
7.623,-0.116
7.624,-0.120
7.625,-0.125
7.626,-0.121
7.627,-0.116
7.628,-0.116
7.629,-0.116
7.630,-0.120
7.631,-0.125
7.632,-0.126
7.633,-0.128
7.634,-0.125
7.635,-0.125
7.636,-0.125
7.637,-0.122
7.638,-0.122
7.639,-0.122
7.640,-0.121
7.641,-0.119
7.642,-0.120
7.643,-0.119
7.644,-0.121
7.645,-0.122
7.646,-0.118
7.647,-0.113
7.648,-0.116
7.649,-0.119
7.650,-0.120
7.651,-0.122
7.652,-0.122
7.653,-0.122
7.654,-0.121
7.655,-0.119
7.656,-0.119
7.657,-0.119
7.658,-0.120
7.659,-0.122
7.660,-0.120
7.661,-0.122
7.662,-0.116
7.663,-0.113
7.664,-0.113
7.665,-0.113
7.666,-0.116
7.667,-0.119
7.668,-0.116
7.669,-0.119
7.670,-0.116
7.671,-0.116
7.672,-0.117
7.673,-0.122
7.674,-0.120
7.675,-0.122
7.676,-0.121
7.677,-0.122
7.678,-0.121
7.679,-0.119
7.680,-0.119
7.681,-0.116
7.682,-0.114
7.683,-0.113
7.684,-0.116
7.685,-0.116
7.686,-0.119
7.687,-0.125
7.688,-0.122
7.689,-0.119
7.690,-0.116
7.691,-0.113
7.692,-0.113
7.693,-0.113
7.694,-0.116
7.695,-0.116
7.696,-0.114
7.697,-0.119
7.698,-0.120
7.699,-0.119
7.700,-0.118
7.701,-0.119
7.702,-0.113
7.703,-0.109
7.704,-0.113
7.705,-0.109
7.706,-0.109
7.707,-0.109
7.708,-0.111
7.709,-0.113
7.710,-0.113
7.711,-0.113
7.712,-0.116
7.713,-0.119
7.714,-0.116
7.715,-0.113
7.716,-0.114
7.717,-0.116
7.718,-0.119
7.719,-0.122
7.720,-0.122
7.721,-0.122
7.722,-0.121
7.723,-0.119
7.724,-0.116
7.725,-0.109
7.726,-0.106
7.727,-0.109
7.728,-0.114
7.729,-0.119
7.730,-0.118
7.731,-0.119
7.732,-0.118
7.733,-0.113
7.734,-0.113
7.735,-0.113
7.736,-0.113
7.737,-0.113
7.738,-0.113
7.739,-0.113
7.740,-0.116
7.741,-0.119
7.742,-0.119
7.743,-0.119
7.744,-0.116
7.745,-0.109
7.746,-0.108
7.747,-0.109
7.748,-0.114
7.749,-0.113
7.750,-0.111
7.751,-0.113
7.752,-0.120
7.753,-0.128
7.754,-0.128
7.755,-0.128
7.756,-0.131
7.757,-0.131
7.758,-0.130
7.759,-0.125
7.760,-0.125
7.761,-0.122
7.762,-0.126
7.763,-0.128
7.764,-0.126
7.765,-0.125
7.766,-0.128
7.767,-0.128
7.768,-0.128
7.769,-0.128
7.770,-0.127
7.771,-0.125
7.772,-0.128
7.773,-0.128
7.774,-0.128
7.775,-0.128
7.776,-0.129
7.777,-0.128
7.778,-0.128
7.779,-0.128
7.780,-0.128
7.781,-0.131
7.782,-0.130
7.783,-0.125
7.784,-0.124
7.785,-0.125
7.786,-0.127
7.787,-0.125
7.788,-0.122
7.789,-0.122
7.790,-0.122
7.791,-0.122
7.792,-0.123
7.793,-0.125
7.794,-0.125
7.795,-0.125
7.796,-0.124
7.797,-0.125
7.798,-0.131
7.799,-0.134
7.800,-0.133
7.801,-0.134
7.802,-0.133
7.803,-0.128
7.804,-0.127
7.805,-0.128
7.806,-0.129
7.807,-0.128
7.808,-0.128
7.809,-0.128
7.810,-0.131
7.811,-0.131
7.812,-0.131
7.813,-0.131
7.814,-0.131
7.815,-0.131
7.816,-0.131
7.817,-0.131
7.818,-0.131
7.819,-0.131
7.820,-0.131
7.821,-0.131
7.822,-0.131
7.823,-0.131
7.824,-0.128
7.825,-0.125
7.826,-0.124
7.827,-0.125
7.828,-0.128
7.829,-0.131
7.830,-0.133
7.831,-0.134
7.832,-0.133
7.833,-0.131
7.834,-0.130
7.835,-0.128
7.836,-0.131
7.837,-0.131
7.838,-0.133
7.839,-0.134
7.840,-0.136
7.841,-0.137
7.842,-0.137
7.843,-0.134
7.844,-0.139
7.845,-0.137
7.846,-0.136
7.847,-0.137
7.848,-0.136
7.849,-0.137
7.850,-0.137
7.851,-0.141
7.852,-0.141
7.853,-0.141
7.854,-0.141
7.855,-0.141
7.856,-0.141
7.857,-0.141
7.858,-0.141
7.859,-0.141
7.860,-0.137
7.861,-0.134
7.862,-0.131
7.863,-0.134
7.864,-0.137
7.865,-0.141
7.866,-0.142
7.867,-0.144
7.868,-0.143
7.869,-0.141
7.870,-0.143
7.871,-0.141
7.872,-0.141
7.873,-0.141
7.874,-0.142
7.875,-0.144
7.876,-0.141
7.877,-0.141
7.878,-0.141
7.879,-0.141
7.880,-0.142
7.881,-0.141
7.882,-0.139
7.883,-0.141
7.884,-0.141
7.885,-0.141
7.886,-0.139
7.887,-0.141
7.888,-0.142
7.889,-0.141
7.890,-0.141
7.891,-0.137
7.892,-0.131
7.893,-0.128
7.894,-0.126
7.895,-0.128
7.896,-0.137
7.897,-0.147
7.898,-0.143
7.899,-0.144
7.900,-0.143
7.901,-0.141
7.902,-0.141
7.903,-0.141
7.904,-0.141
7.905,-0.141
7.906,-0.139
7.907,-0.141
7.908,-0.139
7.909,-0.141
7.910,-0.139
7.911,-0.134
7.912,-0.131
7.913,-0.131
7.914,-0.130
7.915,-0.128
7.916,-0.125
7.917,-0.122
7.918,-0.113
7.919,-0.109
7.920,-0.101
7.921,-0.103
7.922,-0.103
7.923,-0.103
7.924,-0.096
7.925,-0.094
7.926,-0.088
7.927,-0.084
7.928,-0.083
7.929,-0.088
7.930,-0.089
7.931,-0.088
7.932,-0.083
7.933,-0.084
7.934,-0.080
7.935,-0.075
7.936,-0.072
7.937,-0.075
7.938,-0.083
7.939,-0.091
7.940,-0.089
7.941,-0.091
7.942,-0.092
7.943,-0.091
7.944,-0.084
7.945,-0.078
7.946,-0.068
7.947,-0.056
7.948,-0.050
7.949,-0.041
7.950,-0.032
7.951,-0.031
7.952,-0.025
7.953,-0.019
7.954,-0.020
7.955,-0.019
7.956,-0.020
7.957,-0.025
7.958,-0.028
7.959,-0.041
7.960,-0.041
7.961,-0.047
7.962,-0.046
7.963,-0.053
7.964,-0.057
7.965,-0.066
7.966,-0.068
7.967,-0.072
7.968,-0.073
7.969,-0.075
7.970,-0.076
7.971,-0.078
7.972,-0.079
7.973,-0.078
7.974,-0.071
7.975,-0.069
7.976,-0.068
7.977,-0.063
7.978,-0.061
7.979,-0.063
7.980,-0.067
7.981,-0.069
7.982,-0.079
7.983,-0.088
7.984,-0.093
7.985,-0.091
7.986,-0.093
7.987,-0.091
7.988,-0.095
7.989,-0.100
7.990,-0.102
7.991,-0.106
7.992,-0.117
7.993,-0.122
7.994,-0.126
7.995,-0.131
7.996,-0.136
7.997,-0.134
7.998,-0.136
7.999,-0.141
8.000,-0.143
8.001,-0.147
8.002,-0.149
8.003,-0.150
8.004,-0.151
8.005,-0.150
8.006,-0.150
8.007,-0.150
8.008,-0.145
8.009,-0.147
8.010,-0.146
8.011,-0.147
8.012,-0.147
8.013,-0.147
8.014,-0.146
8.015,-0.147
8.016,-0.148
8.017,-0.150
8.018,-0.149
8.019,-0.147
8.020,-0.151
8.021,-0.153
8.022,-0.154
8.023,-0.153
8.024,-0.153
8.025,-0.153
8.026,-0.153
8.027,-0.150
8.028,-0.152
8.029,-0.150
8.030,-0.151
8.031,-0.153
8.032,-0.161
8.033,-0.162
8.034,-0.162
8.035,-0.159
8.036,-0.161
8.037,-0.162
8.038,-0.162
8.039,-0.162
8.040,-0.159
8.041,-0.156
8.042,-0.158
8.043,-0.159
8.044,-0.161
8.045,-0.162
8.046,-0.162
8.047,-0.162
8.048,-0.162
8.049,-0.162
8.050,-0.166
8.051,-0.166
8.052,-0.162
8.053,-0.162
8.054,-0.172
8.055,-0.178
8.056,-0.183
8.057,-0.191
8.058,-0.203
8.059,-0.213
8.060,-0.224
8.061,-0.241
8.062,-0.256
8.063,-0.272
8.064,-0.288
8.065,-0.300
8.066,-0.316
8.067,-0.331
8.068,-0.343
8.069,-0.344
8.070,-0.350
8.071,-0.350
8.072,-0.347
8.073,-0.334
8.074,-0.318
8.075,-0.291
8.076,-0.261
8.077,-0.225
8.078,-0.186
8.079,-0.141
8.080,-0.083
8.081,-0.025
8.082,0.028
8.083,0.084
8.084,0.147
8.085,0.225
8.086,0.303
8.087,0.400
8.088,0.496
8.089,0.606
8.090,0.722
8.091,0.853
8.092,0.987
8.093,1.134
8.094,1.281
8.095,1.431
8.096,1.569
8.097,1.688
8.098,1.809
8.099,1.931
8.100,2.041
8.101,2.106
8.102,2.139
8.103,2.084
8.104,1.983
8.105,1.800
8.106,1.616
8.107,1.441
8.108,1.298
8.109,1.184
8.110,1.072
8.111,0.972
8.112,0.878
8.113,0.803
8.114,0.719
8.115,0.625
8.116,0.525
8.117,0.400
8.118,0.291
8.119,0.209
8.120,0.126
8.121,0.069
8.122,0.009
8.123,-0.031
8.124,-0.081
8.125,-0.122
8.126,-0.155
8.127,-0.175
8.128,-0.206
8.129,-0.216
8.130,-0.223
8.131,-0.222
8.132,-0.216
8.133,-0.209
8.134,-0.196
8.135,-0.181
8.136,-0.168
8.137,-0.159
8.138,-0.151
8.139,-0.147
8.140,-0.139
8.141,-0.131
8.142,-0.124
8.143,-0.119
8.144,-0.118
8.145,-0.113
8.146,-0.106
8.147,-0.103
8.148,-0.102
8.149,-0.103
8.150,-0.105
8.151,-0.103
8.152,-0.099
8.153,-0.094
8.154,-0.092
8.155,-0.094
8.156,-0.088
8.157,-0.084
8.158,-0.080
8.159,-0.078
8.160,-0.079
8.161,-0.078
8.162,-0.077
8.163,-0.075
8.164,-0.077
8.165,-0.075
8.166,-0.073
8.167,-0.075
8.168,-0.075
8.169,-0.075
8.170,-0.075
8.171,-0.075
8.172,-0.072
8.173,-0.072
8.174,-0.070
8.175,-0.072
8.176,-0.069
8.177,-0.069
8.178,-0.071
8.179,-0.069
8.180,-0.072
8.181,-0.069
8.182,-0.063
8.183,-0.059
8.184,-0.063
8.185,-0.059
8.186,-0.057
8.187,-0.059
8.188,-0.057
8.189,-0.059
8.190,-0.058
8.191,-0.053
8.192,-0.052
8.193,-0.050
8.194,-0.048
8.195,-0.050
8.196,-0.050
8.197,-0.050
8.198,-0.048
8.199,-0.047
8.200,-0.050
8.201,-0.047
8.202,-0.048
8.203,-0.047
8.204,-0.046
8.205,-0.044
8.206,-0.041
8.207,-0.041
8.208,-0.036
8.209,-0.034
8.210,-0.032
8.211,-0.031
8.212,-0.034
8.213,-0.034
8.214,-0.030
8.215,-0.025
8.216,-0.021
8.217,-0.019
8.218,-0.019
8.219,-0.016
8.220,-0.017
8.221,-0.016
8.222,-0.017
8.223,-0.019
8.224,-0.017
8.225,-0.019
8.226,-0.014
8.227,-0.013
8.228,-0.008
8.229,-0.003
8.230,-0.003
8.231,-0.006
8.232,-0.004
8.233,-0.006
8.234,-0.005
8.235,0.000
8.236,0.003
8.237,0.006
8.238,0.009
8.239,0.009
8.240,0.008
8.241,0.009
8.242,0.012
8.243,0.019
8.244,0.023
8.245,0.025
8.246,0.028
8.247,0.025
8.248,0.027
8.249,0.025
8.250,0.027
8.251,0.028
8.252,0.032
8.253,0.037
8.254,0.041
8.255,0.044
8.256,0.048
8.257,0.047
8.258,0.050
8.259,0.053
8.260,0.057
8.261,0.062
8.262,0.069
8.263,0.072
8.264,0.075
8.265,0.078
8.266,0.080
8.267,0.084
8.268,0.081
8.269,0.081
8.270,0.091
8.271,0.100
8.272,0.107
8.273,0.113
8.274,0.116
8.275,0.119
8.276,0.121
8.277,0.119
8.278,0.124
8.279,0.125
8.280,0.136
8.281,0.144
8.282,0.151
8.283,0.159
8.284,0.162
8.285,0.169
8.286,0.178
8.287,0.184
8.288,0.186
8.289,0.187
8.290,0.197
8.291,0.206
8.292,0.211
8.293,0.219
8.294,0.225
8.295,0.228
8.296,0.231
8.297,0.231
8.298,0.247
8.299,0.259
8.300,0.262
8.301,0.266
8.302,0.266
8.303,0.269
8.304,0.274
8.305,0.281
8.306,0.294
8.307,0.303
8.308,0.309
8.309,0.319
8.310,0.323
8.311,0.331
8.312,0.337
8.313,0.344
8.314,0.351
8.315,0.359
8.316,0.363
8.317,0.366
8.318,0.373
8.319,0.378
8.320,0.381
8.321,0.388
8.322,0.394
8.323,0.397
8.324,0.401
8.325,0.412
8.326,0.419
8.327,0.422
8.328,0.423
8.329,0.425
8.330,0.431
8.331,0.434
8.332,0.436
8.333,0.441
8.334,0.445
8.335,0.450
8.336,0.453
8.337,0.456
8.338,0.459
8.339,0.459
8.340,0.461
8.341,0.459
8.342,0.459
8.343,0.459
8.344,0.456
8.345,0.453
8.346,0.453
8.347,0.453
8.348,0.451
8.349,0.447
8.350,0.436
8.351,0.428
8.352,0.421
8.353,0.409
8.354,0.403
8.355,0.394
8.356,0.386
8.357,0.375
8.358,0.366
8.359,0.356
8.360,0.342
8.361,0.325
8.362,0.312
8.363,0.300
8.364,0.291
8.365,0.278
8.366,0.264
8.367,0.247
8.368,0.231
8.369,0.216
8.370,0.199
8.371,0.184
8.372,0.174
8.373,0.156
8.374,0.142
8.375,0.128
8.376,0.122
8.377,0.113
8.378,0.106
8.379,0.100
8.380,0.092
8.381,0.081
8.382,0.069
8.383,0.059
8.384,0.049
8.385,0.041
8.386,0.031
8.387,0.025
8.388,0.017
8.389,0.012
8.390,0.006
8.391,0.003
8.392,-0.003
8.393,-0.009
8.394,-0.011
8.395,-0.019
8.396,-0.028
8.397,-0.034
8.398,-0.039
8.399,-0.047
8.400,-0.050
8.401,-0.056
8.402,-0.063
8.403,-0.066
8.404,-0.070
8.405,-0.075
8.406,-0.080
8.407,-0.078
8.408,-0.084
8.409,-0.091
8.410,-0.088
8.411,-0.091
8.412,-0.091
8.413,-0.094
8.414,-0.091
8.415,-0.088
8.416,-0.094
8.417,-0.094
8.418,-0.098
8.419,-0.100
8.420,-0.100
8.421,-0.100
8.422,-0.101
8.423,-0.106
8.424,-0.111
8.425,-0.119
8.426,-0.121
8.427,-0.119
8.428,-0.116
8.429,-0.109
8.430,-0.108
8.431,-0.109
8.432,-0.105
8.433,-0.106
8.434,-0.109
8.435,-0.113
8.436,-0.116
8.437,-0.116
8.438,-0.113
8.439,-0.113
8.440,-0.117
8.441,-0.116
8.442,-0.116
8.443,-0.113
8.444,-0.117
8.445,-0.119
8.446,-0.119
8.447,-0.119
8.448,-0.118
8.449,-0.113
8.450,-0.116
8.451,-0.113
8.452,-0.116
8.453,-0.116
8.454,-0.116
8.455,-0.113
8.456,-0.116
8.457,-0.116
8.458,-0.114
8.459,-0.116
8.460,-0.116
8.461,-0.116
8.462,-0.113
8.463,-0.116
8.464,-0.117
8.465,-0.116
8.466,-0.117
8.467,-0.119
8.468,-0.119
8.469,-0.122
8.470,-0.119
8.471,-0.116
8.472,-0.116
8.473,-0.116
8.474,-0.117
8.475,-0.119
8.476,-0.116
8.477,-0.109
8.478,-0.111
8.479,-0.116
8.480,-0.116
8.481,-0.119
8.482,-0.118
8.483,-0.113
8.484,-0.114
8.485,-0.113
8.486,-0.114
8.487,-0.116
8.488,-0.116
8.489,-0.119
8.490,-0.119
8.491,-0.119
8.492,-0.119
8.493,-0.119
8.494,-0.113
8.495,-0.113
8.496,-0.113
8.497,-0.109
8.498,-0.109
8.499,-0.109
8.500,-0.111
8.501,-0.109
8.502,-0.109
8.503,-0.113
8.504,-0.111
8.505,-0.109
8.506,-0.106
8.507,-0.106
8.508,-0.109
8.509,-0.109
8.510,-0.111
8.511,-0.109
8.512,-0.109
8.513,-0.109
8.514,-0.111
8.515,-0.109
8.516,-0.109
8.517,-0.109
8.518,-0.109
8.519,-0.106
8.520,-0.111
8.521,-0.109
8.522,-0.106
8.523,-0.103
8.524,-0.106
8.525,-0.103
8.526,-0.103
8.527,-0.103
8.528,-0.106
8.529,-0.106
8.530,-0.108
8.531,-0.109
8.532,-0.105
8.533,-0.103
8.534,-0.102
8.535,-0.103
8.536,-0.104
8.537,-0.103
8.538,-0.103
8.539,-0.103
8.540,-0.104
8.541,-0.106
8.542,-0.106
8.543,-0.106
8.544,-0.105
8.545,-0.106
8.546,-0.106
8.547,-0.103
8.548,-0.105
8.549,-0.103
8.550,-0.100
8.551,-0.100
8.552,-0.104
8.553,-0.103
8.554,-0.102
8.555,-0.103
8.556,-0.101
8.557,-0.103
8.558,-0.100
8.559,-0.100
8.560,-0.108
8.561,-0.109
8.562,-0.106
8.563,-0.106
8.564,-0.105
8.565,-0.103
8.566,-0.104
8.567,-0.106
8.568,-0.106
8.569,-0.106
8.570,-0.106
8.571,-0.106
8.572,-0.106
8.573,-0.106
8.574,-0.103
8.575,-0.100
8.576,-0.097
8.577,-0.097
8.578,-0.103
8.579,-0.103
8.580,-0.102
8.581,-0.100
8.582,-0.104
8.583,-0.106
8.584,-0.104
8.585,-0.106
8.586,-0.106
8.587,-0.106
8.588,-0.108
8.589,-0.109
8.590,-0.108
8.591,-0.106
8.592,-0.106
8.593,-0.106
8.594,-0.108
8.595,-0.109
8.596,-0.105
8.597,-0.103
8.598,-0.105
8.599,-0.106
8.600,-0.104
8.601,-0.106
8.602,-0.113
8.603,-0.116
8.604,-0.117
8.605,-0.122
8.606,-0.124
8.607,-0.122
8.608,-0.118
8.609,-0.116
8.610,-0.114
8.611,-0.119
8.612,-0.118
8.613,-0.119
8.614,-0.119
8.615,-0.116
8.616,-0.111
8.617,-0.113
8.618,-0.114
8.619,-0.116
8.620,-0.117
8.621,-0.119
8.622,-0.119
8.623,-0.122
8.624,-0.121
8.625,-0.119
8.626,-0.119
8.627,-0.119
8.628,-0.120
8.629,-0.125
8.630,-0.125
8.631,-0.125
8.632,-0.125
8.633,-0.122
8.634,-0.118
8.635,-0.116
8.636,-0.116
8.637,-0.116
8.638,-0.117
8.639,-0.116
8.640,-0.117
8.641,-0.119
8.642,-0.119
8.643,-0.119
8.644,-0.120
8.645,-0.122
8.646,-0.122
8.647,-0.122
8.648,-0.125
8.649,-0.125
8.650,-0.122
8.651,-0.122
8.652,-0.125
8.653,-0.125
8.654,-0.123
8.655,-0.125
8.656,-0.128
8.657,-0.128
8.658,-0.126
8.659,-0.128
8.660,-0.125
8.661,-0.125
8.662,-0.126
8.663,-0.128
8.664,-0.128
8.665,-0.128
8.666,-0.127
8.667,-0.125
8.668,-0.126
8.669,-0.128
8.670,-0.128
8.671,-0.128
8.672,-0.128
8.673,-0.128
8.674,-0.128
8.675,-0.128
8.676,-0.125
8.677,-0.122
8.678,-0.124
8.679,-0.122
8.680,-0.125
8.681,-0.128
8.682,-0.129
8.683,-0.131
8.684,-0.131
8.685,-0.131
8.686,-0.130
8.687,-0.128
8.688,-0.124
8.689,-0.122
8.690,-0.123
8.691,-0.128
8.692,-0.134
8.693,-0.137
8.694,-0.131
8.695,-0.131
8.696,-0.127
8.697,-0.125
8.698,-0.128
8.699,-0.125
8.700,-0.125
8.701,-0.125
8.702,-0.128
8.703,-0.128
8.704,-0.129
8.705,-0.131
8.706,-0.131
8.707,-0.131
8.708,-0.131
8.709,-0.131
8.710,-0.131
8.711,-0.131
8.712,-0.133
8.713,-0.131
8.714,-0.134
8.715,-0.134
8.716,-0.130
8.717,-0.125
8.718,-0.124
8.719,-0.122
8.720,-0.125
8.721,-0.125
8.722,-0.124
8.723,-0.122
8.724,-0.131
8.725,-0.137
8.726,-0.137
8.727,-0.137
8.728,-0.136
8.729,-0.134
8.730,-0.131
8.731,-0.131
8.732,-0.131
8.733,-0.131
8.734,-0.130
8.735,-0.125
8.736,-0.125
8.737,-0.128
8.738,-0.129
8.739,-0.131
8.740,-0.133
8.741,-0.137
8.742,-0.134
8.743,-0.128
8.744,-0.131
8.745,-0.131
8.746,-0.130
8.747,-0.131
8.748,-0.129
8.749,-0.131
8.750,-0.133
8.751,-0.134
8.752,-0.131
8.753,-0.134
8.754,-0.134
8.755,-0.134
8.756,-0.133
8.757,-0.131
8.758,-0.131
8.759,-0.131
8.760,-0.128
8.761,-0.128
8.762,-0.127
8.763,-0.128
8.764,-0.129
8.765,-0.128
8.766,-0.126
8.767,-0.128
8.768,-0.128
8.769,-0.128
8.770,-0.126
8.771,-0.125
8.772,-0.120
8.773,-0.122
8.774,-0.114
8.775,-0.116
8.776,-0.109
8.777,-0.103
8.778,-0.096
8.779,-0.094
8.780,-0.088
8.781,-0.084
8.782,-0.075
8.783,-0.072
8.784,-0.072
8.785,-0.069
8.786,-0.066
8.787,-0.069
8.788,-0.072
8.789,-0.075
8.790,-0.075
8.791,-0.081
8.792,-0.083
8.793,-0.084
8.794,-0.086
8.795,-0.091
8.796,-0.094
8.797,-0.094
8.798,-0.089
8.799,-0.084
8.800,-0.081
8.801,-0.078
8.802,-0.073
8.803,-0.066
8.804,-0.053
8.805,-0.047
8.806,-0.041
8.807,-0.034
8.808,-0.031
8.809,-0.025
8.810,-0.022
8.811,-0.022
8.812,-0.022
8.813,-0.031
8.814,-0.038
8.815,-0.050
8.816,-0.049
8.817,-0.056
8.818,-0.059
8.819,-0.066
8.820,-0.072
8.821,-0.081
8.822,-0.081
8.823,-0.081
8.824,-0.083
8.825,-0.084
8.826,-0.084
8.827,-0.081
8.828,-0.076
8.829,-0.078
8.830,-0.077
8.831,-0.072
8.832,-0.068
8.833,-0.066
8.834,-0.068
8.835,-0.066
8.836,-0.071
8.837,-0.072
8.838,-0.086
8.839,-0.094
8.840,-0.097
8.841,-0.097
8.842,-0.097
8.843,-0.097
8.844,-0.097
8.845,-0.100
8.846,-0.114
8.847,-0.122
8.848,-0.126
8.849,-0.131
8.850,-0.137
8.851,-0.137
8.852,-0.136
8.853,-0.137
8.854,-0.144
8.855,-0.153
8.856,-0.156
8.857,-0.159
8.858,-0.161
8.859,-0.159
8.860,-0.159
8.861,-0.159
8.862,-0.153
8.863,-0.153
8.864,-0.152
8.865,-0.153
8.866,-0.154
8.867,-0.156
8.868,-0.152
8.869,-0.150
8.870,-0.151
8.871,-0.153
8.872,-0.158
8.873,-0.162
8.874,-0.162
8.875,-0.159
8.876,-0.159
8.877,-0.156
8.878,-0.152
8.879,-0.147
8.880,-0.148
8.881,-0.147
8.882,-0.153
8.883,-0.156
8.884,-0.155
8.885,-0.153
8.886,-0.156
8.887,-0.153
8.888,-0.156
8.889,-0.156
8.890,-0.158
8.891,-0.159
8.892,-0.159
8.893,-0.159
8.894,-0.159
8.895,-0.159
8.896,-0.159
8.897,-0.159
8.898,-0.159
8.899,-0.159
8.900,-0.155
8.901,-0.150
8.902,-0.149
8.903,-0.147
8.904,-0.156
8.905,-0.162
8.906,-0.161
8.907,-0.162
8.908,-0.170
8.909,-0.175
8.910,-0.181
8.911,-0.191
8.912,-0.202
8.913,-0.209
8.914,-0.222
8.915,-0.241
8.916,-0.256
8.917,-0.272
8.918,-0.288
8.919,-0.300
8.920,-0.313
8.921,-0.325
8.922,-0.339
8.923,-0.344
8.924,-0.359
8.925,-0.369
8.926,-0.369
8.927,-0.359
8.928,-0.351
8.929,-0.334
8.930,-0.308
8.931,-0.275
8.932,-0.242
8.933,-0.203
8.934,-0.153
8.935,-0.103
8.936,-0.049
8.937,0.009
8.938,0.062
8.939,0.131
8.940,0.211
8.941,0.309
8.942,0.399
8.943,0.503
8.944,0.620
8.945,0.753
8.946,0.889
8.947,1.037
8.948,1.184
8.949,1.334
8.950,1.492
8.951,1.631
8.952,1.764
8.953,1.897
8.954,2.039
8.955,2.137
8.956,2.225
8.957,2.225
8.958,2.176
8.959,2.047
8.960,1.875
8.961,1.712
8.962,1.536
8.963,1.387
8.964,1.249
8.965,1.122
8.966,0.999
8.967,0.894
8.968,0.809
8.969,0.716
8.970,0.629
8.971,0.519
8.972,0.374
8.973,0.256
8.974,0.153
8.975,0.075
8.976,0.002
8.977,-0.053
8.978,-0.104
8.979,-0.147
8.980,-0.188
8.981,-0.216
8.982,-0.236
8.983,-0.234
8.984,-0.234
8.985,-0.225
8.986,-0.211
8.987,-0.197
8.988,-0.184
8.989,-0.172
8.990,-0.159
8.991,-0.153
8.992,-0.144
8.993,-0.137
8.994,-0.130
8.995,-0.122
8.996,-0.114
8.997,-0.109
8.998,-0.111
8.999,-0.109
9.000,-0.105
9.001,-0.103
9.002,-0.103
9.003,-0.106
9.004,-0.111
9.005,-0.113
9.006,-0.111
9.007,-0.109
9.008,-0.102
9.009,-0.097
9.010,-0.092
9.011,-0.091
9.012,-0.089
9.013,-0.091
9.014,-0.091
9.015,-0.088
9.016,-0.088
9.017,-0.088
9.018,-0.091
9.019,-0.091
9.020,-0.088
9.021,-0.088
9.022,-0.089
9.023,-0.091
9.024,-0.091
9.025,-0.091
9.026,-0.088
9.027,-0.088
9.028,-0.086
9.029,-0.088
9.030,-0.086
9.031,-0.088
9.032,-0.088
9.033,-0.084
9.034,-0.089
9.035,-0.088
9.036,-0.084
9.037,-0.084
9.038,-0.086
9.039,-0.081
9.040,-0.083
9.041,-0.088
9.042,-0.084
9.043,-0.084
9.044,-0.084
9.045,-0.081
9.046,-0.078
9.047,-0.075
9.048,-0.072
9.049,-0.072
9.050,-0.072
9.051,-0.072
9.052,-0.070
9.053,-0.069
9.054,-0.071
9.055,-0.066
9.056,-0.067
9.057,-0.066
9.058,-0.066
9.059,-0.066
9.060,-0.064
9.061,-0.066
9.062,-0.061
9.063,-0.059
9.064,-0.056
9.065,-0.053
9.066,-0.055
9.067,-0.053
9.068,-0.051
9.069,-0.050
9.070,-0.048
9.071,-0.050
9.072,-0.051
9.073,-0.050
9.074,-0.049
9.075,-0.044
9.076,-0.041
9.077,-0.038
9.078,-0.033
9.079,-0.031
9.080,-0.029
9.081,-0.031
9.082,-0.028
9.083,-0.025
9.084,-0.022
9.085,-0.022
9.086,-0.023
9.087,-0.028
9.088,-0.025
9.089,-0.019
9.090,-0.016
9.091,-0.013
9.092,-0.009
9.093,-0.009
9.094,-0.011
9.095,-0.009
9.096,-0.008
9.097,-0.003
9.098,0.000
9.099,0.000
9.100,0.008
9.101,0.009
9.102,0.011
9.103,0.009
9.104,0.009
9.105,0.009
9.106,0.016
9.107,0.022
9.108,0.024
9.109,0.025
9.110,0.029
9.111,0.028
9.112,0.030
9.113,0.031
9.114,0.030
9.115,0.028
9.116,0.037
9.117,0.044
9.118,0.048
9.119,0.053
9.120,0.061
9.121,0.072
9.122,0.075
9.123,0.081
9.124,0.086
9.125,0.091
9.126,0.087
9.127,0.081
9.128,0.081
9.129,0.081
9.130,0.092
9.131,0.100
9.132,0.103
9.133,0.103
9.134,0.111
9.135,0.116
9.136,0.122
9.137,0.128
9.138,0.131
9.139,0.137
9.140,0.142
9.141,0.144
9.142,0.150
9.143,0.156
9.144,0.164
9.145,0.172
9.146,0.175
9.147,0.181
9.148,0.192
9.149,0.200
9.150,0.205
9.151,0.206
9.152,0.216
9.153,0.222
9.154,0.229
9.155,0.237
9.156,0.242
9.157,0.250
9.158,0.256
9.159,0.266
9.160,0.275
9.161,0.281
9.162,0.287
9.163,0.297
9.164,0.300
9.165,0.306
9.166,0.312
9.167,0.319
9.168,0.324
9.169,0.328
9.170,0.334
9.171,0.341
9.172,0.346
9.173,0.347
9.174,0.354
9.175,0.366
9.176,0.373
9.177,0.378
9.178,0.377
9.179,0.381
9.180,0.391
9.181,0.397
9.182,0.398
9.183,0.400
9.184,0.408
9.185,0.412
9.186,0.417
9.187,0.425
9.188,0.428
9.189,0.431
9.190,0.431
9.191,0.431
9.192,0.434
9.193,0.434
9.194,0.439
9.195,0.441
9.196,0.442
9.197,0.444
9.198,0.445
9.199,0.447
9.200,0.445
9.201,0.444
9.202,0.442
9.203,0.437
9.204,0.428
9.205,0.422
9.206,0.417
9.207,0.409
9.208,0.402
9.209,0.391
9.210,0.384
9.211,0.375
9.212,0.363
9.213,0.350
9.214,0.337
9.215,0.322
9.216,0.311
9.217,0.300
9.218,0.287
9.219,0.272
9.220,0.261
9.221,0.247
9.222,0.233
9.223,0.219
9.224,0.203
9.225,0.191
9.226,0.182
9.227,0.169
9.228,0.153
9.229,0.137
9.230,0.125
9.231,0.109
9.232,0.100
9.233,0.091
9.234,0.082
9.235,0.072
9.236,0.058
9.237,0.047
9.238,0.039
9.239,0.034
9.240,0.025
9.241,0.019
9.242,0.012
9.243,0.009
9.244,-0.003
9.245,-0.013
9.246,-0.020
9.247,-0.028
9.248,-0.030
9.249,-0.038
9.250,-0.045
9.251,-0.050
9.252,-0.054
9.253,-0.063
9.254,-0.063
9.255,-0.066
9.256,-0.072
9.257,-0.075
9.258,-0.081
9.259,-0.088
9.260,-0.093
9.261,-0.091
9.262,-0.093
9.263,-0.094
9.264,-0.094
9.265,-0.100
9.266,-0.101
9.267,-0.106
9.268,-0.106
9.269,-0.106
9.270,-0.109
9.271,-0.106
9.272,-0.108
9.273,-0.106
9.274,-0.106
9.275,-0.106
9.276,-0.109
9.277,-0.116
9.278,-0.117
9.279,-0.122
9.280,-0.125
9.281,-0.125
9.282,-0.126
9.283,-0.125
9.284,-0.128
9.285,-0.134
9.286,-0.131
9.287,-0.134
9.288,-0.134
9.289,-0.134
9.290,-0.137
9.291,-0.137
9.292,-0.134
9.293,-0.134
9.294,-0.136
9.295,-0.131
9.296,-0.131
9.297,-0.128
9.298,-0.136
9.299,-0.141
9.300,-0.137
9.301,-0.134
9.302,-0.131
9.303,-0.125
9.304,-0.129
9.305,-0.128
9.306,-0.131
9.307,-0.131
9.308,-0.133
9.309,-0.131
9.310,-0.133
9.311,-0.131
9.312,-0.130
9.313,-0.131
9.314,-0.133
9.315,-0.134
9.316,-0.133
9.317,-0.137
9.318,-0.137
9.319,-0.134
9.320,-0.133
9.321,-0.131
9.322,-0.128
9.323,-0.128
9.324,-0.129
9.325,-0.131
9.326,-0.131
9.327,-0.131
9.328,-0.131
9.329,-0.131
9.330,-0.133
9.331,-0.131
9.332,-0.131
9.333,-0.134
9.334,-0.131
9.335,-0.131
9.336,-0.131
9.337,-0.128
9.338,-0.129
9.339,-0.128
9.340,-0.097
9.341,-0.066
9.342,-0.033
9.343,-0.003
9.344,-0.003
9.345,-0.003
9.346,-0.003
9.347,-0.003
9.348,-0.028
9.349,-0.059
9.350,-0.092
9.351,-0.122
9.352,-0.123
9.353,-0.125
9.354,-0.128
9.355,-0.128
9.356,-0.124
9.357,-0.122
9.358,-0.122
9.359,-0.122
9.360,-0.122
9.361,-0.125
9.362,-0.128
9.363,-0.128
9.364,-0.128
9.365,-0.125
9.366,-0.122
9.367,-0.119
9.368,-0.123
9.369,-0.125
9.370,-0.126
9.371,-0.128
9.372,-0.127
9.373,-0.122
9.374,-0.125
9.375,-0.122
9.376,-0.123
9.377,-0.125
9.378,-0.128
9.379,-0.125
9.380,-0.124
9.381,-0.122
9.382,-0.125
9.383,-0.125
9.384,-0.125
9.385,-0.125
9.386,-0.123
9.387,-0.125
9.388,-0.124
9.389,-0.125
9.390,-0.124
9.391,-0.119
9.392,-0.119
9.393,-0.119
9.394,-0.120
