'Elapsed time','II'
'seconds','mV'
0.000,-0.003
0.001,-0.003
0.002,-0.003
0.003,-0.003
0.004,0.000
0.005,0.003
0.006,0.003
0.007,0.003
0.008,0.003
0.009,0.003
0.010,0.007
0.011,0.012
0.012,0.012
0.013,0.012
0.014,0.017
0.015,0.022
0.016,0.023
0.017,0.025
0.018,0.025
0.019,0.025
0.020,0.031
0.021,0.037
0.022,0.044
0.023,0.050
0.024,0.054
0.025,0.059
0.026,0.059
0.027,0.059
0.028,0.061
0.029,0.062
0.030,0.062
0.031,0.062
0.032,0.066
0.033,0.069
0.034,0.073
0.035,0.078
0.036,0.084
0.037,0.091
0.038,0.092
0.039,0.094
0.040,0.098
0.041,0.103
0.042,0.112
0.043,0.122
0.044,0.129
0.045,0.137
0.046,0.142
0.047,0.147
0.048,0.153
0.049,0.159
0.050,0.159
0.051,0.159
0.052,0.166
0.053,0.172
0.054,0.178
0.055,0.184
0.056,0.189
0.057,0.194
0.058,0.198
0.059,0.203
0.060,0.204
0.061,0.206
0.062,0.214
0.063,0.222
0.064,0.225
0.065,0.228
0.066,0.234
0.067,0.241
0.068,0.247
0.069,0.253
0.070,0.259
0.071,0.266
0.072,0.269
0.073,0.272
0.074,0.275
0.075,0.278
0.076,0.282
0.077,0.287
0.078,0.289
0.079,0.291
0.080,0.292
0.081,0.294
0.082,0.298
0.083,0.303
0.084,0.304
0.085,0.306
0.086,0.307
0.087,0.309
0.088,0.308
0.089,0.306
0.090,0.311
0.091,0.316
0.092,0.320
0.093,0.325
0.094,0.328
0.095,0.331
0.096,0.331
0.097,0.331
0.098,0.331
0.099,0.331
0.100,0.328
0.101,0.325
0.102,0.321
0.103,0.316
0.104,0.308
0.105,0.300
0.106,0.296
0.107,0.291
0.108,0.281
0.109,0.272
0.110,0.266
0.111,0.259
0.112,0.255
0.113,0.250
0.114,0.239
0.115,0.228
0.116,0.219
0.117,0.209
0.118,0.197
0.119,0.184
0.120,0.178
0.121,0.172
0.122,0.161
0.123,0.150
0.124,0.142
0.125,0.134
0.126,0.127
0.127,0.119
0.128,0.108
0.129,0.097
0.130,0.089
0.131,0.081
0.132,0.071
0.133,0.059
0.134,0.055
0.135,0.050
0.136,0.044
0.137,0.037
0.138,0.033
0.139,0.028
0.140,0.024
0.141,0.019
0.142,0.014
0.143,0.009
0.144,0.003
0.145,-0.003
0.146,-0.004
0.147,-0.006
0.148,-0.009
0.149,-0.013
0.150,-0.014
0.151,-0.016
0.152,-0.023
0.153,-0.031
0.154,-0.032
0.155,-0.034
0.156,-0.036
0.157,-0.038
0.158,-0.044
0.159,-0.050
0.160,-0.050
0.161,-0.050
0.162,-0.053
0.163,-0.056
0.164,-0.059
0.165,-0.063
0.166,-0.063
0.167,-0.063
0.168,-0.063
0.169,-0.063
0.170,-0.064
0.171,-0.066
0.172,-0.066
0.173,-0.066
0.174,-0.066
0.175,-0.066
0.176,-0.066
0.177,-0.066
0.178,-0.066
0.179,-0.066
0.180,-0.069
0.181,-0.072
0.182,-0.072
0.183,-0.072
0.184,-0.072
0.185,-0.072
0.186,-0.072
0.187,-0.072
0.188,-0.072
0.189,-0.072
0.190,-0.072
0.191,-0.072
0.192,-0.069
0.193,-0.066
0.194,-0.066
0.195,-0.066
0.196,-0.066
0.197,-0.066
0.198,-0.066
0.199,-0.066
0.200,-0.066
0.201,-0.066
0.202,-0.067
0.203,-0.069
0.204,-0.070
0.205,-0.072
0.206,-0.072
0.207,-0.072
0.208,-0.072
0.209,-0.072
0.210,-0.072
0.211,-0.072
0.212,-0.072
0.213,-0.072
0.214,-0.072
0.215,-0.072
0.216,-0.072
0.217,-0.072
0.218,-0.071
0.219,-0.069
0.220,-0.069
0.221,-0.069
0.222,-0.070
0.223,-0.072
0.224,-0.069
0.225,-0.066
0.226,-0.064
0.227,-0.063
0.228,-0.066
0.229,-0.066
0.230,-0.066
0.231,-0.066
0.232,-0.061
0.233,-0.056
0.234,-0.059
0.235,-0.059
0.236,-0.063
0.237,-0.066
0.238,-0.067
0.239,-0.069
0.240,-0.070
0.241,-0.072
0.242,-0.071
0.243,-0.069
0.244,-0.067
0.245,-0.069
0.246,-0.069
0.247,-0.072
0.248,-0.072
0.249,-0.069
0.250,-0.068
0.251,-0.063
0.252,-0.063
0.253,-0.063
0.254,-0.067
0.255,-0.075
0.256,-0.074
0.257,-0.072
0.258,-0.072
0.259,-0.072
0.260,-0.075
0.261,-0.072
0.262,-0.072
0.263,-0.072
0.264,-0.069
0.265,-0.069
0.266,-0.072
0.267,-0.072
0.268,-0.072
0.269,-0.072
0.270,-0.073
0.271,-0.072
0.272,-0.075
0.273,-0.075
0.274,-0.072
0.275,-0.072
0.276,-0.073
0.277,-0.075
0.278,-0.078
0.279,-0.084
0.280,-0.083
0.281,-0.084
0.282,-0.080
0.283,-0.072
0.284,-0.072
0.285,-0.072
0.286,-0.072
0.287,-0.072
0.288,-0.073
0.289,-0.078
0.290,-0.079
0.291,-0.081
0.292,-0.083
0.293,-0.081
0.294,-0.081
0.295,-0.081
0.296,-0.084
0.297,-0.084
0.298,-0.084
0.299,-0.084
0.300,-0.086
0.301,-0.088
0.302,-0.084
0.303,-0.084
0.304,-0.088
0.305,-0.088
0.306,-0.086
0.307,-0.084
0.308,-0.088
0.309,-0.088
0.310,-0.089
0.311,-0.091
0.312,-0.086
0.313,-0.088
0.314,-0.086
0.315,-0.081
0.316,-0.083
0.317,-0.088
0.318,-0.091
0.319,-0.091
0.320,-0.092
0.321,-0.094
0.322,-0.094
0.323,-0.097
0.324,-0.098
0.325,-0.100
0.326,-0.100
0.327,-0.100
0.328,-0.097
0.329,-0.097
0.330,-0.096
0.331,-0.091
0.332,-0.093
0.333,-0.094
0.334,-0.094
0.335,-0.094
0.336,-0.094
0.337,-0.094
0.338,-0.094
0.339,-0.094
0.340,-0.091
0.341,-0.091
0.342,-0.094
0.343,-0.100
0.344,-0.103
0.345,-0.106
0.346,-0.105
0.347,-0.103
0.348,-0.106
0.349,-0.106
0.350,-0.103
0.351,-0.103
0.352,-0.106
0.353,-0.106
0.354,-0.105
0.355,-0.103
0.356,-0.108
0.357,-0.106
0.358,-0.105
0.359,-0.103
0.360,-0.102
0.361,-0.103
0.362,-0.100
0.363,-0.094
0.364,-0.097
0.365,-0.097
0.366,-0.096
0.367,-0.094
0.368,-0.095
0.369,-0.097
0.370,-0.097
0.371,-0.100
0.372,-0.101
0.373,-0.103
0.374,-0.104
0.375,-0.106
0.376,-0.111
0.377,-0.116
0.378,-0.114
0.379,-0.116
0.380,-0.111
0.381,-0.113
0.382,-0.113
0.383,-0.113
0.384,-0.109
0.385,-0.109
0.386,-0.111
0.387,-0.109
0.388,-0.109
0.389,-0.109
0.390,-0.109
0.391,-0.109
0.392,-0.109
0.393,-0.109
0.394,-0.106
0.395,-0.103
0.396,-0.103
0.397,-0.106
0.398,-0.108
0.399,-0.109
0.400,-0.108
0.401,-0.113
0.402,-0.109
0.403,-0.109
0.404,-0.111
0.405,-0.109
0.406,-0.109
0.407,-0.109
0.408,-0.111
0.409,-0.113
0.410,-0.114
0.411,-0.116
0.412,-0.118
0.413,-0.113
0.414,-0.114
0.415,-0.113
0.416,-0.109
0.417,-0.109
0.418,-0.108
0.419,-0.109
0.420,-0.109
0.421,-0.109
0.422,-0.111
0.423,-0.109
0.424,-0.108
0.425,-0.109
0.426,-0.106
0.427,-0.106
0.428,-0.109
0.429,-0.109
0.430,-0.106
0.431,-0.103
0.432,-0.106
0.433,-0.109
0.434,-0.109
0.435,-0.109
0.436,-0.113
0.437,-0.113
0.438,-0.111
0.439,-0.113
0.440,-0.117
0.441,-0.122
0.442,-0.122
0.443,-0.122
0.444,-0.122
0.445,-0.119
0.446,-0.118
0.447,-0.116
0.448,-0.116
0.449,-0.116
0.450,-0.114
0.451,-0.113
0.452,-0.111
0.453,-0.109
0.454,-0.109
0.455,-0.109
0.456,-0.116
0.457,-0.116
0.458,-0.113
0.459,-0.116
0.460,-0.113
0.461,-0.109
0.462,-0.111
0.463,-0.113
0.464,-0.111
0.465,-0.113
0.466,-0.116
0.467,-0.119
0.468,-0.121
0.469,-0.122
0.470,-0.120
0.471,-0.122
0.472,-0.122
0.473,-0.125
0.474,-0.126
0.475,-0.125
0.476,-0.124
0.477,-0.122
0.478,-0.125
0.479,-0.125
0.480,-0.122
0.481,-0.119
0.482,-0.120
0.483,-0.119
0.484,-0.122
0.485,-0.122
0.486,-0.121
0.487,-0.119
0.488,-0.116
0.489,-0.113
0.490,-0.116
0.491,-0.116
0.492,-0.119
0.493,-0.119
0.494,-0.119
0.495,-0.119
0.496,-0.119
0.497,-0.116
0.498,-0.116
0.499,-0.119
0.500,-0.120
0.501,-0.122
0.502,-0.120
0.503,-0.122
0.504,-0.119
0.505,-0.119
0.506,-0.122
0.507,-0.122
0.508,-0.119
0.509,-0.116
0.510,-0.109
0.511,-0.109
0.512,-0.113
0.513,-0.113
0.514,-0.109
0.515,-0.109
0.516,-0.103
0.517,-0.097
0.518,-0.100
0.519,-0.094
0.520,-0.095
0.521,-0.097
0.522,-0.092
0.523,-0.094
0.524,-0.095
0.525,-0.094
0.526,-0.094
0.527,-0.094
0.528,-0.092
0.529,-0.091
0.530,-0.086
0.531,-0.088
0.532,-0.084
0.533,-0.075
0.534,-0.074
0.535,-0.072
0.536,-0.070
0.537,-0.072
0.538,-0.068
0.539,-0.056
0.540,-0.049
0.541,-0.038
0.542,-0.031
0.543,-0.025
0.544,-0.024
0.545,-0.019
0.546,-0.014
0.547,-0.013
0.548,-0.013
0.549,-0.009
0.550,-0.013
0.551,-0.013
0.552,-0.009
0.553,-0.013
0.554,-0.009
0.555,-0.006
0.556,-0.003
0.557,0.003
0.558,0.003
0.559,0.006
0.560,0.012
0.561,0.012
0.562,0.012
0.563,0.012
0.564,0.016
0.565,0.022
0.566,0.036
0.567,0.041
0.568,0.047
0.569,0.053
0.570,0.061
0.571,0.066
0.572,0.058
0.573,0.056
0.574,0.049
0.575,0.037
0.576,0.030
0.577,0.019
0.578,0.016
0.579,0.009
0.580,0.009
0.581,0.009
0.582,0.006
0.583,0.006
0.584,0.011
0.585,0.009
0.586,0.007
0.587,0.009
0.588,0.003
0.589,0.000
0.590,-0.007
0.591,-0.019
0.592,-0.021
0.593,-0.022
0.594,-0.031
0.595,-0.034
0.596,-0.030
0.597,-0.031
0.598,-0.038
0.599,-0.041
0.600,-0.047
0.601,-0.053
0.602,-0.058
0.603,-0.063
0.604,-0.068
0.605,-0.069
0.606,-0.075
0.607,-0.081
0.608,-0.083
0.609,-0.088
0.610,-0.089
0.611,-0.088
0.612,-0.093
0.613,-0.091
0.614,-0.097
0.615,-0.100
0.616,-0.100
0.617,-0.103
0.618,-0.105
0.619,-0.106
0.620,-0.113
0.621,-0.116
0.622,-0.121
0.623,-0.122
0.624,-0.126
0.625,-0.131
0.626,-0.138
0.627,-0.147
0.628,-0.151
0.629,-0.156
0.630,-0.163
0.631,-0.159
0.632,-0.163
0.633,-0.163
0.634,-0.161
0.635,-0.163
0.636,-0.163
0.637,-0.163
0.638,-0.163
0.639,-0.163
0.640,-0.158
0.641,-0.156
0.642,-0.158
0.643,-0.159
0.644,-0.163
0.645,-0.163
0.646,-0.164
0.647,-0.159
0.648,-0.158
0.649,-0.153
0.650,-0.152
0.651,-0.150
0.652,-0.151
0.653,-0.153
0.654,-0.154
0.655,-0.153
0.656,-0.152
0.657,-0.150
0.658,-0.151
0.659,-0.153
0.660,-0.158
0.661,-0.159
0.662,-0.159
0.663,-0.159
0.664,-0.164
0.665,-0.163
0.666,-0.163
0.667,-0.163
0.668,-0.166
0.669,-0.166
0.670,-0.168
0.671,-0.166
0.672,-0.167
0.673,-0.163
0.674,-0.159
0.675,-0.159
0.676,-0.161
0.677,-0.163
0.678,-0.161
0.679,-0.159
0.680,-0.156
0.681,-0.153
0.682,-0.155
0.683,-0.159
0.684,-0.164
0.685,-0.169
0.686,-0.177
0.687,-0.184
0.688,-0.194
0.689,-0.203
0.690,-0.200
0.691,-0.200
0.692,-0.204
0.693,-0.212
0.694,-0.206
0.695,-0.191
0.696,-0.166
0.697,-0.141
0.698,-0.117
0.699,-0.097
0.700,-0.072
0.701,-0.047
0.702,-0.017
0.703,0.022
0.704,0.074
0.705,0.137
0.706,0.217
0.707,0.291
0.708,0.367
0.709,0.441
0.710,0.526
0.711,0.616
0.712,0.716
0.713,0.812
0.714,0.916
0.715,1.019
0.716,1.134
0.717,1.253
0.718,1.379
0.719,1.500
0.720,1.588
0.721,1.659
0.722,1.675
0.723,1.644
0.724,1.530
0.725,1.384
0.726,1.234
0.727,1.094
0.728,0.981
0.729,0.878
0.730,0.752
0.731,0.609
0.732,0.479
0.733,0.366
0.734,0.294
0.735,0.237
0.736,0.214
0.737,0.200
0.738,0.186
0.739,0.175
0.740,0.156
0.741,0.134
0.742,0.108
0.743,0.078
0.744,0.047
0.745,0.019
0.746,-0.001
0.747,-0.013
0.748,-0.023
0.749,-0.031
0.750,-0.033
0.751,-0.034
0.752,-0.036
0.753,-0.038
0.754,-0.042
0.755,-0.050
0.756,-0.056
0.757,-0.063
0.758,-0.067
0.759,-0.072
0.760,-0.072
0.761,-0.072
0.762,-0.078
0.763,-0.081
0.764,-0.091
0.765,-0.103
0.766,-0.102
0.767,-0.103
0.768,-0.103
0.769,-0.103
0.770,-0.105
0.771,-0.106
0.772,-0.108
0.773,-0.106
0.774,-0.109
0.775,-0.106
0.776,-0.105
0.777,-0.106
0.778,-0.111
0.779,-0.116
0.780,-0.117
0.781,-0.125
0.782,-0.125
0.783,-0.125
0.784,-0.124
0.785,-0.125
0.786,-0.118
0.787,-0.113
0.788,-0.113
0.789,-0.109
0.790,-0.106
0.791,-0.103
0.792,-0.099
0.793,-0.094
0.794,-0.098
0.795,-0.103
0.796,-0.103
0.797,-0.103
0.798,-0.100
0.799,-0.097
0.800,-0.096
0.801,-0.094
0.802,-0.091
0.803,-0.088
0.804,-0.092
0.805,-0.094
0.806,-0.092
0.807,-0.094
0.808,-0.094
0.809,-0.097
0.810,-0.095
0.811,-0.097
0.812,-0.097
0.813,-0.100
0.814,-0.100
0.815,-0.100
0.816,-0.096
0.817,-0.097
0.818,-0.097
0.819,-0.097
0.820,-0.094
0.821,-0.091
0.822,-0.088
0.823,-0.081
0.824,-0.080
0.825,-0.075
0.826,-0.073
0.827,-0.075
0.828,-0.073
0.829,-0.075
0.830,-0.071
0.831,-0.069
0.832,-0.067
0.833,-0.066
0.834,-0.066
0.835,-0.066
0.836,-0.066
0.837,-0.066
0.838,-0.064
0.839,-0.066
0.840,-0.061
0.841,-0.059
0.842,-0.053
0.843,-0.050
0.844,-0.050
0.845,-0.050
0.846,-0.053
0.847,-0.053
0.848,-0.053
0.849,-0.053
0.850,-0.054
0.851,-0.053
0.852,-0.053
0.853,-0.053
0.854,-0.050
0.855,-0.050
0.856,-0.050
0.857,-0.050
0.858,-0.047
0.859,-0.047
0.860,-0.044
0.861,-0.041
0.862,-0.036
0.863,-0.034
0.864,-0.031
0.865,-0.028
0.866,-0.027
0.867,-0.022
0.868,-0.020
0.869,-0.019
0.870,-0.017
0.871,-0.019
0.872,-0.016
0.873,-0.013
0.874,-0.011
0.875,-0.006
0.876,-0.003
0.877,-0.003
0.878,-0.003
0.879,-0.003
0.880,-0.001
0.881,-0.003
0.882,-0.003
0.883,-0.003
0.884,0.001
0.885,0.006
0.886,0.008
0.887,0.009
0.888,0.011
0.889,0.009
0.890,0.009
0.891,0.009
0.892,0.016
0.893,0.025
0.894,0.032
0.895,0.037
0.896,0.041
0.897,0.044
0.898,0.051
0.899,0.056
0.900,0.061
0.901,0.066
0.902,0.070
0.903,0.078
0.904,0.078
0.905,0.084
0.906,0.087
0.907,0.097
0.908,0.099
0.909,0.103
0.910,0.106
0.911,0.112
0.912,0.120
0.913,0.125
0.914,0.128
0.915,0.128
0.916,0.133
0.917,0.134
0.918,0.137
0.919,0.141
0.920,0.145
0.921,0.150
0.922,0.152
0.923,0.156
0.924,0.162
0.925,0.166
0.926,0.167
0.927,0.172
0.928,0.178
0.929,0.181
0.930,0.194
0.931,0.203
0.932,0.211
0.933,0.216
0.934,0.222
0.935,0.225
0.936,0.227
0.937,0.231
0.938,0.234
0.939,0.237
0.940,0.245
0.941,0.247
0.942,0.253
0.943,0.259
0.944,0.261
0.945,0.262
0.946,0.264
0.947,0.266
0.948,0.267
0.949,0.269
0.950,0.272
0.951,0.272
0.952,0.273
0.953,0.278
0.954,0.281
0.955,0.284
0.956,0.287
0.957,0.284
0.958,0.284
0.959,0.284
0.960,0.289
0.961,0.291
0.962,0.294
0.963,0.294
0.964,0.295
0.965,0.294
0.966,0.291
0.967,0.287
0.968,0.284
0.969,0.278
0.970,0.279
0.971,0.278
0.972,0.278
0.973,0.275
0.974,0.269
0.975,0.256
0.976,0.250
0.977,0.237
0.978,0.231
0.979,0.219
0.980,0.209
0.981,0.203
0.982,0.194
0.983,0.184
0.984,0.174
0.985,0.159
0.986,0.150
0.987,0.141
0.988,0.134
0.989,0.125
0.990,0.116
0.991,0.109
0.992,0.100
0.993,0.094
0.994,0.089
0.995,0.087
0.996,0.075
0.997,0.069
0.998,0.058
0.999,0.050
1.000,0.043
1.001,0.034
1.002,0.032
1.003,0.031
1.004,0.021
1.005,0.009
1.006,0.004
1.007,0.003
1.008,-0.003
1.009,-0.009
1.010,-0.013
1.011,-0.013
1.012,-0.019
1.013,-0.028
1.014,-0.029
1.015,-0.034
1.016,-0.038
1.017,-0.044
1.018,-0.043
1.019,-0.044
1.020,-0.047
1.021,-0.047
1.022,-0.048
1.023,-0.050
1.024,-0.051
1.025,-0.056
1.026,-0.058
1.027,-0.056
1.028,-0.059
1.029,-0.063
1.030,-0.064
1.031,-0.069
1.032,-0.070
1.033,-0.072
1.034,-0.072
1.035,-0.072
1.036,-0.074
1.037,-0.075
1.038,-0.075
1.039,-0.075
1.040,-0.074
1.041,-0.072
1.042,-0.078
1.043,-0.081
1.044,-0.077
1.045,-0.072
1.046,-0.069
1.047,-0.066
1.048,-0.069
1.049,-0.069
1.050,-0.070
1.051,-0.072
1.052,-0.072
1.053,-0.075
1.054,-0.072
1.055,-0.072
1.056,-0.075
1.057,-0.075
1.058,-0.075
1.059,-0.075
1.060,-0.071
1.061,-0.072
1.062,-0.073
1.063,-0.075
1.064,-0.072
1.065,-0.069
1.066,-0.069
1.067,-0.069
1.068,-0.070
1.069,-0.072
1.070,-0.073
1.071,-0.075
1.072,-0.076
1.073,-0.081
1.074,-0.084
1.075,-0.084
1.076,-0.084
1.077,-0.084
1.078,-0.083
1.079,-0.078
1.080,-0.081
1.081,-0.081
1.082,-0.083
1.083,-0.084
1.084,-0.080
1.085,-0.075
1.086,-0.076
1.087,-0.078
1.088,-0.077
1.089,-0.075
1.090,-0.075
1.091,-0.075
1.092,-0.075
1.093,-0.075
1.094,-0.072
1.095,-0.072
1.096,-0.076
1.097,-0.075
1.098,-0.073
1.099,-0.075
1.100,-0.072
1.101,-0.069
1.102,-0.069
1.103,-0.066
1.104,-0.070
1.105,-0.072
1.106,-0.072
1.107,-0.072
1.108,-0.069
1.109,-0.066
1.110,-0.067
1.111,-0.066
1.112,-0.070
1.113,-0.072
1.114,-0.071
1.115,-0.072
1.116,-0.075
1.117,-0.075
1.118,-0.075
1.119,-0.075
1.120,-0.074
1.121,-0.072
1.122,-0.072
1.123,-0.072
1.124,-0.073
1.125,-0.075
1.126,-0.074
1.127,-0.075
1.128,-0.075
1.129,-0.078
1.130,-0.078
1.131,-0.078
1.132,-0.080
1.133,-0.075
1.134,-0.074
1.135,-0.075
1.136,-0.083
1.137,-0.084
1.138,-0.083
1.139,-0.081
1.140,-0.077
1.141,-0.072
1.142,-0.072
1.143,-0.072
1.144,-0.072
1.145,-0.069
1.146,-0.071
1.147,-0.066
1.148,-0.063
1.149,-0.059
1.150,-0.061
1.151,-0.063
1.152,-0.069
1.153,-0.075
1.154,-0.078
1.155,-0.078
1.156,-0.077
1.157,-0.078
1.158,-0.078
1.159,-0.081
1.160,-0.081
1.161,-0.081
1.162,-0.080
1.163,-0.078
1.164,-0.077
1.165,-0.075
1.166,-0.074
1.167,-0.072
1.168,-0.076
1.169,-0.078
1.170,-0.079
1.171,-0.081
1.172,-0.084
1.173,-0.088
1.174,-0.089
1.175,-0.084
1.176,-0.084
1.177,-0.084
1.178,-0.084
1.179,-0.088
1.180,-0.088
1.181,-0.088
1.182,-0.086
1.183,-0.084
1.184,-0.088
1.185,-0.088
1.186,-0.086
1.187,-0.084
1.188,-0.083
1.189,-0.084
1.190,-0.083
1.191,-0.078
1.192,-0.086
1.193,-0.094
1.194,-0.095
1.195,-0.097
1.196,-0.093
1.197,-0.094
1.198,-0.093
1.199,-0.091
1.200,-0.091
1.201,-0.091
1.202,-0.091
1.203,-0.091
1.204,-0.091
1.205,-0.091
1.206,-0.091
1.207,-0.091
1.208,-0.092
1.209,-0.094
1.210,-0.094
1.211,-0.091
1.212,-0.094
1.213,-0.094
1.214,-0.099
1.215,-0.097
1.216,-0.095
1.217,-0.097
1.218,-0.095
1.219,-0.097
1.220,-0.097
1.221,-0.097
1.222,-0.098
1.223,-0.103
1.224,-0.104
1.225,-0.103
1.226,-0.105
1.227,-0.103
1.228,-0.099
1.229,-0.094
1.230,-0.097
1.231,-0.097
1.232,-0.095
1.233,-0.097
1.234,-0.098
1.235,-0.100
1.236,-0.103
1.237,-0.103
1.238,-0.105
1.239,-0.100
1.240,-0.098
1.241,-0.103
1.242,-0.103
1.243,-0.106
1.244,-0.103
1.245,-0.103
1.246,-0.102
1.247,-0.103
1.248,-0.101
1.249,-0.103
1.250,-0.106
1.251,-0.109
1.252,-0.109
1.253,-0.109
1.254,-0.109
1.255,-0.109
1.256,-0.106
1.257,-0.106
1.258,-0.108
1.259,-0.109
1.260,-0.109
1.261,-0.109
1.262,-0.106
1.263,-0.106
1.264,-0.102
1.265,-0.097
1.266,-0.098
1.267,-0.100
1.268,-0.101
1.269,-0.103
1.270,-0.102
1.271,-0.103
1.272,-0.102
1.273,-0.103
1.274,-0.104
1.275,-0.106
1.276,-0.103
1.277,-0.103
1.278,-0.105
1.279,-0.106
1.280,-0.108
1.281,-0.109
1.282,-0.111
1.283,-0.109
1.284,-0.109
1.285,-0.106
1.286,-0.103
1.287,-0.100
1.288,-0.099
1.289,-0.100
1.290,-0.101
1.291,-0.103
1.292,-0.104
1.293,-0.106
1.294,-0.106
1.295,-0.106
1.296,-0.108
1.297,-0.106
1.298,-0.106
1.299,-0.106
1.300,-0.109
1.301,-0.109
1.302,-0.109
1.303,-0.109
1.304,-0.113
1.305,-0.113
1.306,-0.109
1.307,-0.109
1.308,-0.109
1.309,-0.109
1.310,-0.111
1.311,-0.113
1.312,-0.114
1.313,-0.113
1.314,-0.113
1.315,-0.109
1.316,-0.109
1.317,-0.109
1.318,-0.111
1.319,-0.109
1.320,-0.108
1.321,-0.109
1.322,-0.109
1.323,-0.109
1.324,-0.109
1.325,-0.113
1.326,-0.105
1.327,-0.100
1.328,-0.103
1.329,-0.103
1.330,-0.106
1.331,-0.109
1.332,-0.106
1.333,-0.109
1.334,-0.109
1.335,-0.106
1.336,-0.100
1.337,-0.097
1.338,-0.095
1.339,-0.094
1.340,-0.103
1.341,-0.103
1.342,-0.103
1.343,-0.103
1.344,-0.098
1.345,-0.100
1.346,-0.103
1.347,-0.103
1.348,-0.098
1.349,-0.094
1.350,-0.092
1.351,-0.091
1.352,-0.086
1.353,-0.088
1.354,-0.084
1.355,-0.075
1.356,-0.076
1.357,-0.078
1.358,-0.075
1.359,-0.075
1.360,-0.075
1.361,-0.069
1.362,-0.064
1.363,-0.056
1.364,-0.046
1.365,-0.034
1.366,-0.025
1.367,-0.013
1.368,-0.005
1.369,0.000
1.370,0.000
1.371,0.003
1.372,0.000
1.373,0.000
1.374,0.003
1.375,0.000
1.376,0.000
1.377,0.000
1.378,0.003
1.379,0.009
1.380,0.009
1.381,0.012
1.382,0.019
1.383,0.019
1.384,0.019
1.385,0.019
1.386,0.022
1.387,0.028
1.388,0.039
1.389,0.041
1.390,0.051
1.391,0.062
1.392,0.069
1.393,0.072
1.394,0.066
1.395,0.066
1.396,0.059
1.397,0.050
1.398,0.046
1.399,0.037
1.400,0.036
1.401,0.031
1.402,0.025
1.403,0.019
1.404,0.014
1.405,0.012
1.406,0.016
1.407,0.012
1.408,0.011
1.409,0.012
1.410,0.007
1.411,0.006
1.412,0.001
1.413,-0.006
1.414,-0.008
1.415,-0.009
1.416,-0.020
1.417,-0.025
1.418,-0.024
1.419,-0.028
1.420,-0.034
1.421,-0.038
1.422,-0.041
1.423,-0.044
1.424,-0.046
1.425,-0.047
1.426,-0.055
1.427,-0.059
1.428,-0.064
1.429,-0.069
1.430,-0.068
1.431,-0.069
1.432,-0.071
1.433,-0.069
1.434,-0.074
1.435,-0.072
1.436,-0.078
1.437,-0.081
1.438,-0.081
1.439,-0.084
1.440,-0.091
1.441,-0.097
1.442,-0.103
1.443,-0.106
1.444,-0.114
1.445,-0.119
1.446,-0.123
1.447,-0.128
1.448,-0.131
1.449,-0.138
1.450,-0.138
1.451,-0.138
1.452,-0.144
1.453,-0.141
1.454,-0.144
1.455,-0.144
1.456,-0.144
1.457,-0.147
1.458,-0.148
1.459,-0.150
1.460,-0.150
1.461,-0.150
1.462,-0.146
1.463,-0.144
1.464,-0.146
1.465,-0.147
1.466,-0.147
1.467,-0.144
1.468,-0.148
1.469,-0.147
1.470,-0.150
1.471,-0.150
1.472,-0.149
1.473,-0.147
1.474,-0.148
1.475,-0.150
1.476,-0.151
1.477,-0.150
1.478,-0.151
1.479,-0.153
1.480,-0.152
1.481,-0.150
1.482,-0.153
1.483,-0.153
1.484,-0.150
1.485,-0.147
1.486,-0.150
1.487,-0.147
1.488,-0.147
1.489,-0.147
1.490,-0.147
1.491,-0.144
1.492,-0.147
1.493,-0.147
1.494,-0.148
1.495,-0.144
1.496,-0.138
1.497,-0.134
1.498,-0.133
1.499,-0.131
1.500,-0.131
1.501,-0.131
1.502,-0.134
1.503,-0.138
1.504,-0.138
1.505,-0.141
1.506,-0.147
1.507,-0.153
1.508,-0.166
1.509,-0.178
1.510,-0.187
1.511,-0.197
1.512,-0.195
1.513,-0.197
1.514,-0.197
1.515,-0.200
1.516,-0.198
1.517,-0.187
1.518,-0.164
1.519,-0.141
1.520,-0.114
1.521,-0.091
1.522,-0.066
1.523,-0.041
1.524,-0.011
1.525,0.028
1.526,0.081
1.527,0.147
1.528,0.232
1.529,0.312
1.530,0.395
1.531,0.475
1.532,0.555
1.533,0.637
1.534,0.737
1.535,0.834
1.536,0.936
1.537,1.038
1.538,1.151
1.539,1.269
1.540,1.392
1.541,1.509
1.542,1.604
1.543,1.684
1.544,1.725
1.545,1.719
1.546,1.616
1.547,1.481
1.548,1.314
1.549,1.156
1.550,1.031
1.551,0.916
1.552,0.791
1.553,0.650
1.554,0.522
1.555,0.409
1.556,0.333
1.557,0.272
1.558,0.237
1.559,0.212
1.560,0.195
1.561,0.181
1.562,0.164
1.563,0.144
1.564,0.119
1.565,0.091
1.566,0.059
1.567,0.031
1.568,0.008
1.569,-0.006
1.570,-0.017
1.571,-0.025
1.572,-0.031
1.573,-0.038
1.574,-0.043
1.575,-0.047
1.576,-0.049
1.577,-0.053
1.578,-0.057
1.579,-0.063
1.580,-0.064
1.581,-0.066
1.582,-0.069
1.583,-0.072
1.584,-0.079
1.585,-0.084
1.586,-0.086
1.587,-0.091
1.588,-0.088
1.589,-0.088
1.590,-0.091
1.591,-0.094
1.592,-0.100
1.593,-0.106
1.594,-0.108
1.595,-0.106
1.596,-0.105
1.597,-0.097
1.598,-0.097
1.599,-0.100
1.600,-0.100
1.601,-0.100
1.602,-0.097
1.603,-0.100
1.604,-0.100
1.605,-0.100
1.606,-0.099
1.607,-0.100
1.608,-0.098
1.609,-0.100
1.610,-0.101
1.611,-0.100
1.612,-0.100
1.613,-0.100
1.614,-0.100
1.615,-0.100
1.616,-0.100
1.617,-0.100
1.618,-0.100
1.619,-0.100
1.620,-0.097
1.621,-0.094
1.622,-0.094
1.623,-0.094
1.624,-0.091
1.625,-0.088
1.626,-0.086
1.627,-0.081
1.628,-0.078
1.629,-0.078
1.630,-0.079
1.631,-0.084
1.632,-0.081
1.633,-0.081
1.634,-0.079
1.635,-0.081
1.636,-0.083
1.637,-0.084
1.638,-0.080
1.639,-0.081
1.640,-0.080
1.641,-0.078
1.642,-0.079
1.643,-0.081
1.644,-0.083
1.645,-0.081
1.646,-0.080
1.647,-0.075
1.648,-0.075
1.649,-0.078
1.650,-0.075
1.651,-0.075
1.652,-0.071
1.653,-0.069
1.654,-0.067
1.655,-0.066
1.656,-0.066
1.657,-0.066
1.658,-0.064
1.659,-0.063
1.660,-0.059
1.661,-0.059
1.662,-0.055
1.663,-0.053
1.664,-0.050
1.665,-0.050
1.666,-0.051
1.667,-0.053
1.668,-0.053
1.669,-0.050
1.670,-0.050
1.671,-0.050
1.672,-0.051
1.673,-0.050
1.674,-0.048
1.675,-0.047
1.676,-0.041
1.677,-0.038
1.678,-0.038
1.679,-0.038
1.680,-0.034
1.681,-0.034
1.682,-0.036
1.683,-0.038
1.684,-0.032
1.685,-0.031
1.686,-0.031
1.687,-0.031
1.688,-0.034
1.689,-0.034
1.690,-0.030
1.691,-0.025
1.692,-0.022
1.693,-0.022
1.694,-0.019
1.695,-0.016
1.696,-0.017
1.697,-0.016
1.698,-0.009
1.699,-0.006
1.700,-0.002
1.701,0.003
1.702,0.007
1.703,0.009
1.704,0.009
1.705,0.009
1.706,0.009
1.707,0.009
1.708,0.014
1.709,0.019
1.710,0.025
1.711,0.028
1.712,0.030
1.713,0.031
1.714,0.033
1.715,0.037
1.716,0.047
1.717,0.053
1.718,0.055
1.719,0.056
1.720,0.059
1.721,0.059
1.722,0.061
1.723,0.062
1.724,0.069
1.725,0.078
1.726,0.079
1.727,0.087
1.728,0.089
1.729,0.097
1.730,0.101
1.731,0.109
1.732,0.112
1.733,0.119
1.734,0.124
1.735,0.125
1.736,0.131
1.737,0.134
1.738,0.142
1.739,0.147
1.740,0.152
1.741,0.156
1.742,0.162
1.743,0.169
1.744,0.172
1.745,0.178
1.746,0.184
1.747,0.187
1.748,0.192
1.749,0.200
1.750,0.208
1.751,0.212
1.752,0.220
1.753,0.225
1.754,0.230
1.755,0.231
1.756,0.237
1.757,0.241
1.758,0.242
1.759,0.247
1.760,0.251
1.761,0.256
1.762,0.264
1.763,0.266
1.764,0.267
1.765,0.269
1.766,0.272
1.767,0.275
1.768,0.278
1.769,0.281
1.770,0.284
1.771,0.287
1.772,0.292
1.773,0.294
1.774,0.292
1.775,0.294
1.776,0.292
1.777,0.291
1.778,0.300
1.779,0.303
1.780,0.304
1.781,0.306
1.782,0.308
1.783,0.306
1.784,0.306
1.785,0.303
1.786,0.302
1.787,0.297
1.788,0.295
1.789,0.294
1.790,0.292
1.791,0.287
1.792,0.287
1.793,0.284
1.794,0.282
1.795,0.278
1.796,0.271
1.797,0.256
1.798,0.254
1.799,0.247
1.800,0.244
1.801,0.234
1.802,0.222
1.803,0.212
1.804,0.206
1.805,0.200
1.806,0.192
1.807,0.181
1.808,0.172
1.809,0.162
1.810,0.153
1.811,0.141
1.812,0.131
1.813,0.125
1.814,0.114
1.815,0.106
1.816,0.094
1.817,0.084
1.818,0.075
1.819,0.072
1.820,0.064
1.821,0.059
1.822,0.054
1.823,0.050
1.824,0.041
1.825,0.031
1.826,0.026
1.827,0.022
1.828,0.017
1.829,0.016
1.830,0.009
1.831,0.003
1.832,-0.003
1.833,-0.006
1.834,-0.014
1.835,-0.025
1.836,-0.026
1.837,-0.031
1.838,-0.031
1.839,-0.034
1.840,-0.034
1.841,-0.038
1.842,-0.042
1.843,-0.044
1.844,-0.044
1.845,-0.044
1.846,-0.041
1.847,-0.041
1.848,-0.045
1.849,-0.047
1.850,-0.053
1.851,-0.059
1.852,-0.061
1.853,-0.066
1.854,-0.066
1.855,-0.066
1.856,-0.064
1.857,-0.063
1.858,-0.064
1.859,-0.066
1.860,-0.069
1.861,-0.072
1.862,-0.072
1.863,-0.072
1.864,-0.078
1.865,-0.081
1.866,-0.081
1.867,-0.081
1.868,-0.084
1.869,-0.088
1.870,-0.086
1.871,-0.081
1.872,-0.077
1.873,-0.072
1.874,-0.069
1.875,-0.069
1.876,-0.067
1.877,-0.069
1.878,-0.072
1.879,-0.072
1.880,-0.072
1.881,-0.072
1.882,-0.072
1.883,-0.078
1.884,-0.079
1.885,-0.081
1.886,-0.077
1.887,-0.072
1.888,-0.072
1.889,-0.072
1.890,-0.072
1.891,-0.072
1.892,-0.072
1.893,-0.072
1.894,-0.070
1.895,-0.072
1.896,-0.074
1.897,-0.072
1.898,-0.072
1.899,-0.072
1.900,-0.075
1.901,-0.075
1.902,-0.078
1.903,-0.078
1.904,-0.075
1.905,-0.072
1.906,-0.075
1.907,-0.078
1.908,-0.078
1.909,-0.078
1.910,-0.081
1.911,-0.084
1.912,-0.083
1.913,-0.081
1.914,-0.080
1.915,-0.078
1.916,-0.075
1.917,-0.075
1.918,-0.078
1.919,-0.075
1.920,-0.072
1.921,-0.072
1.922,-0.071
1.923,-0.069
1.924,-0.070
1.925,-0.069
1.926,-0.072
1.927,-0.072
1.928,-0.072
1.929,-0.072
1.930,-0.072
1.931,-0.072
1.932,-0.073
1.933,-0.072
1.934,-0.073
1.935,-0.072
1.936,-0.069
1.937,-0.069
1.938,-0.072
1.939,-0.072
1.940,-0.072
1.941,-0.072
1.942,-0.072
1.943,-0.072
1.944,-0.072
1.945,-0.072
1.946,-0.072
1.947,-0.072
1.948,-0.071
1.949,-0.072
1.950,-0.070
1.951,-0.072
1.952,-0.071
1.953,-0.069
1.954,-0.073
1.955,-0.072
1.956,-0.075
1.957,-0.081
1.958,-0.084
1.959,-0.081
1.960,-0.080
1.961,-0.078
1.962,-0.079
1.963,-0.081
1.964,-0.083
1.965,-0.084
1.966,-0.081
1.967,-0.075
1.968,-0.077
1.969,-0.072
1.970,-0.075
1.971,-0.078
1.972,-0.081
1.973,-0.084
1.974,-0.084
1.975,-0.084
1.976,-0.084
1.977,-0.081
1.978,-0.080
1.979,-0.081
1.980,-0.083
1.981,-0.088
1.982,-0.088
1.983,-0.088
1.984,-0.088
1.985,-0.088
1.986,-0.088
1.987,-0.088
1.988,-0.088
1.989,-0.088
1.990,-0.089
1.991,-0.088
1.992,-0.084
1.993,-0.081
1.994,-0.081
1.995,-0.081
1.996,-0.088
1.997,-0.088
1.998,-0.086
1.999,-0.084
2.000,-0.083
2.001,-0.084
2.002,-0.086
2.003,-0.088
2.004,-0.091
2.005,-0.094
2.006,-0.098
2.007,-0.100
2.008,-0.100
2.009,-0.100
2.010,-0.099
2.011,-0.100
2.012,-0.101
2.013,-0.100
2.014,-0.100
2.015,-0.100
2.016,-0.099
2.017,-0.097
2.018,-0.094
2.019,-0.097
2.020,-0.096
2.021,-0.094
2.022,-0.094
2.023,-0.094
2.024,-0.093
2.025,-0.091
2.026,-0.095
2.027,-0.100
2.028,-0.101
2.029,-0.103
2.030,-0.102
2.031,-0.100
2.032,-0.099
2.033,-0.094
2.034,-0.097
2.035,-0.097
2.036,-0.103
2.037,-0.103
2.038,-0.101
2.039,-0.103
2.040,-0.101
2.041,-0.103
2.042,-0.102
2.043,-0.100
2.044,-0.100
2.045,-0.103
2.046,-0.104
2.047,-0.103
2.048,-0.106
2.049,-0.106
2.050,-0.105
2.051,-0.103
2.052,-0.105
2.053,-0.103
2.054,-0.101
2.055,-0.103
2.056,-0.102
2.057,-0.100
2.058,-0.102
2.059,-0.100
2.060,-0.106
2.061,-0.106
2.062,-0.103
2.063,-0.106
2.064,-0.102
2.065,-0.100
2.066,-0.100
2.067,-0.103
2.068,-0.104
2.069,-0.109
2.070,-0.106
2.071,-0.106
2.072,-0.105
2.073,-0.103
2.074,-0.103
2.075,-0.103
2.076,-0.109
2.077,-0.116
2.078,-0.114
2.079,-0.116
2.080,-0.116
2.081,-0.116
2.082,-0.114
2.083,-0.113
2.084,-0.113
2.085,-0.116
2.086,-0.114
2.087,-0.113
2.088,-0.113
2.089,-0.113
2.090,-0.113
2.091,-0.113
2.092,-0.111
2.093,-0.113
2.094,-0.111
2.095,-0.113
2.096,-0.113
2.097,-0.113
2.098,-0.109
2.099,-0.109
2.100,-0.111
2.101,-0.113
2.102,-0.114
2.103,-0.116
2.104,-0.114
2.105,-0.109
2.106,-0.111
2.107,-0.109
2.108,-0.109
2.109,-0.109
2.110,-0.108
2.111,-0.109
2.112,-0.111
2.113,-0.113
2.114,-0.113
2.115,-0.113
2.116,-0.114
2.117,-0.116
2.118,-0.116
2.119,-0.113
2.120,-0.113
2.121,-0.113
2.122,-0.114
2.123,-0.113
2.124,-0.111
2.125,-0.109
2.126,-0.114
2.127,-0.116
2.128,-0.116
2.129,-0.119
2.130,-0.118
2.131,-0.116
2.132,-0.111
2.133,-0.113
2.134,-0.111
2.135,-0.113
2.136,-0.114
2.137,-0.116
2.138,-0.114
2.139,-0.113
2.140,-0.109
2.141,-0.113
2.142,-0.113
2.143,-0.113
2.144,-0.113
2.145,-0.113
2.146,-0.111
2.147,-0.113
2.148,-0.114
2.149,-0.113
2.150,-0.114
2.151,-0.113
2.152,-0.117
2.153,-0.119
2.154,-0.118
2.155,-0.119
2.156,-0.119
2.157,-0.116
2.158,-0.113
2.159,-0.109
2.160,-0.114
2.161,-0.116
2.162,-0.113
2.163,-0.109
2.164,-0.111
2.165,-0.109
2.166,-0.108
2.167,-0.113
2.168,-0.116
2.169,-0.122
2.170,-0.120
2.171,-0.116
2.172,-0.114
2.173,-0.109
2.174,-0.109
2.175,-0.109
2.176,-0.104
2.177,-0.103
2.178,-0.099
2.179,-0.094
2.180,-0.096
2.181,-0.094
2.182,-0.086
2.183,-0.084
2.184,-0.088
2.185,-0.084
2.186,-0.078
2.187,-0.075
2.188,-0.069
2.189,-0.066
2.190,-0.055
2.191,-0.047
2.192,-0.034
2.193,-0.025
2.194,-0.016
2.195,-0.009
2.196,-0.009
2.197,-0.006
2.198,-0.007
2.199,-0.009
2.200,-0.011
2.201,-0.009
2.202,-0.011
2.203,-0.013
2.204,-0.013
2.205,-0.013
2.206,-0.006
2.207,-0.006
2.208,-0.006
2.209,-0.003
2.210,0.001
2.211,0.006
2.212,0.007
2.213,0.009
2.214,0.017
2.215,0.031
2.216,0.031
2.217,0.037
2.218,0.045
2.219,0.050
2.220,0.053
2.221,0.050
2.222,0.050
2.223,0.050
2.224,0.044
2.225,0.041
2.226,0.034
2.227,0.031
2.228,0.024
2.229,0.016
2.230,0.011
2.231,0.006
2.232,0.007
2.233,0.009
2.234,0.006
2.235,0.006
2.236,0.007
2.237,0.003
2.238,0.000
2.239,-0.006
2.240,-0.016
2.241,-0.019
2.242,-0.025
2.243,-0.034
2.244,-0.041
2.245,-0.047
2.246,-0.047
2.247,-0.050
2.248,-0.053
2.249,-0.056
2.250,-0.059
2.251,-0.063
2.252,-0.063
2.253,-0.066
2.254,-0.069
2.255,-0.072
2.256,-0.077
2.257,-0.078
2.258,-0.078
2.259,-0.075
2.260,-0.072
2.261,-0.075
2.262,-0.078
2.263,-0.088
2.264,-0.091
2.265,-0.091
2.266,-0.093
2.267,-0.097
2.268,-0.099
2.269,-0.103
2.270,-0.109
2.271,-0.116
2.272,-0.123
2.273,-0.131
2.274,-0.133
2.275,-0.131
2.276,-0.138
2.277,-0.141
2.278,-0.145
2.279,-0.156
2.280,-0.156
2.281,-0.163
2.282,-0.164
2.283,-0.163
2.284,-0.163
2.285,-0.163
2.286,-0.159
2.287,-0.156
2.288,-0.156
2.289,-0.156
2.290,-0.156
2.291,-0.156
2.292,-0.158
2.293,-0.156
2.294,-0.153
2.295,-0.156
2.296,-0.158
2.297,-0.166
2.298,-0.166
2.299,-0.166
2.300,-0.164
2.301,-0.163
2.302,-0.161
2.303,-0.159
2.304,-0.155
2.305,-0.153
2.306,-0.153
2.307,-0.153
2.308,-0.153
2.309,-0.156
2.310,-0.156
2.311,-0.156
2.312,-0.156
2.313,-0.159
2.314,-0.158
2.315,-0.159
2.316,-0.156
2.317,-0.153
2.318,-0.150
2.319,-0.153
2.320,-0.158
2.321,-0.163
2.322,-0.159
2.323,-0.159
2.324,-0.155
2.325,-0.150
2.326,-0.150
2.327,-0.150
2.328,-0.150
2.329,-0.150
2.330,-0.150
2.331,-0.153
2.332,-0.158
2.333,-0.163
2.334,-0.170
2.335,-0.181
2.336,-0.194
2.337,-0.206
2.338,-0.214
2.339,-0.209
2.340,-0.211
2.341,-0.212
2.342,-0.216
2.343,-0.206
2.344,-0.186
2.345,-0.163
2.346,-0.139
2.347,-0.113
2.348,-0.089
2.349,-0.059
2.350,-0.031
2.351,0.000
2.352,0.041
2.353,0.094
2.354,0.153
2.355,0.231
2.356,0.309
2.357,0.391
2.358,0.467
2.359,0.550
2.360,0.634
2.361,0.734
2.362,0.833
2.363,0.938
2.364,1.044
2.365,1.156
2.366,1.275
2.367,1.397
2.368,1.514
2.369,1.603
2.370,1.686
2.371,1.716
2.372,1.694
2.373,1.597
2.374,1.461
2.375,1.306
2.376,1.161
2.377,1.044
2.378,0.933
2.379,0.809
2.380,0.672
2.381,0.541
2.382,0.419
2.383,0.341
2.384,0.274
2.385,0.231
2.386,0.208
2.387,0.187
2.388,0.169
2.389,0.144
2.390,0.120
2.391,0.094
2.392,0.062
2.393,0.037
2.394,0.020
2.395,0.006
2.396,-0.002
2.397,-0.009
2.398,-0.016
2.399,-0.022
2.400,-0.029
2.401,-0.038
2.402,-0.048
2.403,-0.056
2.404,-0.061
2.405,-0.063
2.406,-0.064
2.407,-0.066
2.408,-0.070
2.409,-0.075
2.410,-0.077
2.411,-0.078
2.412,-0.079
2.413,-0.084
2.414,-0.091
2.415,-0.091
2.416,-0.093
2.417,-0.094
2.418,-0.101
2.419,-0.109
2.420,-0.114
2.421,-0.116
2.422,-0.109
2.423,-0.109
2.424,-0.105
2.425,-0.103
2.426,-0.105
2.427,-0.103
2.428,-0.103
2.429,-0.100
2.430,-0.103
2.431,-0.103
2.432,-0.103
2.433,-0.103
2.434,-0.108
2.435,-0.106
2.436,-0.109
2.437,-0.113
2.438,-0.109
2.439,-0.109
2.440,-0.109
2.441,-0.109
2.442,-0.109
2.443,-0.109
2.444,-0.109
2.445,-0.106
2.446,-0.103
2.447,-0.103
2.448,-0.103
2.449,-0.103
2.450,-0.100
2.451,-0.094
2.452,-0.094
2.453,-0.097
2.454,-0.095
2.455,-0.094
2.456,-0.093
2.457,-0.091
2.458,-0.095
2.459,-0.094
2.460,-0.093
2.461,-0.088
2.462,-0.088
2.463,-0.088
2.464,-0.089
2.465,-0.088
2.466,-0.089
2.467,-0.088
2.468,-0.088
2.469,-0.084
2.470,-0.080
2.471,-0.078
2.472,-0.076
2.473,-0.078
2.474,-0.078
2.475,-0.078
2.476,-0.077
2.477,-0.072
2.478,-0.073
2.479,-0.072
2.480,-0.073
2.481,-0.072
2.482,-0.068
2.483,-0.066
2.484,-0.063
2.485,-0.059
2.486,-0.061
2.487,-0.059
2.488,-0.059
2.489,-0.056
2.490,-0.057
2.491,-0.056
2.492,-0.056
2.493,-0.056
2.494,-0.056
2.495,-0.056
2.496,-0.052
2.497,-0.050
2.498,-0.051
2.499,-0.053
2.500,-0.053
2.501,-0.053
2.502,-0.046
2.503,-0.038
2.504,-0.039
2.505,-0.041
2.506,-0.041
2.507,-0.038
2.508,-0.038
2.509,-0.038
2.510,-0.041
2.511,-0.038
2.512,-0.034
2.513,-0.034
2.514,-0.034
2.515,-0.034
2.516,-0.034
2.517,-0.034
2.518,-0.030
2.519,-0.025
2.520,-0.022
2.521,-0.016
2.522,-0.013
2.523,-0.013
2.524,-0.011
2.525,-0.009
2.526,-0.006
2.527,0.000
2.528,0.002
2.529,0.003
2.530,0.002
2.531,0.003
2.532,0.006
2.533,0.009
2.534,0.011
2.535,0.012
2.536,0.017
2.537,0.022
2.538,0.019
2.539,0.019
2.540,0.021
2.541,0.022
2.542,0.036
2.543,0.047
2.544,0.046
2.545,0.047
2.546,0.049
2.547,0.053
2.548,0.055
2.549,0.059
2.550,0.064
2.551,0.066
2.552,0.075
2.553,0.078
2.554,0.084
2.555,0.087
2.556,0.096
2.557,0.097
2.558,0.102
2.559,0.103
2.560,0.111
2.561,0.119
2.562,0.122
2.563,0.128
2.564,0.133
2.565,0.141
2.566,0.145
2.567,0.153
2.568,0.158
2.569,0.159
2.570,0.162
2.571,0.169
2.572,0.178
2.573,0.184
2.574,0.189
2.575,0.194
2.576,0.203
2.577,0.212
2.578,0.211
2.579,0.212
2.580,0.212
2.581,0.216
2.582,0.219
2.583,0.225
2.584,0.228
2.585,0.231
2.586,0.239
2.587,0.244
2.588,0.246
2.589,0.250
2.590,0.250
2.591,0.253
2.592,0.259
2.593,0.266
2.594,0.269
2.595,0.272
2.596,0.278
2.597,0.284
2.598,0.286
2.599,0.287
2.600,0.289
2.601,0.291
2.602,0.297
2.603,0.300
2.604,0.300
2.605,0.306
2.606,0.306
2.607,0.306
2.608,0.305
2.609,0.306
2.610,0.305
2.611,0.303
2.612,0.297
2.613,0.294
2.614,0.294
2.615,0.294
2.616,0.294
2.617,0.294
2.618,0.287
2.619,0.284
2.620,0.278
2.621,0.275
2.622,0.272
2.623,0.269
2.624,0.257
2.625,0.256
2.626,0.247
2.627,0.241
2.628,0.228
2.629,0.219
2.630,0.214
2.631,0.206
2.632,0.197
2.633,0.187
2.634,0.176
2.635,0.169
2.636,0.156
2.637,0.147
2.638,0.139
2.639,0.131
2.640,0.124
2.641,0.112
2.642,0.106
2.643,0.097
2.644,0.092
2.645,0.084
2.646,0.080
2.647,0.069
2.648,0.064
2.649,0.059
2.650,0.050
2.651,0.041
2.652,0.033
2.653,0.025
2.654,0.019
2.655,0.012
2.656,0.008
2.657,0.000
2.658,-0.006
2.659,-0.013
2.660,-0.016
2.661,-0.019
2.662,-0.024
2.663,-0.022
2.664,-0.026
2.665,-0.028
2.666,-0.028
2.667,-0.028
2.668,-0.036
2.669,-0.041
2.670,-0.041
2.671,-0.041
2.672,-0.041
2.673,-0.041
2.674,-0.045
2.675,-0.050
2.676,-0.051
2.677,-0.056
2.678,-0.058
2.679,-0.056
2.680,-0.059
2.681,-0.059
2.682,-0.061
2.683,-0.063
2.684,-0.061
2.685,-0.063
2.686,-0.067
2.687,-0.069
2.688,-0.069
2.689,-0.069
2.690,-0.069
2.691,-0.072
2.692,-0.072
2.693,-0.072
2.694,-0.073
2.695,-0.075
2.696,-0.075
2.697,-0.075
2.698,-0.071
2.699,-0.069
2.700,-0.068
2.701,-0.066
2.702,-0.070
2.703,-0.069
2.704,-0.069
2.705,-0.072
2.706,-0.073
2.707,-0.075
2.708,-0.075
2.709,-0.072
2.710,-0.075
2.711,-0.075
2.712,-0.074
2.713,-0.072
2.714,-0.072
2.715,-0.072
2.716,-0.072
2.717,-0.072
2.718,-0.073
2.719,-0.075
2.720,-0.074
2.721,-0.069
2.722,-0.068
2.723,-0.069
2.724,-0.070
2.725,-0.072
2.726,-0.073
2.727,-0.075
2.728,-0.072
2.729,-0.075
2.730,-0.075
2.731,-0.075
2.732,-0.075
2.733,-0.075
2.734,-0.075
2.735,-0.075
2.736,-0.075
2.737,-0.075
2.738,-0.075
2.739,-0.075
2.740,-0.072
2.741,-0.069
2.742,-0.072
2.743,-0.072
2.744,-0.072
2.745,-0.075
2.746,-0.072
2.747,-0.069
2.748,-0.069
2.749,-0.069
2.750,-0.070
2.751,-0.072
2.752,-0.069
2.753,-0.072
2.754,-0.072
2.755,-0.072
2.756,-0.072
2.757,-0.072
2.758,-0.073
2.759,-0.075
2.760,-0.073
2.761,-0.075
2.762,-0.069
2.763,-0.066
2.764,-0.068
2.765,-0.069
2.766,-0.068
2.767,-0.066
2.768,-0.066
2.769,-0.066
2.770,-0.067
2.771,-0.069
2.772,-0.069
2.773,-0.069
2.774,-0.064
2.775,-0.059
2.776,-0.066
2.777,-0.066
2.778,-0.067
2.779,-0.069
2.780,-0.068
2.781,-0.069
2.782,-0.066
2.783,-0.066
2.784,-0.068
2.785,-0.069
2.786,-0.067
2.787,-0.069
2.788,-0.069
2.789,-0.069
2.790,-0.069
2.791,-0.069
2.792,-0.069
2.793,-0.069
2.794,-0.066
2.795,-0.069
2.796,-0.067
2.797,-0.072
2.798,-0.075
2.799,-0.075
2.800,-0.076
2.801,-0.078
2.802,-0.078
2.803,-0.078
2.804,-0.075
2.805,-0.075
2.806,-0.079
2.807,-0.081
2.808,-0.084
2.809,-0.084
2.810,-0.084
2.811,-0.084
2.812,-0.084
2.813,-0.084
2.814,-0.084
2.815,-0.084
2.816,-0.083
2.817,-0.084
2.818,-0.084
2.819,-0.084
2.820,-0.086
2.821,-0.088
2.822,-0.086
2.823,-0.088
2.824,-0.086
2.825,-0.088
2.826,-0.088
2.827,-0.088
2.828,-0.089
2.829,-0.088
2.830,-0.088
2.831,-0.088
2.832,-0.088
2.833,-0.091
2.834,-0.091
2.835,-0.091
2.836,-0.089
2.837,-0.088
2.838,-0.091
2.839,-0.091
2.840,-0.089
2.841,-0.091
2.842,-0.089
2.843,-0.088
2.844,-0.088
2.845,-0.084
2.846,-0.086
2.847,-0.084
2.848,-0.084
2.849,-0.084
2.850,-0.086
2.851,-0.088
2.852,-0.088
2.853,-0.091
2.854,-0.095
2.855,-0.097
2.856,-0.098
2.857,-0.100
2.858,-0.100
2.859,-0.100
2.860,-0.097
2.861,-0.100
2.862,-0.097
2.863,-0.100
2.864,-0.103
2.865,-0.103
2.866,-0.103
2.867,-0.100
2.868,-0.097
2.869,-0.094
2.870,-0.094
2.871,-0.094
2.872,-0.097
2.873,-0.097
2.874,-0.095
2.875,-0.100
2.876,-0.100
2.877,-0.100
2.878,-0.099
2.879,-0.100
2.880,-0.101
2.881,-0.100
2.882,-0.101
2.883,-0.103
2.884,-0.102
2.885,-0.103
2.886,-0.103
2.887,-0.106
2.888,-0.104
2.889,-0.103
2.890,-0.108
2.891,-0.106
2.892,-0.105
2.893,-0.103
2.894,-0.103
2.895,-0.100
2.896,-0.102
2.897,-0.097
2.898,-0.096
2.899,-0.094
2.900,-0.097
2.901,-0.100
2.902,-0.101
2.903,-0.106
2.904,-0.111
2.905,-0.109
2.906,-0.109
2.907,-0.109
2.908,-0.109
2.909,-0.109
2.910,-0.108
2.911,-0.106
2.912,-0.111
2.913,-0.109
2.914,-0.106
2.915,-0.106
2.916,-0.103
2.917,-0.100
2.918,-0.099
2.919,-0.097
2.920,-0.101
2.921,-0.103
2.922,-0.106
2.923,-0.106
2.924,-0.106
2.925,-0.103
2.926,-0.102
2.927,-0.103
2.928,-0.108
2.929,-0.109
2.930,-0.109
2.931,-0.109
2.932,-0.105
2.933,-0.106
2.934,-0.109
2.935,-0.109
2.936,-0.108
2.937,-0.109
2.938,-0.113
2.939,-0.113
2.940,-0.109
2.941,-0.106
2.942,-0.105
2.943,-0.103
2.944,-0.104
2.945,-0.106
2.946,-0.106
2.947,-0.109
2.948,-0.106
2.949,-0.106
2.950,-0.108
2.951,-0.109
2.952,-0.109
2.953,-0.113
2.954,-0.114
2.955,-0.113
2.956,-0.111
2.957,-0.109
2.958,-0.108
2.959,-0.103
2.960,-0.109
2.961,-0.109
2.962,-0.105
2.963,-0.106
2.964,-0.105
2.965,-0.106
2.966,-0.104
2.967,-0.106
2.968,-0.105
2.969,-0.106
2.970,-0.108
2.971,-0.109
2.972,-0.106
2.973,-0.106
2.974,-0.109
2.975,-0.109
2.976,-0.108
2.977,-0.106
2.978,-0.111
2.979,-0.113
2.980,-0.109
2.981,-0.106
2.982,-0.108
2.983,-0.109
2.984,-0.106
2.985,-0.109
2.986,-0.109
2.987,-0.109
2.988,-0.108
2.989,-0.106
2.990,-0.104
2.991,-0.106
2.992,-0.109
2.993,-0.109
2.994,-0.113
2.995,-0.113
2.996,-0.114
2.997,-0.113
2.998,-0.111
2.999,-0.113
3.000,-0.114
3.001,-0.113
3.002,-0.111
3.003,-0.109
3.004,-0.113
3.005,-0.113
3.006,-0.106
3.007,-0.100
3.008,-0.099
3.009,-0.094
3.010,-0.092
3.011,-0.097
3.012,-0.088
3.013,-0.081
3.014,-0.077
3.015,-0.069
3.016,-0.070
3.017,-0.069
3.018,-0.064
3.019,-0.059
3.020,-0.052
3.021,-0.047
3.022,-0.045
3.023,-0.044
3.024,-0.048
3.025,-0.050
3.026,-0.044
3.027,-0.044
3.028,-0.043
3.029,-0.034
3.030,-0.028
3.031,-0.025
3.032,-0.016
3.033,-0.009
3.034,0.000
3.035,0.006
3.036,0.012
3.037,0.016
3.038,0.020
3.039,0.022
3.040,0.016
3.041,0.012
3.042,0.011
3.043,0.009
3.044,0.012
3.045,0.019
3.046,0.021
3.047,0.022
3.048,0.025
3.049,0.028
3.050,0.031
3.051,0.028
3.052,0.031
3.053,0.037
3.054,0.042
3.055,0.047
3.056,0.048
3.057,0.050
3.058,0.047
3.059,0.050
3.060,0.047
3.061,0.050
3.062,0.055
3.063,0.056
3.064,0.057
3.065,0.053
3.066,0.049
3.067,0.044
3.068,0.037
3.069,0.034
3.070,0.028
3.071,0.025
3.072,0.023
3.073,0.022
3.074,0.019
3.075,0.016
3.076,0.016
3.077,0.016
3.078,0.009
3.079,0.006
3.080,0.003
3.081,-0.006
3.082,-0.006
3.083,-0.009
3.084,-0.018
3.085,-0.019
3.086,-0.022
3.087,-0.028
3.088,-0.032
3.089,-0.038
3.090,-0.041
3.091,-0.047
3.092,-0.052
3.093,-0.056
3.094,-0.061
3.095,-0.066
3.096,-0.069
3.097,-0.075
3.098,-0.078
3.099,-0.081
3.100,-0.084
3.101,-0.084
3.102,-0.088
3.103,-0.088
3.104,-0.089
3.105,-0.097
3.106,-0.094
3.107,-0.097
3.108,-0.101
3.109,-0.103
3.110,-0.102
3.111,-0.103
3.112,-0.106
3.113,-0.113
3.114,-0.122
3.115,-0.131
3.116,-0.138
3.117,-0.144
3.118,-0.148
3.119,-0.150
3.120,-0.154
3.121,-0.156
3.122,-0.155
3.123,-0.159
3.124,-0.156
3.125,-0.159
3.126,-0.161
3.127,-0.159
3.128,-0.159
3.129,-0.159
3.130,-0.158
3.131,-0.156
3.132,-0.155
3.133,-0.153
3.134,-0.156
3.135,-0.159
3.136,-0.161
3.137,-0.159
3.138,-0.156
3.139,-0.159
3.140,-0.156
3.141,-0.159
3.142,-0.159
3.143,-0.159
3.144,-0.161
3.145,-0.163
3.146,-0.164
3.147,-0.166
3.148,-0.163
3.149,-0.163
3.150,-0.163
3.151,-0.163
3.152,-0.161
3.153,-0.163
3.154,-0.163
3.155,-0.163
3.156,-0.161
3.157,-0.163
3.158,-0.159
3.159,-0.159
3.160,-0.159
3.161,-0.159
3.162,-0.156
3.163,-0.159
3.164,-0.158
3.165,-0.156
3.166,-0.150
3.167,-0.147
3.168,-0.148
3.169,-0.150
3.170,-0.151
3.171,-0.153
3.172,-0.153
3.173,-0.153
3.174,-0.152
3.175,-0.153
3.176,-0.163
3.177,-0.172
3.178,-0.179
3.179,-0.191
3.180,-0.201
3.181,-0.212
3.182,-0.221
3.183,-0.216
3.184,-0.212
3.185,-0.209
3.186,-0.206
3.187,-0.191
3.188,-0.171
3.189,-0.147
3.190,-0.125
3.191,-0.100
3.192,-0.078
3.193,-0.050
3.194,-0.019
3.195,0.016
3.196,0.061
3.197,0.119
3.198,0.187
3.199,0.275
3.200,0.352
3.201,0.431
3.202,0.516
3.203,0.606
3.204,0.698
3.205,0.806
3.206,0.907
3.207,1.016
3.208,1.126
3.209,1.244
3.210,1.355
3.211,1.469
3.212,1.569
3.213,1.641
3.214,1.689
3.215,1.684
3.216,1.633
3.217,1.506
3.218,1.381
3.219,1.237
3.220,1.101
3.221,0.994
3.222,0.880
3.223,0.753
3.224,0.623
3.225,0.500
3.226,0.388
3.227,0.319
3.228,0.264
3.229,0.234
3.230,0.206
3.231,0.181
3.232,0.161
3.233,0.134
3.234,0.109
3.235,0.081
3.236,0.053
3.237,0.031
3.238,0.014
3.239,0.000
3.240,-0.008
3.241,-0.016
3.242,-0.022
3.243,-0.028
3.244,-0.039
3.245,-0.050
3.246,-0.057
3.247,-0.063
3.248,-0.068
3.249,-0.069
3.250,-0.071
3.251,-0.072
3.252,-0.074
3.253,-0.075
3.254,-0.079
3.255,-0.084
3.256,-0.083
3.257,-0.084
3.258,-0.092
3.259,-0.094
3.260,-0.100
3.261,-0.106
3.262,-0.106
3.263,-0.106
3.264,-0.111
3.265,-0.113
3.266,-0.108
3.267,-0.109
3.268,-0.108
3.269,-0.109
3.270,-0.113
3.271,-0.113
3.272,-0.113
3.273,-0.109
3.274,-0.111
3.275,-0.109
3.276,-0.109
3.277,-0.109
3.278,-0.114
3.279,-0.113
3.280,-0.111
3.281,-0.109
3.282,-0.108
3.283,-0.109
3.284,-0.109
3.285,-0.109
3.286,-0.108
3.287,-0.106
3.288,-0.105
3.289,-0.100
3.290,-0.098
3.291,-0.100
3.292,-0.103
3.293,-0.106
3.294,-0.108
3.295,-0.106
3.296,-0.102
3.297,-0.100
3.298,-0.096
3.299,-0.091
3.300,-0.091
3.301,-0.091
3.302,-0.094
3.303,-0.091
3.304,-0.089
3.305,-0.084
3.306,-0.084
3.307,-0.084
3.308,-0.086
3.309,-0.084
3.310,-0.088
3.311,-0.088
3.312,-0.089
3.313,-0.088
3.314,-0.086
3.315,-0.088
3.316,-0.083
3.317,-0.081
3.318,-0.079
3.319,-0.078
3.320,-0.077
3.321,-0.072
3.322,-0.073
3.323,-0.072
3.324,-0.072
3.325,-0.069
3.326,-0.067
3.327,-0.069
3.328,-0.068
3.329,-0.066
3.330,-0.067
3.331,-0.066
3.332,-0.067
3.333,-0.066
3.334,-0.063
3.335,-0.056
3.336,-0.056
3.337,-0.056
3.338,-0.056
3.339,-0.056
3.340,-0.053
3.341,-0.053
3.342,-0.050
3.343,-0.047
3.344,-0.044
3.345,-0.041
3.346,-0.042
3.347,-0.044
3.348,-0.044
3.349,-0.044
3.350,-0.044
3.351,-0.041
3.352,-0.038
3.353,-0.034
3.354,-0.038
3.355,-0.034
3.356,-0.031
3.357,-0.031
3.358,-0.028
3.359,-0.025
3.360,-0.023
3.361,-0.022
3.362,-0.020
3.363,-0.019
3.364,-0.018
3.365,-0.013
3.366,-0.011
3.367,-0.013
3.368,-0.009
3.369,-0.006
3.370,-0.007
3.371,-0.006
3.372,-0.003
3.373,0.000
3.374,0.004
3.375,0.012
3.376,0.017
3.377,0.022
3.378,0.024
3.379,0.025
3.380,0.028
3.381,0.031
3.382,0.032
3.383,0.037
3.384,0.037
3.385,0.037
3.386,0.047
3.387,0.053
3.388,0.053
3.389,0.056
3.390,0.056
3.391,0.059
3.392,0.064
3.393,0.072
3.394,0.079
3.395,0.084
3.396,0.087
3.397,0.084
3.398,0.091
3.399,0.094
3.400,0.106
3.401,0.112
3.402,0.117
3.403,0.119
3.404,0.124
3.405,0.128
3.406,0.133
3.407,0.141
3.408,0.144
3.409,0.150
3.410,0.154
3.411,0.162
3.412,0.169
3.413,0.172
3.414,0.171
3.415,0.172
3.416,0.183
3.417,0.191
3.418,0.200
3.419,0.209
3.420,0.214
3.421,0.219
3.422,0.217
3.423,0.219
3.424,0.226
3.425,0.237
3.426,0.241
3.427,0.247
3.428,0.247
3.429,0.247
3.430,0.254
3.431,0.259
3.432,0.262
3.433,0.269
3.434,0.269
3.435,0.272
3.436,0.276
3.437,0.281
3.438,0.284
3.439,0.287
3.440,0.289
3.441,0.291
3.442,0.297
3.443,0.303
3.444,0.303
3.445,0.303
3.446,0.305
3.447,0.303
3.448,0.306
3.449,0.316
3.450,0.317
3.451,0.319
3.452,0.317
3.453,0.319
3.454,0.320
3.455,0.322
3.456,0.317
3.457,0.316
3.458,0.312
3.459,0.309
3.460,0.306
3.461,0.303
3.462,0.297
3.463,0.294
3.464,0.287
3.465,0.284
3.466,0.278
3.467,0.272
3.468,0.261
3.469,0.259
3.470,0.253
3.471,0.250
3.472,0.236
3.473,0.225
3.474,0.222
3.475,0.216
3.476,0.209
3.477,0.203
3.478,0.189
3.479,0.178
3.480,0.166
3.481,0.156
3.482,0.147
3.483,0.137
3.484,0.128
3.485,0.116
3.486,0.108
3.487,0.097
3.488,0.089
3.489,0.078
3.490,0.075
3.491,0.066
3.492,0.058
3.493,0.050
3.494,0.048
3.495,0.047
3.496,0.039
3.497,0.031
3.498,0.024
3.499,0.016
3.500,0.012
3.501,0.006
3.502,-0.001
3.503,-0.009
3.504,-0.014
3.505,-0.019
3.506,-0.022
3.507,-0.019
3.508,-0.023
3.509,-0.025
3.510,-0.028
3.511,-0.031
3.512,-0.039
3.513,-0.044
3.514,-0.047
3.515,-0.050
3.516,-0.049
3.517,-0.047
3.518,-0.049
3.519,-0.050
3.520,-0.049
3.521,-0.050
3.522,-0.054
3.523,-0.056
3.524,-0.058
3.525,-0.056
3.526,-0.055
3.527,-0.053
3.528,-0.054
3.529,-0.059
3.530,-0.066
3.531,-0.069
3.532,-0.069
3.533,-0.069
3.534,-0.068
3.535,-0.069
3.536,-0.070
3.537,-0.072
3.538,-0.072
3.539,-0.072
3.540,-0.071
3.541,-0.069
3.542,-0.066
3.543,-0.066
3.544,-0.066
3.545,-0.066
3.546,-0.069
3.547,-0.066
3.548,-0.064
3.549,-0.066
3.550,-0.066
3.551,-0.066
3.552,-0.070
3.553,-0.072
3.554,-0.072
3.555,-0.069
3.556,-0.069
3.557,-0.069
3.558,-0.070
3.559,-0.072
3.560,-0.072
3.561,-0.072
3.562,-0.072
3.563,-0.072
3.564,-0.072
3.565,-0.069
3.566,-0.068
3.567,-0.069
3.568,-0.070
3.569,-0.072
3.570,-0.071
3.571,-0.069
3.572,-0.066
3.573,-0.069
3.574,-0.070
3.575,-0.072
3.576,-0.072
3.577,-0.072
3.578,-0.072
3.579,-0.072
3.580,-0.072
3.581,-0.072
3.582,-0.072
3.583,-0.072
3.584,-0.072
3.585,-0.072
3.586,-0.073
3.587,-0.072
3.588,-0.069
3.589,-0.069
3.590,-0.067
3.591,-0.066
3.592,-0.066
3.593,-0.066
3.594,-0.067
3.595,-0.069
3.596,-0.066
3.597,-0.069
3.598,-0.069
3.599,-0.069
3.600,-0.070
3.601,-0.072
3.602,-0.073
3.603,-0.075
3.604,-0.072
3.605,-0.072
3.606,-0.069
3.607,-0.069
3.608,-0.072
3.609,-0.075
3.610,-0.074
3.611,-0.072
3.612,-0.072
3.613,-0.072
3.614,-0.072
3.615,-0.072
3.616,-0.072
3.617,-0.072
3.618,-0.069
3.619,-0.066
3.620,-0.070
3.621,-0.069
3.622,-0.070
3.623,-0.072
3.624,-0.072
3.625,-0.075
3.626,-0.072
3.627,-0.072
3.628,-0.074
3.629,-0.075
3.630,-0.073
3.631,-0.075
3.632,-0.076
3.633,-0.078
3.634,-0.078
3.635,-0.078
3.636,-0.078
3.637,-0.078
3.638,-0.075
3.639,-0.078
3.640,-0.074
3.641,-0.075
3.642,-0.077
3.643,-0.075
3.644,-0.075
3.645,-0.075
3.646,-0.075
3.647,-0.075
3.648,-0.073
3.649,-0.075
3.650,-0.079
3.651,-0.081
3.652,-0.086
3.653,-0.088
3.654,-0.089
3.655,-0.091
3.656,-0.091
3.657,-0.091
3.658,-0.089
3.659,-0.088
3.660,-0.086
3.661,-0.088
3.662,-0.088
3.663,-0.088
3.664,-0.092
3.665,-0.097
3.666,-0.096
3.667,-0.097
3.668,-0.094
3.669,-0.094
3.670,-0.093
3.671,-0.091
3.672,-0.093
3.673,-0.091
3.674,-0.094
3.675,-0.097
3.676,-0.094
3.677,-0.094
3.678,-0.091
3.679,-0.088
3.680,-0.088
3.681,-0.088
3.682,-0.092
3.683,-0.094
3.684,-0.092
3.685,-0.094
3.686,-0.095
3.687,-0.097
3.688,-0.098
3.689,-0.097
3.690,-0.100
3.691,-0.100
3.692,-0.100
3.693,-0.100
3.694,-0.097
3.695,-0.094
3.696,-0.093
3.697,-0.094
3.698,-0.097
3.699,-0.097
3.700,-0.101
3.701,-0.106
3.702,-0.105
3.703,-0.103
3.704,-0.100
3.705,-0.103
3.706,-0.103
3.707,-0.109
3.708,-0.111
3.709,-0.109
3.710,-0.111
3.711,-0.109
3.712,-0.109
3.713,-0.109
3.714,-0.108
3.715,-0.106
3.716,-0.108
3.717,-0.106
3.718,-0.102
3.719,-0.103
3.720,-0.103
3.721,-0.103
3.722,-0.103
3.723,-0.106
3.724,-0.108
3.725,-0.106
3.726,-0.106
3.727,-0.106
3.728,-0.105
3.729,-0.106
3.730,-0.106
3.731,-0.109
3.732,-0.109
3.733,-0.109
3.734,-0.114
3.735,-0.113
3.736,-0.111
3.737,-0.109
3.738,-0.109
3.739,-0.106
3.740,-0.111
3.741,-0.109
3.742,-0.108
3.743,-0.106
3.744,-0.106
3.745,-0.106
3.746,-0.103
3.747,-0.103
3.748,-0.108
3.749,-0.106
3.750,-0.108
3.751,-0.109
3.752,-0.106
3.753,-0.103
3.754,-0.104
3.755,-0.106
3.756,-0.111
3.757,-0.109
3.758,-0.106
3.759,-0.106
3.760,-0.106
3.761,-0.106
3.762,-0.108
3.763,-0.109
3.764,-0.116
3.765,-0.119
3.766,-0.121
3.767,-0.119
3.768,-0.119
3.769,-0.116
3.770,-0.116
3.771,-0.119
3.772,-0.122
3.773,-0.122
3.774,-0.122
3.775,-0.122
3.776,-0.114
3.777,-0.113
3.778,-0.116
3.779,-0.116
3.780,-0.113
3.781,-0.113
3.782,-0.113
3.783,-0.109
3.784,-0.109
3.785,-0.109
3.786,-0.109
3.787,-0.109
3.788,-0.108
3.789,-0.106
3.790,-0.102
3.791,-0.100
3.792,-0.101
3.793,-0.106
3.794,-0.106
3.795,-0.106
3.796,-0.106
3.797,-0.109
3.798,-0.113
3.799,-0.113
3.800,-0.116
3.801,-0.119
3.802,-0.123
3.803,-0.125
3.804,-0.125
3.805,-0.122
3.806,-0.122
3.807,-0.122
3.808,-0.118
3.809,-0.113
3.810,-0.111
3.811,-0.106
3.812,-0.109
3.813,-0.109
3.814,-0.109
3.815,-0.109
3.816,-0.111
3.817,-0.109
3.818,-0.108
3.819,-0.109
3.820,-0.109
3.821,-0.109
3.822,-0.106
3.823,-0.106
3.824,-0.104
3.825,-0.106
3.826,-0.116
3.827,-0.122
3.828,-0.122
3.829,-0.122
3.830,-0.118
3.831,-0.119
3.832,-0.116
3.833,-0.109
3.834,-0.105
3.835,-0.103
3.836,-0.101
3.837,-0.100
3.838,-0.100
3.839,-0.091
3.840,-0.088
3.841,-0.084
3.842,-0.077
3.843,-0.075
3.844,-0.073
3.845,-0.069
3.846,-0.064
3.847,-0.059
3.848,-0.055
3.849,-0.050
3.850,-0.046
3.851,-0.047
3.852,-0.051
3.853,-0.050
3.854,-0.046
3.855,-0.041
3.856,-0.038
3.857,-0.038
3.858,-0.038
3.859,-0.031
3.860,-0.028
3.861,-0.022
3.862,-0.018
3.863,-0.013
3.864,-0.011
3.865,-0.006
3.866,-0.007
3.867,-0.013
3.868,-0.016
3.869,-0.016
3.870,-0.011
3.871,-0.003
3.872,0.005
3.873,0.006
3.874,0.011
3.875,0.016
3.876,0.018
3.877,0.022
3.878,0.025
3.879,0.031
3.880,0.039
3.881,0.041
3.882,0.039
3.883,0.037
3.884,0.037
3.885,0.041
3.886,0.050
3.887,0.050
3.888,0.057
3.889,0.066
3.890,0.064
3.891,0.059
3.892,0.053
3.893,0.053
3.894,0.054
3.895,0.053
3.896,0.052
3.897,0.047
3.898,0.046
3.899,0.041
3.900,0.039
3.901,0.037
3.902,0.037
3.903,0.041
3.904,0.039
3.905,0.031
3.906,0.029
3.907,0.031
3.908,0.028
3.909,0.028
3.910,0.022
3.911,0.012
3.912,0.009
3.913,0.006
3.914,-0.003
3.915,-0.006
3.916,-0.005
3.917,-0.009
3.918,-0.019
3.919,-0.025
3.920,-0.034
3.921,-0.044
3.922,-0.050
3.923,-0.056
3.924,-0.067
3.925,-0.075
3.926,-0.081
3.927,-0.088
3.928,-0.089
3.929,-0.094
3.930,-0.100
3.931,-0.103
3.932,-0.108
3.933,-0.106
3.934,-0.111
3.935,-0.113
3.936,-0.109
3.937,-0.109
3.938,-0.117
3.939,-0.125
3.940,-0.136
3.941,-0.144
3.942,-0.146
3.943,-0.144
3.944,-0.148
3.945,-0.153
3.946,-0.153
3.947,-0.156
3.948,-0.158
3.949,-0.159
3.950,-0.166
3.951,-0.163
3.952,-0.166
3.953,-0.166
3.954,-0.164
3.955,-0.166
3.956,-0.166
3.957,-0.166
3.958,-0.166
3.959,-0.166
3.960,-0.164
3.961,-0.166
3.962,-0.169
3.963,-0.172
3.964,-0.173
3.965,-0.172
3.966,-0.174
3.967,-0.169
3.968,-0.172
3.969,-0.172
3.970,-0.173
3.971,-0.175
3.972,-0.176
3.973,-0.178
3.974,-0.181
3.975,-0.181
3.976,-0.178
3.977,-0.175
3.978,-0.175
3.979,-0.175
3.980,-0.178
3.981,-0.178
3.982,-0.177
3.983,-0.175
3.984,-0.179
3.985,-0.178
3.986,-0.178
3.987,-0.178
3.988,-0.179
3.989,-0.178
3.990,-0.178
3.991,-0.175
3.992,-0.174
3.993,-0.166
3.994,-0.164
3.995,-0.166
3.996,-0.166
3.997,-0.166
3.998,-0.166
3.999,-0.166
4.000,-0.167
4.001,-0.169
4.002,-0.171
4.003,-0.175
4.004,-0.181
4.005,-0.187
4.006,-0.196
4.007,-0.203
4.008,-0.214
4.009,-0.225
4.010,-0.222
4.011,-0.222
4.012,-0.223
4.013,-0.228
4.014,-0.222
4.015,-0.206
4.016,-0.187
4.017,-0.169
4.018,-0.147
4.019,-0.128
4.020,-0.100
4.021,-0.072
4.022,-0.042
4.023,-0.003
4.024,0.053
4.025,0.122
4.026,0.206
4.027,0.284
4.028,0.364
4.029,0.441
4.030,0.529
4.031,0.622
4.032,0.726
4.033,0.828
4.034,0.931
4.035,1.034
4.036,1.150
4.037,1.269
4.038,1.386
4.039,1.497
4.040,1.580
4.041,1.647
4.042,1.652
4.043,1.609
4.044,1.496
4.045,1.350
4.046,1.200
4.047,1.059
4.048,0.948
4.049,0.847
4.050,0.716
4.051,0.569
4.052,0.445
4.053,0.338
4.054,0.275
4.055,0.228
4.056,0.200
4.057,0.181
4.058,0.170
4.059,0.162
4.060,0.142
4.061,0.119
4.062,0.091
4.063,0.059
4.064,0.031
4.065,0.006
4.066,-0.019
4.067,-0.034
4.068,-0.045
4.069,-0.053
4.070,-0.058
4.071,-0.063
4.072,-0.068
4.073,-0.072
4.074,-0.076
4.075,-0.084
4.076,-0.084
4.077,-0.084
4.078,-0.091
4.079,-0.097
4.080,-0.103
4.081,-0.109
4.082,-0.111
4.083,-0.109
4.084,-0.108
4.085,-0.109
4.086,-0.108
4.087,-0.109
4.088,-0.114
4.089,-0.119
4.090,-0.121
4.091,-0.122
4.092,-0.122
4.093,-0.119
4.094,-0.126
4.095,-0.128
4.096,-0.127
4.097,-0.128
4.098,-0.128
4.099,-0.128
4.100,-0.125
4.101,-0.128
4.102,-0.128
4.103,-0.128
4.104,-0.128
4.105,-0.131
4.106,-0.124
4.107,-0.119
4.108,-0.120
4.109,-0.119
4.110,-0.119
4.111,-0.119
4.112,-0.119
4.113,-0.119
4.114,-0.120
4.115,-0.122
4.116,-0.120
4.117,-0.119
4.118,-0.118
4.119,-0.116
4.120,-0.116
4.121,-0.116
4.122,-0.114
4.123,-0.113
4.124,-0.111
4.125,-0.106
4.126,-0.102
4.127,-0.100
4.128,-0.100
4.129,-0.103
4.130,-0.100
4.131,-0.100
4.132,-0.098
4.133,-0.100
4.134,-0.099
4.135,-0.097
4.136,-0.093
4.137,-0.094
4.138,-0.095
4.139,-0.097
4.140,-0.094
4.141,-0.091
4.142,-0.092
4.143,-0.091
4.144,-0.094
4.145,-0.094
4.146,-0.091
4.147,-0.091
4.148,-0.084
4.149,-0.081
4.150,-0.081
4.151,-0.084
4.152,-0.083
4.153,-0.081
4.154,-0.078
4.155,-0.075
4.156,-0.074
4.157,-0.072
4.158,-0.068
4.159,-0.066
4.160,-0.064
4.161,-0.066
4.162,-0.064
4.163,-0.066
4.164,-0.061
4.165,-0.056
4.166,-0.057
4.167,-0.056
4.168,-0.057
4.169,-0.059
4.170,-0.061
4.171,-0.059
4.172,-0.057
4.173,-0.056
4.174,-0.052
4.175,-0.050
4.176,-0.047
4.177,-0.044
4.178,-0.042
4.179,-0.044
4.180,-0.043
4.181,-0.041
4.182,-0.034
4.183,-0.031
4.184,-0.027
4.185,-0.022
4.186,-0.022
4.187,-0.019
4.188,-0.019
4.189,-0.019
4.190,-0.017
4.191,-0.019
4.192,-0.019
4.193,-0.019
4.194,-0.019
4.195,-0.016
4.196,-0.013
4.197,-0.013
4.198,-0.009
4.199,-0.006
4.200,-0.002
4.201,0.000
4.202,0.002
4.203,0.003
4.204,0.007
4.205,0.012
4.206,0.016
4.207,0.019
4.208,0.022
4.209,0.022
4.210,0.025
4.211,0.028
4.212,0.031
4.213,0.037
4.214,0.041
4.215,0.041
4.216,0.043
4.217,0.044
4.218,0.051
4.219,0.056
4.220,0.061
4.221,0.066
4.222,0.066
4.223,0.069
4.224,0.069
4.225,0.075
4.226,0.078
4.227,0.087
4.228,0.089
4.229,0.094
4.230,0.096
4.231,0.100
4.232,0.109
4.233,0.116
4.234,0.125
4.235,0.131
4.236,0.137
4.237,0.141
4.238,0.146
4.239,0.150
4.240,0.153
4.241,0.156
4.242,0.164
4.243,0.175
4.244,0.183
4.245,0.187
4.246,0.189
4.247,0.194
4.248,0.197
4.249,0.197
4.250,0.203
4.251,0.206
4.252,0.216
4.253,0.222
4.254,0.227
4.255,0.228
4.256,0.231
4.257,0.237
4.258,0.242
4.259,0.247
4.260,0.253
4.261,0.253
4.262,0.253
4.263,0.253
4.264,0.256
4.265,0.259
4.266,0.264
4.267,0.269
4.268,0.271
4.269,0.272
4.270,0.279
4.271,0.284
4.272,0.284
4.273,0.287
4.274,0.286
4.275,0.284
4.276,0.295
4.277,0.300
4.278,0.301
4.279,0.303
4.280,0.303
4.281,0.300
4.282,0.300
4.283,0.297
4.284,0.296
4.285,0.291
4.286,0.287
4.287,0.284
4.288,0.280
4.289,0.272
4.290,0.267
4.291,0.259
4.292,0.255
4.293,0.247
4.294,0.247
4.295,0.241
4.296,0.234
4.297,0.222
4.298,0.217
4.299,0.206
4.300,0.201
4.301,0.200
4.302,0.191
4.303,0.181
4.304,0.175
4.305,0.166
4.306,0.156
4.307,0.147
4.308,0.142
4.309,0.134
4.310,0.125
4.311,0.119
4.312,0.106
4.313,0.097
4.314,0.084
4.315,0.075
4.316,0.064
4.317,0.059
4.318,0.050
4.319,0.044
4.320,0.033
4.321,0.022
4.322,0.019
4.323,0.016
4.324,0.011
4.325,0.006
4.326,0.000
4.327,-0.003
4.328,-0.011
4.329,-0.019
4.330,-0.025
4.331,-0.028
4.332,-0.028
4.333,-0.031
4.334,-0.030
4.335,-0.031
4.336,-0.031
4.337,-0.034
4.338,-0.039
4.339,-0.047
4.340,-0.051
4.341,-0.053
4.342,-0.053
4.343,-0.053
4.344,-0.053
4.345,-0.056
4.346,-0.063
4.347,-0.066
4.348,-0.066
4.349,-0.066
4.350,-0.064
4.351,-0.066
4.352,-0.069
4.353,-0.072
4.354,-0.072
4.355,-0.072
4.356,-0.074
4.357,-0.075
4.358,-0.075
4.359,-0.075
4.360,-0.074
4.361,-0.072
4.362,-0.075
4.363,-0.075
4.364,-0.075
4.365,-0.075
4.366,-0.075
4.367,-0.075
4.368,-0.076
4.369,-0.075
4.370,-0.075
4.371,-0.075
4.372,-0.074
4.373,-0.075
4.374,-0.072
4.375,-0.072
4.376,-0.074
4.377,-0.072
4.378,-0.073
4.379,-0.075
4.380,-0.071
4.381,-0.072
4.382,-0.076
4.383,-0.081
4.384,-0.083
4.385,-0.084
4.386,-0.084
4.387,-0.084
4.388,-0.084
4.389,-0.084
4.390,-0.086
4.391,-0.088
4.392,-0.084
4.393,-0.084
4.394,-0.088
4.395,-0.088
4.396,-0.084
4.397,-0.081
4.398,-0.080
4.399,-0.075
4.400,-0.078
4.401,-0.078
4.402,-0.078
4.403,-0.078
4.404,-0.078
4.405,-0.078
4.406,-0.078
4.407,-0.078
4.408,-0.078
4.409,-0.078
4.410,-0.078
4.411,-0.078
4.412,-0.078
4.413,-0.078
4.414,-0.075
4.415,-0.075
4.416,-0.079
4.417,-0.078
4.418,-0.076
4.419,-0.078
4.420,-0.075
4.421,-0.072
4.422,-0.071
4.423,-0.066
4.424,-0.068
4.425,-0.066
4.426,-0.067
4.427,-0.069
4.428,-0.068
4.429,-0.066
4.430,-0.067
4.431,-0.066
4.432,-0.069
4.433,-0.069
4.434,-0.069
4.435,-0.072
4.436,-0.075
4.437,-0.075
4.438,-0.075
4.439,-0.075
4.440,-0.075
4.441,-0.075
4.442,-0.076
4.443,-0.078
4.444,-0.077
4.445,-0.075
4.446,-0.074
4.447,-0.075
4.448,-0.072
4.449,-0.072
4.450,-0.073
4.451,-0.075
4.452,-0.081
4.453,-0.081
4.454,-0.081
4.455,-0.084
4.456,-0.088
4.457,-0.084
4.458,-0.084
4.459,-0.084
4.460,-0.084
4.461,-0.084
4.462,-0.086
4.463,-0.088
4.464,-0.086
4.465,-0.081
4.466,-0.081
4.467,-0.075
4.468,-0.078
4.469,-0.081
4.470,-0.081
4.471,-0.081
4.472,-0.081
4.473,-0.081
4.474,-0.080
4.475,-0.075
4.476,-0.075
4.477,-0.078
4.478,-0.078
4.479,-0.081
4.480,-0.081
4.481,-0.081
4.482,-0.083
4.483,-0.084
4.484,-0.088
4.485,-0.091
4.486,-0.091
4.487,-0.091
4.488,-0.093
4.489,-0.091
4.490,-0.091
4.491,-0.091
4.492,-0.091
4.493,-0.091
4.494,-0.094
4.495,-0.091
4.496,-0.089
4.497,-0.088
4.498,-0.086
4.499,-0.088
4.500,-0.089
4.501,-0.091
4.502,-0.089
4.503,-0.088
4.504,-0.092
4.505,-0.094
4.506,-0.095
4.507,-0.097
4.508,-0.098
4.509,-0.103
4.510,-0.103
4.511,-0.100
4.512,-0.097
4.513,-0.094
4.514,-0.094
4.515,-0.094
4.516,-0.091
4.517,-0.094
4.518,-0.093
4.519,-0.091
4.520,-0.089
4.521,-0.088
4.522,-0.088
4.523,-0.088
4.524,-0.089
4.525,-0.091
4.526,-0.091
4.527,-0.091
4.528,-0.092
4.529,-0.094
4.530,-0.095
4.531,-0.094
4.532,-0.100
4.533,-0.103
4.534,-0.111
4.535,-0.113
4.536,-0.109
4.537,-0.109
4.538,-0.106
4.539,-0.106
4.540,-0.105
4.541,-0.103
4.542,-0.102
4.543,-0.103
4.544,-0.103
4.545,-0.100
4.546,-0.103
4.547,-0.103
4.548,-0.104
4.549,-0.106
4.550,-0.109
4.551,-0.109
4.552,-0.106
4.553,-0.106
4.554,-0.108
4.555,-0.109
4.556,-0.111
4.557,-0.109
4.558,-0.113
4.559,-0.109
4.560,-0.102
4.561,-0.100
4.562,-0.098
4.563,-0.100
4.564,-0.100
4.565,-0.103
4.566,-0.103
4.567,-0.106
4.568,-0.102
4.569,-0.100
4.570,-0.100
4.571,-0.100
4.572,-0.103
4.573,-0.106
4.574,-0.109
4.575,-0.113
4.576,-0.111
4.577,-0.113
4.578,-0.113
4.579,-0.113
4.580,-0.116
4.581,-0.119
4.582,-0.116
4.583,-0.116
4.584,-0.114
4.585,-0.113
4.586,-0.114
4.587,-0.116
4.588,-0.116
4.589,-0.116
4.590,-0.116
4.591,-0.116
4.592,-0.113
4.593,-0.109
4.594,-0.106
4.595,-0.109
4.596,-0.111
4.597,-0.113
4.598,-0.113
4.599,-0.113
4.600,-0.109
4.601,-0.109
4.602,-0.111
4.603,-0.109
4.604,-0.111
4.605,-0.109
4.606,-0.111
4.607,-0.109
4.608,-0.108
4.609,-0.109
4.610,-0.113
4.611,-0.113
4.612,-0.111
4.613,-0.109
4.614,-0.111
4.615,-0.109
4.616,-0.106
4.617,-0.103
4.618,-0.102
4.619,-0.097
4.620,-0.095
4.621,-0.100
4.622,-0.094
4.623,-0.091
4.624,-0.086
4.625,-0.078
4.626,-0.077
4.627,-0.072
4.628,-0.066
4.629,-0.059
4.630,-0.056
4.631,-0.056
4.632,-0.052
4.633,-0.047
4.634,-0.049
4.635,-0.047
4.636,-0.041
4.637,-0.041
4.638,-0.044
4.639,-0.041
4.640,-0.033
4.641,-0.028
4.642,-0.021
4.643,-0.016
4.644,-0.011
4.645,-0.009
4.646,-0.005
4.647,-0.003
4.648,-0.003
4.649,-0.006
4.650,-0.008
4.651,-0.006
4.652,-0.004
4.653,-0.003
4.654,-0.001
4.655,0.003
4.656,0.009
4.657,0.016
4.658,0.019
4.659,0.022
4.660,0.029
4.661,0.031
4.662,0.036
4.663,0.044
4.664,0.043
4.665,0.041
4.666,0.041
4.667,0.041
4.668,0.045
4.669,0.056
4.670,0.056
4.671,0.062
4.672,0.068
4.673,0.069
4.674,0.070
4.675,0.066
4.676,0.066
4.677,0.066
4.678,0.066
4.679,0.069
4.680,0.066
4.681,0.066
4.682,0.066
4.683,0.066
4.684,0.058
4.685,0.050
4.686,0.050
4.687,0.050
4.688,0.044
4.689,0.041
4.690,0.041
4.691,0.034
4.692,0.034
4.693,0.031
4.694,0.019
4.695,0.012
4.696,0.012
4.697,0.009
4.698,0.008
4.699,0.006
4.700,0.001
4.701,-0.006
4.702,-0.016
4.703,-0.025
4.704,-0.028
4.705,-0.031
4.706,-0.041
4.707,-0.053
4.708,-0.061
4.709,-0.069
4.710,-0.078
4.711,-0.084
4.712,-0.089
4.713,-0.091
4.714,-0.088
4.715,-0.091
4.716,-0.092
4.717,-0.100
4.718,-0.104
4.719,-0.106
4.720,-0.111
4.721,-0.119
4.722,-0.126
4.723,-0.138
4.724,-0.143
4.725,-0.147
4.726,-0.153
4.727,-0.159
4.728,-0.163
4.729,-0.163
4.730,-0.166
4.731,-0.166
4.732,-0.163
4.733,-0.166
4.734,-0.161
4.735,-0.163
4.736,-0.164
4.737,-0.163
4.738,-0.163
4.739,-0.163
4.740,-0.159
4.741,-0.156
4.742,-0.158
4.743,-0.159
4.744,-0.159
4.745,-0.159
4.746,-0.164
4.747,-0.166
4.748,-0.161
4.749,-0.163
4.750,-0.159
4.751,-0.163
4.752,-0.163
4.753,-0.163
4.754,-0.163
4.755,-0.163
4.756,-0.164
4.757,-0.166
4.758,-0.164
4.759,-0.166
4.760,-0.164
4.761,-0.163
4.762,-0.161
4.763,-0.163
4.764,-0.163
4.765,-0.163
4.766,-0.164
4.767,-0.169
4.768,-0.167
4.769,-0.169
4.770,-0.169
4.771,-0.169
4.772,-0.166
4.773,-0.169
4.774,-0.170
4.775,-0.172
4.776,-0.167
4.777,-0.166
4.778,-0.166
4.779,-0.166
4.780,-0.167
4.781,-0.169
4.782,-0.172
4.783,-0.175
4.784,-0.172
4.785,-0.172
4.786,-0.174
4.787,-0.175
4.788,-0.184
4.789,-0.197
4.790,-0.208
4.791,-0.219
4.792,-0.231
4.793,-0.231
4.794,-0.230
4.795,-0.228
4.796,-0.233
4.797,-0.225
4.798,-0.208
4.799,-0.187
4.800,-0.169
4.801,-0.147
4.802,-0.121
4.803,-0.088
4.804,-0.063
4.805,-0.034
4.806,-0.001
4.807,0.044
4.808,0.105
4.809,0.184
4.810,0.262
4.811,0.344
4.812,0.421
4.813,0.503
4.814,0.591
4.815,0.694
4.816,0.791
4.817,0.894
4.818,0.996
4.819,1.103
4.820,1.222
4.821,1.344
4.822,1.466
4.823,1.559
4.824,1.650
4.825,1.688
4.826,1.681
4.827,1.600
4.828,1.461
4.829,1.303
4.830,1.149
4.831,1.022
4.832,0.914
4.833,0.794
4.834,0.655
4.835,0.522
4.836,0.397
4.837,0.316
4.838,0.250
4.839,0.209
4.840,0.187
4.841,0.169
4.842,0.154
4.843,0.134
4.844,0.114
4.845,0.091
4.846,0.059
4.847,0.034
4.848,0.008
4.849,-0.016
4.850,-0.026
4.851,-0.038
4.852,-0.045
4.853,-0.053
4.854,-0.059
4.855,-0.066
4.856,-0.072
4.857,-0.075
4.858,-0.083
4.859,-0.088
4.860,-0.088
4.861,-0.088
4.862,-0.089
4.863,-0.091
4.864,-0.095
4.865,-0.100
4.866,-0.099
4.867,-0.100
4.868,-0.108
4.869,-0.109
4.870,-0.111
4.871,-0.113
4.872,-0.119
4.873,-0.125
4.874,-0.128
4.875,-0.128
4.876,-0.125
4.877,-0.128
4.878,-0.125
4.879,-0.125
4.880,-0.128
4.881,-0.128
4.882,-0.128
4.883,-0.125
4.884,-0.127
4.885,-0.125
4.886,-0.125
4.887,-0.125
4.888,-0.133
4.889,-0.134
4.890,-0.136
4.891,-0.138
4.892,-0.136
4.893,-0.138
4.894,-0.136
4.895,-0.134
4.896,-0.133
4.897,-0.131
4.898,-0.130
4.899,-0.125
4.900,-0.121
4.901,-0.119
4.902,-0.119
4.903,-0.119
4.904,-0.119
4.905,-0.116
4.906,-0.114
4.907,-0.116
4.908,-0.113
4.909,-0.109
4.910,-0.108
4.911,-0.106
4.912,-0.111
4.913,-0.109
4.914,-0.109
4.915,-0.106
4.916,-0.103
4.917,-0.100
4.918,-0.099
4.919,-0.094
4.920,-0.097
4.921,-0.097
4.922,-0.100
4.923,-0.100
4.924,-0.097
4.925,-0.097
4.926,-0.094
4.927,-0.094
4.928,-0.091
4.929,-0.088
4.930,-0.089
4.931,-0.088
4.932,-0.086
4.933,-0.081
4.934,-0.080
4.935,-0.075
4.936,-0.072
4.937,-0.072
4.938,-0.072
4.939,-0.072
4.940,-0.072
4.941,-0.069
4.942,-0.070
4.943,-0.069
4.944,-0.070
4.945,-0.069
4.946,-0.070
4.947,-0.072
4.948,-0.071
4.949,-0.069
4.950,-0.066
4.951,-0.066
4.952,-0.059
4.953,-0.053
4.954,-0.051
4.955,-0.050
4.956,-0.047
4.957,-0.044
4.958,-0.043
4.959,-0.041
4.960,-0.041
4.961,-0.038
4.962,-0.034
4.963,-0.031
4.964,-0.036
4.965,-0.034
4.966,-0.032
4.967,-0.034
4.968,-0.034
4.969,-0.034
4.970,-0.034
4.971,-0.034
4.972,-0.032
4.973,-0.031
4.974,-0.028
4.975,-0.022
4.976,-0.019
4.977,-0.019
4.978,-0.019
4.979,-0.019
4.980,-0.016
4.981,-0.009
4.982,-0.006
4.983,-0.003
4.984,-0.003
4.985,0.000
4.986,0.003
4.987,0.006
4.988,0.011
4.989,0.016
4.990,0.018
4.991,0.019
4.992,0.019
4.993,0.022
4.994,0.025
4.995,0.028
4.996,0.031
4.997,0.031
4.998,0.036
4.999,0.044
5.000,0.044
5.001,0.047
5.002,0.049
5.003,0.053
5.004,0.059
5.005,0.062
5.006,0.073
5.007,0.078
5.008,0.084
5.009,0.087
5.010,0.096
5.011,0.097
5.012,0.104
5.013,0.109
5.014,0.112
5.015,0.116
5.016,0.119
5.017,0.125
5.018,0.127
5.019,0.131
5.020,0.133
5.021,0.137
5.022,0.148
5.023,0.156
5.024,0.161
5.025,0.169
5.026,0.175
5.027,0.178
5.028,0.183
5.029,0.187
5.030,0.194
5.031,0.200
5.032,0.202
5.033,0.206
5.034,0.206
5.035,0.209
5.036,0.211
5.037,0.216
5.038,0.222
5.039,0.228
5.040,0.233
5.041,0.234
5.042,0.236
5.043,0.241
5.044,0.242
5.045,0.247
5.046,0.250
5.047,0.253
5.048,0.257
5.049,0.262
5.050,0.266
5.051,0.269
5.052,0.271
5.053,0.272
5.054,0.275
5.055,0.278
5.056,0.284
5.057,0.287
5.058,0.284
5.059,0.287
5.060,0.287
5.061,0.287
5.062,0.286
5.063,0.287
5.064,0.289
5.065,0.291
5.066,0.287
5.067,0.287
5.068,0.283
5.069,0.278
5.070,0.276
5.071,0.275
5.072,0.272
5.073,0.272
5.074,0.262
5.075,0.256
5.076,0.249
5.077,0.241
5.078,0.228
5.079,0.225
5.080,0.217
5.081,0.212
5.082,0.201
5.083,0.194
5.084,0.186
5.085,0.175
5.086,0.164
5.087,0.153
5.088,0.139
5.089,0.128
5.090,0.120
5.091,0.116
5.092,0.105
5.093,0.094
5.094,0.087
5.095,0.078
5.096,0.075
5.097,0.069
5.098,0.058
5.099,0.044
5.100,0.044
5.101,0.037
5.102,0.032
5.103,0.028
5.104,0.022
5.105,0.016
5.106,0.012
5.107,0.009
5.108,0.003
5.109,-0.003
5.110,-0.009
5.111,-0.019
5.112,-0.025
5.113,-0.031
5.114,-0.034
5.115,-0.038
5.116,-0.044
5.117,-0.044
5.118,-0.046
5.119,-0.044
5.120,-0.046
5.121,-0.047
5.122,-0.057
5.123,-0.066
5.124,-0.063
5.125,-0.059
5.126,-0.058
5.127,-0.056
5.128,-0.058
5.129,-0.059
5.130,-0.061
5.131,-0.066
5.132,-0.069
5.133,-0.069
5.134,-0.072
5.135,-0.072
5.136,-0.072
5.137,-0.072
5.138,-0.071
5.139,-0.072
5.140,-0.075
5.141,-0.075
5.142,-0.076
5.143,-0.078
5.144,-0.079
5.145,-0.084
5.146,-0.086
5.147,-0.088
5.148,-0.089
5.149,-0.091
5.150,-0.092
5.151,-0.094
5.152,-0.089
5.153,-0.088
5.154,-0.086
5.155,-0.084
5.156,-0.089
5.157,-0.088
5.158,-0.086
5.159,-0.088
5.160,-0.088
5.161,-0.088
5.162,-0.088
5.163,-0.084
5.164,-0.088
5.165,-0.088
5.166,-0.088
5.167,-0.088
5.168,-0.088
5.169,-0.088
5.170,-0.088
5.171,-0.088
5.172,-0.089
5.173,-0.091
5.174,-0.092
5.175,-0.091
5.176,-0.084
5.177,-0.081
5.178,-0.081
5.179,-0.081
5.180,-0.083
5.181,-0.084
5.182,-0.081
5.183,-0.084
5.184,-0.084
5.185,-0.084
5.186,-0.084
5.187,-0.084
5.188,-0.088
5.189,-0.091
5.190,-0.091
5.191,-0.091
5.192,-0.091
5.193,-0.091
5.194,-0.091
5.195,-0.091
5.196,-0.089
5.197,-0.084
5.198,-0.084
5.199,-0.088
5.200,-0.088
5.201,-0.088
5.202,-0.084
5.203,-0.081
5.204,-0.080
5.205,-0.078
5.206,-0.076
5.207,-0.081
5.208,-0.083
5.209,-0.084
5.210,-0.084
5.211,-0.084
5.212,-0.084
5.213,-0.084
5.214,-0.078
5.215,-0.075
5.216,-0.071
5.217,-0.069
5.218,-0.071
5.219,-0.072
5.220,-0.072
5.221,-0.072
5.222,-0.075
5.223,-0.078
5.224,-0.077
5.225,-0.075
5.226,-0.074
5.227,-0.072
5.228,-0.073
5.229,-0.075
5.230,-0.081
5.231,-0.081
5.232,-0.081
5.233,-0.081
5.234,-0.080
5.235,-0.081
5.236,-0.078
5.237,-0.078
5.238,-0.081
5.239,-0.084
5.240,-0.083
5.241,-0.084
5.242,-0.084
5.243,-0.084
5.244,-0.080
5.245,-0.075
5.246,-0.076
5.247,-0.078
5.248,-0.075
5.249,-0.078
5.250,-0.074
5.251,-0.075
5.252,-0.079
5.253,-0.081
5.254,-0.081
5.255,-0.081
5.256,-0.081
5.257,-0.081
5.258,-0.078
5.259,-0.078
5.260,-0.080
5.261,-0.078
5.262,-0.081
5.263,-0.081
5.264,-0.083
5.265,-0.084
5.266,-0.086
5.267,-0.088
5.268,-0.088
5.269,-0.088
5.270,-0.086
5.271,-0.088
5.272,-0.088
5.273,-0.088
5.274,-0.086
5.275,-0.084
5.276,-0.084
5.277,-0.088
5.278,-0.091
5.279,-0.097
5.280,-0.096
5.281,-0.094
5.282,-0.098
5.283,-0.100
5.284,-0.097
5.285,-0.094
5.286,-0.094
5.287,-0.097
5.288,-0.097
5.289,-0.097
5.290,-0.094
5.291,-0.091
5.292,-0.095
5.293,-0.097
5.294,-0.097
5.295,-0.100
5.296,-0.099
5.297,-0.097
5.298,-0.094
5.299,-0.088
5.300,-0.089
5.301,-0.088
5.302,-0.089
5.303,-0.091
5.304,-0.092
5.305,-0.094
5.306,-0.095
5.307,-0.100
5.308,-0.103
5.309,-0.103
5.310,-0.103
5.311,-0.103
5.312,-0.102
5.313,-0.100
5.314,-0.094
5.315,-0.094
5.316,-0.094
5.317,-0.100
5.318,-0.103
5.319,-0.103
5.320,-0.104
5.321,-0.103
5.322,-0.102
5.323,-0.100
5.324,-0.097
5.325,-0.094
5.326,-0.100
5.327,-0.103
5.328,-0.100
5.329,-0.103
5.330,-0.103
5.331,-0.103
5.332,-0.102
5.333,-0.103
5.334,-0.104
5.335,-0.103
5.336,-0.106
5.337,-0.109
5.338,-0.106
5.339,-0.106
5.340,-0.106
5.341,-0.109
5.342,-0.108
5.343,-0.106
5.344,-0.106
5.345,-0.100
5.346,-0.097
5.347,-0.094
5.348,-0.096
5.349,-0.094
5.350,-0.097
5.351,-0.094
5.352,-0.095
5.353,-0.097
5.354,-0.097
5.355,-0.097
5.356,-0.097
5.357,-0.100
5.358,-0.104
5.359,-0.103
5.360,-0.103
5.361,-0.103
5.362,-0.103
5.363,-0.103
5.364,-0.103
5.365,-0.103
5.366,-0.100
5.367,-0.103
5.368,-0.104
5.369,-0.106
5.370,-0.103
5.371,-0.100
5.372,-0.097
5.373,-0.097
5.374,-0.101
5.375,-0.103
5.376,-0.104
5.377,-0.103
5.378,-0.103
5.379,-0.100
5.380,-0.099
5.381,-0.100
5.382,-0.106
5.383,-0.109
5.384,-0.108
5.385,-0.106
5.386,-0.105
5.387,-0.100
5.388,-0.096
5.389,-0.091
5.390,-0.094
5.391,-0.094
5.392,-0.088
5.393,-0.088
5.394,-0.078
5.395,-0.072
5.396,-0.070
5.397,-0.066
5.398,-0.069
5.399,-0.069
5.400,-0.064
5.401,-0.059
5.402,-0.050
5.403,-0.044
5.404,-0.039
5.405,-0.034
5.406,-0.039
5.407,-0.041
5.408,-0.033
5.409,-0.031
5.410,-0.034
5.411,-0.031
5.412,-0.025
5.413,-0.022
5.414,-0.014
5.415,-0.009
5.416,-0.007
5.417,-0.009
5.418,-0.005
5.419,-0.003
5.420,0.000
5.421,0.000
5.422,-0.003
5.423,-0.003
5.424,-0.001
5.425,0.000
5.426,0.005
5.427,0.012
5.428,0.016
5.429,0.019
5.430,0.022
5.431,0.025
5.432,0.036
5.433,0.041
5.434,0.041
5.435,0.044
5.436,0.041
5.437,0.037
5.438,0.041
5.439,0.044
5.440,0.050
5.441,0.062
5.442,0.061
5.443,0.066
5.444,0.075
5.445,0.081
5.446,0.081
5.447,0.075
5.448,0.074
5.449,0.072
5.450,0.064
5.451,0.059
5.452,0.057
5.453,0.059
5.454,0.059
5.455,0.059
5.456,0.055
5.457,0.050
5.458,0.050
5.459,0.050
5.460,0.044
5.461,0.041
5.462,0.042
5.463,0.037
5.464,0.031
5.465,0.022
5.466,0.011
5.467,0.006
5.468,0.006
5.469,0.003
5.470,0.003
5.471,0.003
5.472,-0.002
5.473,-0.009
5.474,-0.014
5.475,-0.019
5.476,-0.026
5.477,-0.034
5.478,-0.042
5.479,-0.053
5.480,-0.064
5.481,-0.075
5.482,-0.080
5.483,-0.081
5.484,-0.084
5.485,-0.084
5.486,-0.083
5.487,-0.088
5.488,-0.086
5.489,-0.091
5.490,-0.097
5.491,-0.100
5.492,-0.100
5.493,-0.103
5.494,-0.109
5.495,-0.119
5.496,-0.126
5.497,-0.134
5.498,-0.139
5.499,-0.144
5.500,-0.147
5.501,-0.147
5.502,-0.153
5.503,-0.156
5.504,-0.155
5.505,-0.159
5.506,-0.156
5.507,-0.159
5.508,-0.159
5.509,-0.156
5.510,-0.156
5.511,-0.156
5.512,-0.158
5.513,-0.159
5.514,-0.159
5.515,-0.159
5.516,-0.159
5.517,-0.159
5.518,-0.163
5.519,-0.163
5.520,-0.161
5.521,-0.166
5.522,-0.163
5.523,-0.166
5.524,-0.166
5.525,-0.166
5.526,-0.166
5.527,-0.166
5.528,-0.169
5.529,-0.172
5.530,-0.170
5.531,-0.172
5.532,-0.171
5.533,-0.169
5.534,-0.169
5.535,-0.172
5.536,-0.171
5.537,-0.169
5.538,-0.168
5.539,-0.169
5.540,-0.167
5.541,-0.169
5.542,-0.170
5.543,-0.172
5.544,-0.164
5.545,-0.163
5.546,-0.161
5.547,-0.159
5.548,-0.154
5.549,-0.153
5.550,-0.154
5.551,-0.156
5.552,-0.156
5.553,-0.156
5.554,-0.158
5.555,-0.159
5.556,-0.158
5.557,-0.159
5.558,-0.164
5.559,-0.169
5.560,-0.174
5.561,-0.181
5.562,-0.187
5.563,-0.194
5.564,-0.204
5.565,-0.203
5.566,-0.204
5.567,-0.206
5.568,-0.208
5.569,-0.197
5.570,-0.178
5.571,-0.156
5.572,-0.133
5.573,-0.106
5.574,-0.084
5.575,-0.056
5.576,-0.028
5.577,0.003
5.578,0.050
5.579,0.109
5.580,0.172
5.581,0.253
5.582,0.332
5.583,0.416
5.584,0.492
5.585,0.575
5.586,0.661
5.587,0.762
5.588,0.862
5.589,0.969
5.590,1.076
5.591,1.191
5.592,1.307
5.593,1.428
5.594,1.539
5.595,1.622
5.596,1.694
5.597,1.713
5.598,1.674
5.599,1.559
5.600,1.419
5.601,1.259
5.602,1.114
5.603,0.997
5.604,0.883
5.605,0.756
5.606,0.619
5.607,0.487
5.608,0.375
5.609,0.306
5.610,0.250
5.611,0.219
5.612,0.197
5.613,0.178
5.614,0.164
5.615,0.144
5.616,0.116
5.617,0.084
5.618,0.053
5.619,0.028
5.620,0.005
5.621,-0.016
5.622,-0.026
5.623,-0.038
5.624,-0.043
5.625,-0.047
5.626,-0.053
5.627,-0.059
5.628,-0.063
5.629,-0.063
5.630,-0.068
5.631,-0.069
5.632,-0.071
5.633,-0.072
5.634,-0.072
5.635,-0.072
5.636,-0.081
5.637,-0.091
5.638,-0.088
5.639,-0.088
5.640,-0.094
5.641,-0.094
5.642,-0.098
5.643,-0.103
5.644,-0.106
5.645,-0.109
5.646,-0.113
5.647,-0.113
5.648,-0.109
5.649,-0.113
5.650,-0.116
5.651,-0.122
5.652,-0.124
5.653,-0.122
5.654,-0.123
5.655,-0.122
5.656,-0.125
5.657,-0.125
5.658,-0.124
5.659,-0.122
5.660,-0.126
5.661,-0.125
5.662,-0.121
5.663,-0.116
5.664,-0.114
5.665,-0.116
5.666,-0.116
5.667,-0.116
5.668,-0.116
5.669,-0.116
5.670,-0.117
5.671,-0.116
5.672,-0.111
5.673,-0.109
5.674,-0.109
5.675,-0.109
5.676,-0.109
5.677,-0.106
5.678,-0.103
5.679,-0.103
5.680,-0.103
5.681,-0.103
5.682,-0.103
5.683,-0.103
5.684,-0.106
5.685,-0.103
5.686,-0.099
5.687,-0.091
5.688,-0.089
5.689,-0.088
5.690,-0.089
5.691,-0.088
5.692,-0.091
5.693,-0.091
5.694,-0.092
5.695,-0.091
5.696,-0.088
5.697,-0.088
5.698,-0.086
5.699,-0.088
5.700,-0.084
5.701,-0.081
5.702,-0.078
5.703,-0.072
5.704,-0.073
5.705,-0.072
5.706,-0.073
5.707,-0.072
5.708,-0.068
5.709,-0.066
5.710,-0.066
5.711,-0.066
5.712,-0.063
5.713,-0.056
5.714,-0.059
5.715,-0.059
5.716,-0.059
5.717,-0.056
5.718,-0.056
5.719,-0.056
5.720,-0.056
5.721,-0.056
5.722,-0.054
5.723,-0.056
5.724,-0.056
5.725,-0.056
5.726,-0.052
5.727,-0.047
5.728,-0.045
5.729,-0.044
5.730,-0.044
5.731,-0.044
5.732,-0.045
5.733,-0.044
5.734,-0.039
5.735,-0.034
5.736,-0.036
5.737,-0.031
5.738,-0.028
5.739,-0.028
5.740,-0.028
5.741,-0.028
5.742,-0.025
5.743,-0.022
5.744,-0.020
5.745,-0.019
5.746,-0.020
5.747,-0.019
5.748,-0.016
5.749,-0.016
5.750,-0.014
5.751,-0.013
5.752,-0.011
5.753,-0.006
5.754,-0.004
5.755,-0.003
5.756,0.000
5.757,0.006
5.758,0.008
5.759,0.009
5.760,0.012
5.761,0.016
5.762,0.022
5.763,0.028
5.764,0.028
5.765,0.031
5.766,0.030
5.767,0.028
5.768,0.036
5.769,0.041
5.770,0.039
5.771,0.041
5.772,0.041
5.773,0.044
5.774,0.048
5.775,0.056
5.776,0.064
5.777,0.069
5.778,0.076
5.779,0.078
5.780,0.084
5.781,0.087
5.782,0.097
5.783,0.100
5.784,0.109
5.785,0.116
5.786,0.122
5.787,0.128
5.788,0.130
5.789,0.134
5.790,0.136
5.791,0.141
5.792,0.144
5.793,0.150
5.794,0.158
5.795,0.162
5.796,0.164
5.797,0.169
5.798,0.178
5.799,0.184
5.800,0.189
5.801,0.194
5.802,0.199
5.803,0.203
5.804,0.205
5.805,0.209
5.806,0.214
5.807,0.222
5.808,0.228
5.809,0.237
5.810,0.239
5.811,0.241
5.812,0.246
5.813,0.247
5.814,0.250
5.815,0.256
5.816,0.257
5.817,0.262
5.818,0.264
5.819,0.266
5.820,0.267
5.821,0.269
5.822,0.273
5.823,0.278
5.824,0.282
5.825,0.287
5.826,0.289
5.827,0.291
5.828,0.298
5.829,0.303
5.830,0.300
5.831,0.303
5.832,0.303
5.833,0.303
5.834,0.302
5.835,0.303
5.836,0.303
5.837,0.303
5.838,0.299
5.839,0.297
5.840,0.295
5.841,0.294
5.842,0.289
5.843,0.284
5.844,0.275
5.845,0.269
5.846,0.259
5.847,0.253
5.848,0.247
5.849,0.241
5.850,0.228
5.851,0.225
5.852,0.217
5.853,0.212
5.854,0.199
5.855,0.187
5.856,0.181
5.857,0.172
5.858,0.162
5.859,0.153
5.860,0.142
5.861,0.134
5.862,0.125
5.863,0.119
5.864,0.111
5.865,0.103
5.866,0.096
5.867,0.084
5.868,0.079
5.869,0.072
5.870,0.066
5.871,0.056
5.872,0.053
5.873,0.044
5.874,0.039
5.875,0.034
5.876,0.025
5.877,0.016
5.878,0.012
5.879,0.009
5.880,0.007
5.881,0.006
5.882,0.002
5.883,-0.006
5.884,-0.013
5.885,-0.019
5.886,-0.022
5.887,-0.025
5.888,-0.030
5.889,-0.028
5.890,-0.034
5.891,-0.038
5.892,-0.044
5.893,-0.050
5.894,-0.055
5.895,-0.056
5.896,-0.056
5.897,-0.056
5.898,-0.056
5.899,-0.056
5.900,-0.058
5.901,-0.059
5.902,-0.058
5.903,-0.059
5.904,-0.061
5.905,-0.059
5.906,-0.064
5.907,-0.066
5.908,-0.067
5.909,-0.069
5.910,-0.068
5.911,-0.069
5.912,-0.072
5.913,-0.072
5.914,-0.072
5.915,-0.072
5.916,-0.071
5.917,-0.072
5.918,-0.073
5.919,-0.075
5.920,-0.074
5.921,-0.072
5.922,-0.072
5.923,-0.072
5.924,-0.070
5.925,-0.072
5.926,-0.072
5.927,-0.072
5.928,-0.075
5.929,-0.072
5.930,-0.071
5.931,-0.072
5.932,-0.072
5.933,-0.072
5.934,-0.073
5.935,-0.072
5.936,-0.074
5.937,-0.072
5.938,-0.072
5.939,-0.072
5.940,-0.072
5.941,-0.072
5.942,-0.075
5.943,-0.078
5.944,-0.077
5.945,-0.075
5.946,-0.075
5.947,-0.072
5.948,-0.073
5.949,-0.078
5.950,-0.079
5.951,-0.081
5.952,-0.078
5.953,-0.075
5.954,-0.071
5.955,-0.072
5.956,-0.072
5.957,-0.072
5.958,-0.073
5.959,-0.075
5.960,-0.074
5.961,-0.072
5.962,-0.072
5.963,-0.072
5.964,-0.075
5.965,-0.078
5.966,-0.079
5.967,-0.081
5.968,-0.083
5.969,-0.081
5.970,-0.077
5.971,-0.075
5.972,-0.073
5.973,-0.072
5.974,-0.073
5.975,-0.075
5.976,-0.075
5.977,-0.075
5.978,-0.072
5.979,-0.075
5.980,-0.072
5.981,-0.069
5.982,-0.070
5.983,-0.072
5.984,-0.073
5.985,-0.075
5.986,-0.072
5.987,-0.072
5.988,-0.069
5.989,-0.069
5.990,-0.071
5.991,-0.072
5.992,-0.076
5.993,-0.081
5.994,-0.078
5.995,-0.075
5.996,-0.074
5.997,-0.072
5.998,-0.072
5.999,-0.072
6.000,-0.072
6.001,-0.072
6.002,-0.075
6.003,-0.072
6.004,-0.072
6.005,-0.072
6.006,-0.072
6.007,-0.075
6.008,-0.072
6.009,-0.072
6.010,-0.074
6.011,-0.075
6.012,-0.072
6.013,-0.072
6.014,-0.073
6.015,-0.075
6.016,-0.078
6.017,-0.081
6.018,-0.083
6.019,-0.084
6.020,-0.081
6.021,-0.084
6.022,-0.081
6.023,-0.084
6.024,-0.086
6.025,-0.084
6.026,-0.084
6.027,-0.084
6.028,-0.083
6.029,-0.081
6.030,-0.077
6.031,-0.075
6.032,-0.077
6.033,-0.075
6.034,-0.079
6.035,-0.081
6.036,-0.081
6.037,-0.081
6.038,-0.084
6.039,-0.088
6.040,-0.088
6.041,-0.088
6.042,-0.088
6.043,-0.091
6.044,-0.091
6.045,-0.091
6.046,-0.091
6.047,-0.091
6.048,-0.089
6.049,-0.091
6.050,-0.081
6.051,-0.075
6.052,-0.075
6.053,-0.075
6.054,-0.081
6.055,-0.084
6.056,-0.086
6.057,-0.088
6.058,-0.086
6.059,-0.088
6.060,-0.088
6.061,-0.088
6.062,-0.088
6.063,-0.088
6.064,-0.091
6.065,-0.091
6.066,-0.089
6.067,-0.091
6.068,-0.091
6.069,-0.091
6.070,-0.092
6.071,-0.091
6.072,-0.094
6.073,-0.094
6.074,-0.094
6.075,-0.094
6.076,-0.094
6.077,-0.094
6.078,-0.091
6.079,-0.091
6.080,-0.095
6.081,-0.097
6.082,-0.098
6.083,-0.100
6.084,-0.100
6.085,-0.100
6.086,-0.097
6.087,-0.100
6.088,-0.100
6.089,-0.106
6.090,-0.108
6.091,-0.106
6.092,-0.106
6.093,-0.103
6.094,-0.103
6.095,-0.103
6.096,-0.103
6.097,-0.103
6.098,-0.103
6.099,-0.100
6.100,-0.097
6.101,-0.100
6.102,-0.101
6.103,-0.103
6.104,-0.103
6.105,-0.106
6.106,-0.108
6.107,-0.106
6.108,-0.105
6.109,-0.103
6.110,-0.102
6.111,-0.103
6.112,-0.103
6.113,-0.106
6.114,-0.104
6.115,-0.103
6.116,-0.108
6.117,-0.106
6.118,-0.105
6.119,-0.103
6.120,-0.105
6.121,-0.103
6.122,-0.108
6.123,-0.106
6.124,-0.106
6.125,-0.106
6.126,-0.106
6.127,-0.106
6.128,-0.103
6.129,-0.103
6.130,-0.106
6.131,-0.103
6.132,-0.104
6.133,-0.106
6.134,-0.105
6.135,-0.103
6.136,-0.103
6.137,-0.103
6.138,-0.108
6.139,-0.106
6.140,-0.103
6.141,-0.103
6.142,-0.103
6.143,-0.103
6.144,-0.104
6.145,-0.106
6.146,-0.109
6.147,-0.109
6.148,-0.111
6.149,-0.109
6.150,-0.111
6.151,-0.109
6.152,-0.108
6.153,-0.109
6.154,-0.111
6.155,-0.109
6.156,-0.109
6.157,-0.109
6.158,-0.106
6.159,-0.109
6.160,-0.113
6.161,-0.113
6.162,-0.109
6.163,-0.109
6.164,-0.111
6.165,-0.109
6.166,-0.109
6.167,-0.109
6.168,-0.109
6.169,-0.109
6.170,-0.111
6.171,-0.113
6.172,-0.109
6.173,-0.109
6.174,-0.108
6.175,-0.109
6.176,-0.109
6.177,-0.109
6.178,-0.108
6.179,-0.109
6.180,-0.111
6.181,-0.109
6.182,-0.109
6.183,-0.109
6.184,-0.111
6.185,-0.109
6.186,-0.114
6.187,-0.113
6.188,-0.109
6.189,-0.113
6.190,-0.111
6.191,-0.113
6.192,-0.109
6.193,-0.109
6.194,-0.109
6.195,-0.109
6.196,-0.109
6.197,-0.109
6.198,-0.111
6.199,-0.113
6.200,-0.109
6.201,-0.113
6.202,-0.113
6.203,-0.113
6.204,-0.113
6.205,-0.113
6.206,-0.109
6.207,-0.109
6.208,-0.116
6.209,-0.119
6.210,-0.118
6.211,-0.113
6.212,-0.113
6.213,-0.109
6.214,-0.108
6.215,-0.109
6.216,-0.111
6.217,-0.109
6.218,-0.106
6.219,-0.103
6.220,-0.100
6.221,-0.094
6.222,-0.092
6.223,-0.091
6.224,-0.092
6.225,-0.091
6.226,-0.088
6.227,-0.091
6.228,-0.084
6.229,-0.081
6.230,-0.072
6.231,-0.059
6.232,-0.061
6.233,-0.059
6.234,-0.056
6.235,-0.053
6.236,-0.046
6.237,-0.041
6.238,-0.039
6.239,-0.038
6.240,-0.038
6.241,-0.034
6.242,-0.028
6.243,-0.028
6.244,-0.028
6.245,-0.022
6.246,-0.014
6.247,-0.009
6.248,-0.007
6.249,-0.009
6.250,-0.007
6.251,-0.009
6.252,-0.006
6.253,-0.006
6.254,0.000
6.255,0.003
6.256,0.000
6.257,0.000
6.258,0.000
6.259,0.000
6.260,0.006
6.261,0.016
6.262,0.020
6.263,0.025
6.264,0.029
6.265,0.034
6.266,0.041
6.267,0.041
6.268,0.043
6.269,0.047
6.270,0.053
6.271,0.059
6.272,0.058
6.273,0.056
6.274,0.052
6.275,0.053
6.276,0.053
6.277,0.059
6.278,0.062
6.279,0.062
6.280,0.066
6.281,0.062
6.282,0.062
6.283,0.062
6.284,0.061
6.285,0.062
6.286,0.061
6.287,0.062
6.288,0.058
6.289,0.053
6.290,0.050
6.291,0.047
6.292,0.047
6.293,0.047
6.294,0.041
6.295,0.037
6.296,0.037
6.297,0.031
6.298,0.028
6.299,0.022
6.300,0.014
6.301,0.012
6.302,0.011
6.303,0.006
6.304,0.003
6.305,0.000
6.306,-0.009
6.307,-0.022
6.308,-0.027
6.309,-0.031
6.310,-0.036
6.311,-0.041
6.312,-0.048
6.313,-0.059
6.314,-0.066
6.315,-0.072
6.316,-0.077
6.317,-0.078
6.318,-0.081
6.319,-0.081
6.320,-0.081
6.321,-0.088
6.322,-0.091
6.323,-0.100
6.324,-0.103
6.325,-0.103
6.326,-0.106
6.327,-0.113
6.328,-0.118
6.329,-0.125
6.330,-0.133
6.331,-0.141
6.332,-0.141
6.333,-0.141
6.334,-0.144
6.335,-0.144
6.336,-0.148
6.337,-0.150
6.338,-0.150
6.339,-0.156
6.340,-0.154
6.341,-0.159
6.342,-0.159
6.343,-0.156
6.344,-0.153
6.345,-0.150
6.346,-0.150
6.347,-0.150
6.348,-0.149
6.349,-0.147
6.350,-0.149
6.351,-0.150
6.352,-0.156
6.353,-0.159
6.354,-0.159
6.355,-0.166
6.356,-0.163
6.357,-0.166
6.358,-0.166
6.359,-0.166
6.360,-0.166
6.361,-0.166
6.362,-0.166
6.363,-0.166
6.364,-0.164
6.365,-0.166
6.366,-0.166
6.367,-0.166
6.368,-0.166
6.369,-0.169
6.370,-0.169
6.371,-0.169
6.372,-0.169
6.373,-0.172
6.374,-0.168
6.375,-0.166
6.376,-0.167
6.377,-0.169
6.378,-0.166
6.379,-0.169
6.380,-0.168
6.381,-0.166
6.382,-0.163
6.383,-0.163
6.384,-0.163
6.385,-0.163
6.386,-0.163
6.387,-0.163
6.388,-0.161
6.389,-0.159
6.390,-0.156
6.391,-0.156
6.392,-0.163
6.393,-0.169
6.394,-0.178
6.395,-0.191
6.396,-0.200
6.397,-0.209
6.398,-0.218
6.399,-0.212
6.400,-0.211
6.401,-0.209
6.402,-0.211
6.403,-0.200
6.404,-0.180
6.405,-0.156
6.406,-0.131
6.407,-0.103
6.408,-0.081
6.409,-0.053
6.410,-0.021
6.411,0.016
6.412,0.061
6.413,0.119
6.414,0.186
6.415,0.272
6.416,0.351
6.417,0.434
6.418,0.514
6.419,0.600
6.420,0.686
6.421,0.787
6.422,0.891
6.423,1.000
6.424,1.111
6.425,1.228
6.426,1.339
6.427,1.453
6.428,1.559
6.429,1.638
6.430,1.694
6.431,1.697
6.432,1.650
6.433,1.528
6.434,1.400
6.435,1.253
6.436,1.112
6.437,1.000
6.438,0.883
6.439,0.753
6.440,0.622
6.441,0.497
6.442,0.386
6.443,0.319
6.444,0.264
6.445,0.234
6.446,0.206
6.447,0.181
6.448,0.155
6.449,0.122
6.450,0.096
6.451,0.066
6.452,0.036
6.453,0.012
6.454,-0.003
6.455,-0.016
6.456,-0.022
6.457,-0.028
6.458,-0.030
6.459,-0.031
6.460,-0.039
6.461,-0.047
6.462,-0.053
6.463,-0.056
6.464,-0.061
6.465,-0.063
6.466,-0.067
6.467,-0.072
6.468,-0.076
6.469,-0.081
6.470,-0.084
6.471,-0.088
6.472,-0.091
6.473,-0.097
6.474,-0.102
6.475,-0.100
6.476,-0.103
6.477,-0.106
6.478,-0.108
6.479,-0.109
6.480,-0.113
6.481,-0.113
6.482,-0.109
6.483,-0.113
6.484,-0.109
6.485,-0.109
6.486,-0.113
6.487,-0.113
6.488,-0.113
6.489,-0.109
6.490,-0.113
6.491,-0.113
6.492,-0.113
6.493,-0.113
6.494,-0.117
6.495,-0.116
6.496,-0.119
6.497,-0.122
6.498,-0.116
6.499,-0.113
6.500,-0.111
6.501,-0.109
6.502,-0.109
6.503,-0.109
6.504,-0.109
6.505,-0.106
6.506,-0.104
6.507,-0.106
6.508,-0.108
6.509,-0.109
6.510,-0.106
6.511,-0.100
6.512,-0.100
6.513,-0.103
6.514,-0.100
6.515,-0.097
6.516,-0.097
6.517,-0.097
6.518,-0.099
6.519,-0.094
6.520,-0.097
6.521,-0.097
6.522,-0.097
6.523,-0.097
6.524,-0.098
6.525,-0.097
6.526,-0.094
6.527,-0.088
6.528,-0.086
6.529,-0.081
6.530,-0.077
6.531,-0.075
6.532,-0.073
6.533,-0.075
6.534,-0.073
6.535,-0.072
6.536,-0.073
6.537,-0.072
6.538,-0.073
6.539,-0.072
6.540,-0.073
6.541,-0.072
6.542,-0.069
6.543,-0.069
6.544,-0.069
6.545,-0.069
6.546,-0.069
6.547,-0.066
6.548,-0.067
6.549,-0.066
6.550,-0.067
6.551,-0.066
6.552,-0.064
6.553,-0.063
6.554,-0.059
6.555,-0.056
6.556,-0.054
6.557,-0.056
6.558,-0.055
6.559,-0.053
6.560,-0.050
6.561,-0.047
6.562,-0.043
6.563,-0.038
6.564,-0.036
6.565,-0.034
6.566,-0.033
6.567,-0.028
6.568,-0.029
6.569,-0.031
6.570,-0.036
6.571,-0.034
6.572,-0.030
6.573,-0.028
6.574,-0.027
6.575,-0.025
6.576,-0.022
6.577,-0.019
6.578,-0.016
6.579,-0.013
6.580,-0.011
6.581,-0.006
6.582,-0.003
6.583,-0.003
6.584,-0.001
6.585,0.000
6.586,0.001
6.587,0.006
6.588,0.008
6.589,0.009
6.590,0.011
6.591,0.016
6.592,0.018
6.593,0.019
6.594,0.022
6.595,0.025
6.596,0.025
6.597,0.025
6.598,0.025
6.599,0.028
6.600,0.034
6.601,0.041
6.602,0.048
6.603,0.053
6.604,0.054
6.605,0.059
6.606,0.061
6.607,0.066
6.608,0.069
6.609,0.075
6.610,0.086
6.611,0.094
6.612,0.099
6.613,0.097
6.614,0.102
6.615,0.103
6.616,0.112
6.617,0.116
6.618,0.123
6.619,0.128
6.620,0.133
6.621,0.137
6.622,0.141
6.623,0.147
6.624,0.153
6.625,0.162
6.626,0.164
6.627,0.169
6.628,0.174
6.629,0.175
6.630,0.177
6.631,0.181
6.632,0.192
6.633,0.200
6.634,0.206
6.635,0.212
6.636,0.220
6.637,0.228
6.638,0.230
6.639,0.234
6.640,0.237
6.641,0.244
6.642,0.247
6.643,0.253
6.644,0.255
6.645,0.256
6.646,0.259
6.647,0.259
6.648,0.262
6.649,0.269
6.650,0.272
6.651,0.278
6.652,0.282
6.653,0.287
6.654,0.292
6.655,0.297
6.656,0.300
6.657,0.303
6.658,0.306
6.659,0.309
6.660,0.312
6.661,0.316
6.662,0.320
6.663,0.322
6.664,0.317
6.665,0.319
6.666,0.317
6.667,0.316
6.668,0.317
6.669,0.322
6.670,0.321
6.671,0.319
6.672,0.316
6.673,0.316
6.674,0.314
6.675,0.312
6.676,0.311
6.677,0.309
6.678,0.300
6.679,0.294
6.680,0.286
6.681,0.281
6.682,0.276
6.683,0.272
6.684,0.261
6.685,0.259
6.686,0.250
6.687,0.244
6.688,0.230
6.689,0.219
6.690,0.209
6.691,0.197
6.692,0.189
6.693,0.181
6.694,0.167
6.695,0.156
6.696,0.146
6.697,0.137
6.698,0.131
6.699,0.125
6.700,0.119
6.701,0.109
6.702,0.104
6.703,0.097
6.704,0.089
6.705,0.078
6.706,0.075
6.707,0.066
6.708,0.061
6.709,0.056
6.710,0.049
6.711,0.041
6.712,0.033
6.713,0.025
6.714,0.018
6.715,0.009
6.716,0.009
6.717,0.006
6.718,0.000
6.719,-0.006
6.720,-0.011
6.721,-0.016
6.722,-0.022
6.723,-0.022
6.724,-0.025
6.725,-0.025
6.726,-0.025
6.727,-0.025
6.728,-0.034
6.729,-0.041
6.730,-0.044
6.731,-0.047
6.732,-0.044
6.733,-0.041
6.734,-0.043
6.735,-0.044
6.736,-0.047
6.737,-0.053
6.738,-0.057
6.739,-0.059
6.740,-0.064
6.741,-0.066
6.742,-0.066
6.743,-0.066
6.744,-0.064
6.745,-0.066
6.746,-0.069
6.747,-0.069
6.748,-0.069
6.749,-0.069
6.750,-0.066
6.751,-0.066
6.752,-0.066
6.753,-0.066
6.754,-0.066
6.755,-0.066
6.756,-0.066
6.757,-0.066
6.758,-0.064
6.759,-0.066
6.760,-0.066
6.761,-0.066
6.762,-0.069
6.763,-0.066
6.764,-0.064
6.765,-0.066
6.766,-0.067
6.767,-0.069
6.768,-0.070
6.769,-0.069
6.770,-0.072
6.771,-0.072
6.772,-0.072
6.773,-0.072
6.774,-0.069
6.775,-0.066
6.776,-0.066
6.777,-0.066
6.778,-0.066
6.779,-0.066
6.780,-0.064
6.781,-0.059
6.782,-0.059
6.783,-0.063
6.784,-0.064
6.785,-0.066
6.786,-0.067
6.787,-0.069
6.788,-0.066
6.789,-0.069
6.790,-0.068
6.791,-0.066
6.792,-0.067
6.793,-0.069
6.794,-0.069
6.795,-0.069
6.796,-0.069
6.797,-0.069
6.798,-0.064
6.799,-0.059
6.800,-0.059
6.801,-0.059
6.802,-0.061
6.803,-0.059
6.804,-0.053
6.805,-0.050
6.806,-0.050
6.807,-0.050
6.808,-0.054
6.809,-0.059
6.810,-0.061
6.811,-0.063
6.812,-0.059
6.813,-0.063
6.814,-0.063
6.815,-0.063
6.816,-0.063
6.817,-0.063
6.818,-0.059
6.819,-0.056
6.820,-0.054
6.821,-0.056
6.822,-0.054
6.823,-0.056
6.824,-0.058
6.825,-0.059
6.826,-0.059
6.827,-0.059
6.828,-0.058
6.829,-0.056
6.830,-0.053
6.831,-0.050
6.832,-0.050
6.833,-0.050
6.834,-0.053
6.835,-0.056
6.836,-0.059
6.837,-0.056
6.838,-0.056
6.839,-0.056
6.840,-0.056
6.841,-0.059
6.842,-0.057
6.843,-0.059
6.844,-0.061
6.845,-0.063
6.846,-0.061
6.847,-0.063
6.848,-0.064
6.849,-0.066
6.850,-0.066
6.851,-0.066
6.852,-0.066
6.853,-0.066
6.854,-0.059
6.855,-0.059
6.856,-0.057
6.857,-0.063
6.858,-0.066
6.859,-0.066
6.860,-0.066
6.861,-0.066
6.862,-0.067
6.863,-0.069
6.864,-0.066
6.865,-0.066
6.866,-0.070
6.867,-0.072
6.868,-0.075
6.869,-0.075
6.870,-0.072
6.871,-0.069
6.872,-0.069
6.873,-0.069
6.874,-0.070
6.875,-0.072
6.876,-0.071
6.877,-0.072
6.878,-0.072
6.879,-0.072
6.880,-0.072
6.881,-0.072
6.882,-0.071
6.883,-0.072
6.884,-0.070
6.885,-0.072
6.886,-0.072
6.887,-0.072
6.888,-0.075
6.889,-0.075
6.890,-0.075
6.891,-0.075
6.892,-0.074
6.893,-0.075
6.894,-0.075
6.895,-0.075
6.896,-0.074
6.897,-0.072
6.898,-0.075
6.899,-0.075
6.900,-0.073
6.901,-0.075
6.902,-0.075
6.903,-0.075
6.904,-0.075
6.905,-0.072
6.906,-0.075
6.907,-0.075
6.908,-0.078
6.909,-0.081
6.910,-0.083
6.911,-0.084
6.912,-0.081
6.913,-0.081
6.914,-0.086
6.915,-0.088
6.916,-0.088
6.917,-0.088
6.918,-0.088
6.919,-0.088
6.920,-0.084
6.921,-0.088
6.922,-0.084
6.923,-0.088
6.924,-0.089
6.925,-0.088
6.926,-0.086
6.927,-0.081
6.928,-0.084
6.929,-0.088
6.930,-0.088
6.931,-0.088
6.932,-0.091
6.933,-0.091
6.934,-0.088
6.935,-0.091
6.936,-0.095
6.937,-0.100
6.938,-0.100
6.939,-0.103
6.940,-0.104
6.941,-0.103
6.942,-0.099
6.943,-0.094
6.944,-0.094
6.945,-0.097
6.946,-0.096
6.947,-0.097
6.948,-0.095
6.949,-0.094
6.950,-0.097
6.951,-0.094
6.952,-0.094
6.953,-0.094
6.954,-0.100
6.955,-0.103
6.956,-0.106
6.957,-0.103
6.958,-0.100
6.959,-0.097
6.960,-0.097
6.961,-0.097
6.962,-0.098
6.963,-0.103
6.964,-0.106
6.965,-0.103
6.966,-0.103
6.967,-0.103
6.968,-0.103
6.969,-0.103
6.970,-0.102
6.971,-0.100
6.972,-0.104
6.973,-0.103
6.974,-0.096
6.975,-0.091
6.976,-0.091
6.977,-0.091
6.978,-0.092
6.979,-0.094
6.980,-0.097
6.981,-0.097
6.982,-0.097
6.983,-0.094
6.984,-0.095
6.985,-0.094
6.986,-0.093
6.987,-0.094
6.988,-0.096
6.989,-0.094
6.990,-0.095
6.991,-0.097
6.992,-0.093
6.993,-0.094
6.994,-0.095
6.995,-0.094
6.996,-0.091
6.997,-0.091
6.998,-0.093
6.999,-0.091
7.000,-0.091
7.001,-0.091
7.002,-0.091
7.003,-0.091
7.004,-0.092
7.005,-0.094
7.006,-0.092
7.007,-0.094
7.008,-0.093
7.009,-0.094
7.010,-0.094
7.011,-0.094
7.012,-0.093
7.013,-0.094
7.014,-0.095
7.015,-0.094
7.016,-0.094
7.017,-0.094
7.018,-0.094
7.019,-0.091
7.020,-0.094
7.021,-0.091
7.022,-0.086
7.023,-0.088
7.024,-0.088
7.025,-0.091
7.026,-0.088
7.027,-0.088
7.028,-0.086
7.029,-0.088
7.030,-0.089
7.031,-0.091
7.032,-0.089
7.033,-0.091
7.034,-0.094
7.035,-0.094
7.036,-0.097
7.037,-0.100
7.038,-0.103
7.039,-0.103
7.040,-0.101
7.041,-0.103
7.042,-0.102
7.043,-0.100
7.044,-0.104
7.045,-0.106
7.046,-0.104
7.047,-0.103
7.048,-0.099
7.049,-0.094
7.050,-0.091
7.051,-0.091
7.052,-0.092
7.053,-0.094
7.054,-0.095
7.055,-0.097
7.056,-0.100
7.057,-0.106
7.058,-0.104
7.059,-0.106
7.060,-0.104
7.061,-0.106
7.062,-0.106
7.063,-0.106
7.064,-0.108
7.065,-0.103
7.066,-0.100
7.067,-0.103
7.068,-0.104
7.069,-0.103
7.070,-0.100
7.071,-0.097
7.072,-0.097
7.073,-0.094
7.074,-0.097
7.075,-0.097
7.076,-0.097
7.077,-0.097
7.078,-0.098
7.079,-0.100
7.080,-0.097
7.081,-0.100
7.082,-0.100
7.083,-0.100
7.084,-0.101
7.085,-0.103
7.086,-0.099
7.087,-0.097
7.088,-0.099
7.089,-0.097
7.090,-0.101
7.091,-0.103
7.092,-0.104
7.093,-0.103
7.094,-0.100
7.095,-0.100
7.096,-0.099
7.097,-0.094
7.098,-0.092
7.099,-0.091
7.100,-0.093
7.101,-0.091
7.102,-0.086
7.103,-0.081
7.104,-0.080
7.105,-0.075
7.106,-0.073
7.107,-0.078
7.108,-0.073
7.109,-0.072
7.110,-0.069
7.111,-0.063
7.112,-0.061
7.113,-0.056
7.114,-0.053
7.115,-0.050
7.116,-0.044
7.117,-0.041
7.118,-0.039
7.119,-0.038
7.120,-0.038
7.121,-0.034
7.122,-0.028
7.123,-0.028
7.124,-0.028
7.125,-0.022
7.126,-0.019
7.127,-0.019
7.128,-0.014
7.129,-0.013
7.130,-0.003
7.131,0.003
7.132,0.002
7.133,-0.003
7.134,-0.001
7.135,-0.003
7.136,-0.003
7.137,0.000
7.138,0.003
7.139,0.006
7.140,0.012
7.141,0.022
7.142,0.026
7.143,0.031
7.144,0.037
7.145,0.044
7.146,0.049
7.147,0.047
7.148,0.049
7.149,0.053
7.150,0.054
7.151,0.056
7.152,0.059
7.153,0.062
7.154,0.061
7.155,0.066
7.156,0.062
7.157,0.066
7.158,0.069
7.159,0.069
7.160,0.072
7.161,0.069
7.162,0.070
7.163,0.072
7.164,0.069
7.165,0.069
7.166,0.064
7.167,0.062
7.168,0.062
7.169,0.062
7.170,0.061
7.171,0.059
7.172,0.056
7.173,0.053
7.174,0.046
7.175,0.041
7.176,0.039
7.177,0.031
7.178,0.029
7.179,0.025
7.180,0.017
7.181,0.016
7.182,0.014
7.183,0.009
7.184,0.008
7.185,0.006
7.186,-0.001
7.187,-0.013
7.188,-0.019
7.189,-0.025
7.190,-0.030
7.191,-0.034
7.192,-0.041
7.193,-0.050
7.194,-0.055
7.195,-0.059
7.196,-0.064
7.197,-0.066
7.198,-0.073
7.199,-0.078
7.200,-0.079
7.201,-0.088
7.202,-0.086
7.203,-0.091
7.204,-0.095
7.205,-0.097
7.206,-0.103
7.207,-0.113
7.208,-0.116
7.209,-0.122
7.210,-0.127
7.211,-0.131
7.212,-0.138
7.213,-0.144
7.214,-0.147
7.215,-0.147
7.216,-0.149
7.217,-0.147
7.218,-0.144
7.219,-0.147
7.220,-0.144
7.221,-0.147
7.222,-0.148
7.223,-0.147
7.224,-0.150
7.225,-0.153
7.226,-0.154
7.227,-0.156
7.228,-0.153
7.229,-0.150
7.230,-0.152
7.231,-0.153
7.232,-0.161
7.233,-0.166
7.234,-0.163
7.235,-0.166
7.236,-0.163
7.237,-0.166
7.238,-0.164
7.239,-0.163
7.240,-0.163
7.241,-0.163
7.242,-0.156
7.243,-0.150
7.244,-0.148
7.245,-0.150
7.246,-0.150
7.247,-0.150
7.248,-0.150
7.249,-0.153
7.250,-0.156
7.251,-0.159
7.252,-0.158
7.253,-0.159
7.254,-0.156
7.255,-0.156
7.256,-0.156
7.257,-0.156
7.258,-0.152
7.259,-0.153
7.260,-0.156
7.261,-0.159
7.262,-0.156
7.263,-0.156
7.264,-0.156
7.265,-0.156
7.266,-0.156
7.267,-0.156
7.268,-0.158
7.269,-0.159
7.270,-0.161
7.271,-0.166
7.272,-0.173
7.273,-0.181
7.274,-0.189
7.275,-0.200
7.276,-0.208
7.277,-0.216
7.278,-0.225
7.279,-0.222
7.280,-0.221
7.281,-0.219
7.282,-0.216
7.283,-0.200
7.284,-0.180
7.285,-0.156
7.286,-0.133
7.287,-0.106
7.288,-0.084
7.289,-0.056
7.290,-0.027
7.291,0.006
7.292,0.054
7.293,0.116
7.294,0.177
7.295,0.256
7.296,0.333
7.297,0.413
7.298,0.498
7.299,0.591
7.300,0.682
7.301,0.791
7.302,0.887
7.303,0.991
7.304,1.103
7.305,1.222
7.306,1.334
7.307,1.450
7.308,1.555
7.309,1.631
7.310,1.672
7.311,1.659
7.312,1.597
7.313,1.459
7.314,1.333
7.315,1.187
7.316,1.048
7.317,0.938
7.318,0.817
7.319,0.684
7.320,0.561
7.321,0.444
7.322,0.339
7.323,0.278
7.324,0.229
7.325,0.206
7.326,0.184
7.327,0.166
7.328,0.144
7.329,0.116
7.330,0.092
7.331,0.066
7.332,0.036
7.333,0.012
7.334,-0.005
7.335,-0.019
7.336,-0.025
7.337,-0.031
7.338,-0.038
7.339,-0.044
7.340,-0.050
7.341,-0.056
7.342,-0.063
7.343,-0.066
7.344,-0.071
7.345,-0.072
7.346,-0.078
7.347,-0.084
7.348,-0.086
7.349,-0.088
7.350,-0.095
7.351,-0.103
7.352,-0.103
7.353,-0.106
7.354,-0.109
7.355,-0.106
7.356,-0.108
7.357,-0.109
7.358,-0.109
7.359,-0.109
7.360,-0.113
7.361,-0.113
7.362,-0.109
7.363,-0.113
7.364,-0.109
7.365,-0.109
7.366,-0.116
7.367,-0.119
7.368,-0.122
7.369,-0.122
7.370,-0.125
7.371,-0.125
7.372,-0.124
7.373,-0.122
7.374,-0.126
7.375,-0.125
7.376,-0.125
7.377,-0.125
7.378,-0.121
7.379,-0.119
7.380,-0.118
7.381,-0.116
7.382,-0.122
7.383,-0.128
7.384,-0.129
7.385,-0.128
7.386,-0.119
7.387,-0.113
7.388,-0.111
7.389,-0.109
7.390,-0.109
7.391,-0.106
7.392,-0.103
7.393,-0.103
7.394,-0.103
7.395,-0.103
7.396,-0.102
7.397,-0.100
7.398,-0.100
7.399,-0.094
7.400,-0.100
7.401,-0.103
7.402,-0.103
7.403,-0.103
7.404,-0.103
7.405,-0.100
7.406,-0.102
7.407,-0.100
7.408,-0.100
7.409,-0.097
7.410,-0.095
7.411,-0.097
7.412,-0.089
7.413,-0.084
7.414,-0.083
7.415,-0.081
7.416,-0.084
7.417,-0.084
7.418,-0.084
7.419,-0.081
7.420,-0.077
7.421,-0.069
7.422,-0.067
7.423,-0.069
7.424,-0.069
7.425,-0.069
7.426,-0.070
7.427,-0.069
7.428,-0.072
7.429,-0.072
7.430,-0.069
7.431,-0.063
7.432,-0.063
7.433,-0.063
7.434,-0.064
7.435,-0.066
7.436,-0.059
7.437,-0.056
7.438,-0.057
7.439,-0.059
7.440,-0.057
7.441,-0.056
7.442,-0.053
7.443,-0.050
7.444,-0.049
7.445,-0.047
7.446,-0.048
7.447,-0.047
7.448,-0.048
7.449,-0.050
7.450,-0.054
7.451,-0.053
7.452,-0.044
7.453,-0.038
7.454,-0.038
7.455,-0.038
7.456,-0.036
7.457,-0.034
7.458,-0.028
7.459,-0.022
7.460,-0.018
7.461,-0.009
7.462,-0.007
7.463,-0.009
7.464,-0.005
7.465,0.000
7.466,-0.001
7.467,0.000
7.468,0.000
7.469,0.000
7.470,-0.001
7.471,0.000
7.472,0.003
7.473,0.006
7.474,0.011
7.475,0.016
7.476,0.020
7.477,0.025
7.478,0.024
7.479,0.025
7.480,0.029
7.481,0.034
7.482,0.039
7.483,0.041
7.484,0.042
7.485,0.047
7.486,0.050
7.487,0.056
7.488,0.059
7.489,0.066
7.490,0.072
7.491,0.075
7.492,0.080
7.493,0.078
7.494,0.081
7.495,0.081
7.496,0.094
7.497,0.100
7.498,0.109
7.499,0.116
7.500,0.119
7.501,0.122
7.502,0.125
7.503,0.131
7.504,0.134
7.505,0.141
7.506,0.144
7.507,0.150
7.508,0.156
7.509,0.159
7.510,0.162
7.511,0.169
7.512,0.175
7.513,0.178
7.514,0.178
7.515,0.178
7.516,0.186
7.517,0.194
7.518,0.201
7.519,0.212
7.520,0.212
7.521,0.216
7.522,0.217
7.523,0.222
7.524,0.226
7.525,0.231
7.526,0.239
7.527,0.244
7.528,0.246
7.529,0.250
7.530,0.253
7.531,0.259
7.532,0.262
7.533,0.266
7.534,0.269
7.535,0.272
7.536,0.276
7.537,0.281
7.538,0.281
7.539,0.281
7.540,0.280
7.541,0.278
7.542,0.282
7.543,0.284
7.544,0.280
7.545,0.281
7.546,0.280
7.547,0.278
7.548,0.281
7.549,0.287
7.550,0.291
7.551,0.294
7.552,0.291
7.553,0.291
7.554,0.291
7.555,0.291
7.556,0.291
7.557,0.291
7.558,0.289
7.559,0.291
7.560,0.281
7.561,0.275
7.562,0.262
7.563,0.250
7.564,0.239
7.565,0.237
7.566,0.229
7.567,0.225
7.568,0.211
7.569,0.200
7.570,0.189
7.571,0.175
7.572,0.167
7.573,0.159
7.574,0.147
7.575,0.137
7.576,0.128
7.577,0.122
7.578,0.112
7.579,0.103
7.580,0.097
7.581,0.087
7.582,0.083
7.583,0.075
7.584,0.072
7.585,0.066
7.586,0.061
7.587,0.050
7.588,0.045
7.589,0.041
7.590,0.037
7.591,0.034
7.592,0.028
7.593,0.022
7.594,0.014
7.595,0.006
7.596,0.003
7.597,-0.003
7.598,-0.011
7.599,-0.019
7.600,-0.022
7.601,-0.025
7.602,-0.036
7.603,-0.041
7.604,-0.044
7.605,-0.044
7.606,-0.044
7.607,-0.044
7.608,-0.049
7.609,-0.050
7.610,-0.051
7.611,-0.053
7.612,-0.052
7.613,-0.050
7.614,-0.054
7.615,-0.059
7.616,-0.058
7.617,-0.059
7.618,-0.064
7.619,-0.066
7.620,-0.070
7.621,-0.072
7.622,-0.072
7.623,-0.072
7.624,-0.071
7.625,-0.072
7.626,-0.075
7.627,-0.075
7.628,-0.078
7.629,-0.081
7.630,-0.080
7.631,-0.081
7.632,-0.080
7.633,-0.078
7.634,-0.079
7.635,-0.081
7.636,-0.083
7.637,-0.084
7.638,-0.083
7.639,-0.084
7.640,-0.081
7.641,-0.078
7.642,-0.083
7.643,-0.081
7.644,-0.080
7.645,-0.081
7.646,-0.081
7.647,-0.081
7.648,-0.080
7.649,-0.075
7.650,-0.079
7.651,-0.081
7.652,-0.083
7.653,-0.084
7.654,-0.083
7.655,-0.081
7.656,-0.077
7.657,-0.072
7.658,-0.072
7.659,-0.072
7.660,-0.076
7.661,-0.078
7.662,-0.075
7.663,-0.075
7.664,-0.075
7.665,-0.075
7.666,-0.079
7.667,-0.084
7.668,-0.081
7.669,-0.084
7.670,-0.084
7.671,-0.084
7.672,-0.084
7.673,-0.084
7.674,-0.084
7.675,-0.084
7.676,-0.084
7.677,-0.084
7.678,-0.084
7.679,-0.084
7.680,-0.083
7.681,-0.081
7.682,-0.080
7.683,-0.075
7.684,-0.075
7.685,-0.078
7.686,-0.076
7.687,-0.075
7.688,-0.075
7.689,-0.075
7.690,-0.076
7.691,-0.078
7.692,-0.076
7.693,-0.081
7.694,-0.083
7.695,-0.084
7.696,-0.080
7.697,-0.075
7.698,-0.074
7.699,-0.072
7.700,-0.069
7.701,-0.069
7.702,-0.066
7.703,-0.066
7.704,-0.066
7.705,-0.066
7.706,-0.069
7.707,-0.072
7.708,-0.073
7.709,-0.075
7.710,-0.078
7.711,-0.081
7.712,-0.081
7.713,-0.081
7.714,-0.081
7.715,-0.081
7.716,-0.086
7.717,-0.084
7.718,-0.083
7.719,-0.081
7.720,-0.078
7.721,-0.078
7.722,-0.075
7.723,-0.075
7.724,-0.077
7.725,-0.078
7.726,-0.074
7.727,-0.072
7.728,-0.071
7.729,-0.069
7.730,-0.072
7.731,-0.075
7.732,-0.076
7.733,-0.078
7.734,-0.078
7.735,-0.084
7.736,-0.077
7.737,-0.075
7.738,-0.078
7.739,-0.078
7.740,-0.081
7.741,-0.084
7.742,-0.083
7.743,-0.081
7.744,-0.078
7.745,-0.078
7.746,-0.083
7.747,-0.084
7.748,-0.086
7.749,-0.084
7.750,-0.086
7.751,-0.088
7.752,-0.088
7.753,-0.088
7.754,-0.084
7.755,-0.081
7.756,-0.083
7.757,-0.088
7.758,-0.089
7.759,-0.091
7.760,-0.091
7.761,-0.091
7.762,-0.091
7.763,-0.094
7.764,-0.095
7.765,-0.100
7.766,-0.099
7.767,-0.097
7.768,-0.100
7.769,-0.100
7.770,-0.099
7.771,-0.097
7.772,-0.098
7.773,-0.103
7.774,-0.103
7.775,-0.103
7.776,-0.102
7.777,-0.100
7.778,-0.100
7.779,-0.097
7.780,-0.094
7.781,-0.094
7.782,-0.093
7.783,-0.091
7.784,-0.092
7.785,-0.091
7.786,-0.093
7.787,-0.091
7.788,-0.094
7.789,-0.097
7.790,-0.100
7.791,-0.103
7.792,-0.102
7.793,-0.103
7.794,-0.102
7.795,-0.097
7.796,-0.096
7.797,-0.094
7.798,-0.095
7.799,-0.097
7.800,-0.097
7.801,-0.103
7.802,-0.099
7.803,-0.100
7.804,-0.103
7.805,-0.103
7.806,-0.106
7.807,-0.106
7.808,-0.106
7.809,-0.106
7.810,-0.105
7.811,-0.103
7.812,-0.106
7.813,-0.106
7.814,-0.103
7.815,-0.106
7.816,-0.108
7.817,-0.109
7.818,-0.108
7.819,-0.109
7.820,-0.106
7.821,-0.100
7.822,-0.100
7.823,-0.100
7.824,-0.097
7.825,-0.097
7.826,-0.094
7.827,-0.094
7.828,-0.094
7.829,-0.094
7.830,-0.101
7.831,-0.103
7.832,-0.104
7.833,-0.106
7.834,-0.108
7.835,-0.106
7.836,-0.111
7.837,-0.109
7.838,-0.113
7.839,-0.116
7.840,-0.114
7.841,-0.113
7.842,-0.109
7.843,-0.109
7.844,-0.114
7.845,-0.113
7.846,-0.109
7.847,-0.106
7.848,-0.106
7.849,-0.106
7.850,-0.106
7.851,-0.106
7.852,-0.111
7.853,-0.109
7.854,-0.106
7.855,-0.106
7.856,-0.105
7.857,-0.103
7.858,-0.099
7.859,-0.094
7.860,-0.098
7.861,-0.100
7.862,-0.103
7.863,-0.103
7.864,-0.106
7.865,-0.106
7.866,-0.105
7.867,-0.106
7.868,-0.109
7.869,-0.109
7.870,-0.111
7.871,-0.113
7.872,-0.109
7.873,-0.113
7.874,-0.113
7.875,-0.109
7.876,-0.106
7.877,-0.106
7.878,-0.109
7.879,-0.109
7.880,-0.108
7.881,-0.106
7.882,-0.106
7.883,-0.106
7.884,-0.106
7.885,-0.106
7.886,-0.103
7.887,-0.103
7.888,-0.103
7.889,-0.106
7.890,-0.108
7.891,-0.109
7.892,-0.108
7.893,-0.109
7.894,-0.109
7.895,-0.106
7.896,-0.106
7.897,-0.106
7.898,-0.103
7.899,-0.097
7.900,-0.101
7.901,-0.100
7.902,-0.100
7.903,-0.106
7.904,-0.106
7.905,-0.109
7.906,-0.106
7.907,-0.106
7.908,-0.105
7.909,-0.106
7.910,-0.108
7.911,-0.109
7.912,-0.106
7.913,-0.106
7.914,-0.108
7.915,-0.106
7.916,-0.106
7.917,-0.106
7.918,-0.109
7.919,-0.109
7.920,-0.106
7.921,-0.106
7.922,-0.106
7.923,-0.106
7.924,-0.108
7.925,-0.109
7.926,-0.108
7.927,-0.103
7.928,-0.105
7.929,-0.103
7.930,-0.103
7.931,-0.103
7.932,-0.104
7.933,-0.103
7.934,-0.104
7.935,-0.109
7.936,-0.109
7.937,-0.109
7.938,-0.108
7.939,-0.109
7.940,-0.106
7.941,-0.106
7.942,-0.108
7.943,-0.106
7.944,-0.100
7.945,-0.094
7.946,-0.089
7.947,-0.091
7.948,-0.092
7.949,-0.091
7.950,-0.089
7.951,-0.091
7.952,-0.091
7.953,-0.091
7.954,-0.094
7.955,-0.088
7.956,-0.088
7.957,-0.088
7.958,-0.081
7.959,-0.081
7.960,-0.075
7.961,-0.066
7.962,-0.059
7.963,-0.053
7.964,-0.051
7.965,-0.050
7.966,-0.043
7.967,-0.041
7.968,-0.044
7.969,-0.041
7.970,-0.041
7.971,-0.041
7.972,-0.036
7.973,-0.034
7.974,-0.033
7.975,-0.025
7.976,-0.021
7.977,-0.013
7.978,-0.008
7.979,-0.003
7.980,-0.004
7.981,-0.003
7.982,-0.003
7.983,-0.006
7.984,-0.007
7.985,-0.006
7.986,-0.003
7.987,0.003
7.988,0.014
7.989,0.019
7.990,0.022
7.991,0.025
7.992,0.028
7.993,0.034
7.994,0.036
7.995,0.041
7.996,0.046
7.997,0.044
7.998,0.041
7.999,0.037
8.000,0.034
8.001,0.034
8.002,0.047
8.003,0.050
8.004,0.055
8.005,0.059
8.006,0.064
8.007,0.066
8.008,0.061
8.009,0.062
8.010,0.064
8.011,0.062
8.012,0.062
8.013,0.059
8.014,0.062
8.015,0.062
8.016,0.061
8.017,0.059
8.018,0.056
8.019,0.056
8.020,0.062
8.021,0.062
8.022,0.056
8.023,0.053
8.024,0.048
8.025,0.047
8.026,0.042
8.027,0.034
8.028,0.025
8.029,0.016
8.030,0.008
8.031,0.006
8.032,0.006
8.033,0.000
8.034,-0.006
8.035,-0.009
8.036,-0.014
8.037,-0.019
8.038,-0.024
8.039,-0.028
8.040,-0.042
8.041,-0.053
8.042,-0.061
8.043,-0.069
8.044,-0.073
8.045,-0.081
8.046,-0.083
8.047,-0.081
8.048,-0.088
8.049,-0.088
8.050,-0.094
8.051,-0.097
8.052,-0.098
8.053,-0.103
8.054,-0.109
8.055,-0.116
8.056,-0.128
8.057,-0.138
8.058,-0.143
8.059,-0.144
8.060,-0.146
8.061,-0.147
8.062,-0.144
8.063,-0.144
8.064,-0.141
8.065,-0.138
8.066,-0.144
8.067,-0.141
8.068,-0.147
8.069,-0.150
8.070,-0.147
8.071,-0.147
8.072,-0.147
8.073,-0.147
8.074,-0.147
8.075,-0.147
8.076,-0.147
8.077,-0.150
8.078,-0.153
8.079,-0.156
8.080,-0.161
8.081,-0.163
8.082,-0.166
8.083,-0.163
8.084,-0.163
8.085,-0.159
8.086,-0.159
8.087,-0.159
8.088,-0.159
8.089,-0.159
8.090,-0.161
8.091,-0.159
8.092,-0.155
8.093,-0.150
8.094,-0.150
8.095,-0.150
8.096,-0.154
8.097,-0.156
8.098,-0.155
8.099,-0.153
8.100,-0.158
8.101,-0.156
8.102,-0.156
8.103,-0.156
8.104,-0.156
8.105,-0.153
8.106,-0.156
8.107,-0.156
8.108,-0.155
8.109,-0.147
8.110,-0.145
8.111,-0.147
8.112,-0.146
8.113,-0.144
8.114,-0.143
8.115,-0.141
8.116,-0.141
8.117,-0.141
8.118,-0.148
8.119,-0.159
8.120,-0.167
8.121,-0.175
8.122,-0.183
8.123,-0.191
8.124,-0.199
8.125,-0.206
8.126,-0.208
8.127,-0.212
8.128,-0.214
8.129,-0.219
8.130,-0.206
8.131,-0.184
8.132,-0.158
8.133,-0.131
8.134,-0.106
8.135,-0.084
8.136,-0.057
8.137,-0.031
8.138,-0.001
8.139,0.037
8.140,0.089
8.141,0.153
8.142,0.234
8.143,0.309
8.144,0.389
8.145,0.466
8.146,0.549
8.147,0.634
8.148,0.736
8.149,0.834
8.150,0.938
8.151,1.041
8.152,1.153
8.153,1.269
8.154,1.392
8.155,1.509
8.156,1.600
8.157,1.675
8.158,1.701
8.159,1.681
8.160,1.571
8.161,1.428
8.162,1.266
8.163,1.112
8.164,0.995
8.165,0.887
8.166,0.767
8.167,0.631
8.168,0.501
8.169,0.388
8.170,0.314
8.171,0.256
8.172,0.228
8.173,0.209
8.174,0.192
8.175,0.178
8.176,0.155
8.177,0.128
8.178,0.100
8.179,0.069
8.180,0.045
8.181,0.025
8.182,0.007
8.183,0.000
8.184,-0.009
8.185,-0.016
8.186,-0.023
8.187,-0.031
8.188,-0.039
8.189,-0.047
8.190,-0.049
8.191,-0.053
8.192,-0.061
8.193,-0.069
8.194,-0.071
8.195,-0.072
8.196,-0.071
8.197,-0.069
8.198,-0.075
8.199,-0.078
8.200,-0.081
8.201,-0.088
8.202,-0.088
8.203,-0.091
8.204,-0.095
8.205,-0.100
8.206,-0.102
8.207,-0.103
8.208,-0.106
8.209,-0.106
8.210,-0.111
8.211,-0.109
8.212,-0.108
8.213,-0.109
8.214,-0.108
8.215,-0.106
8.216,-0.102
8.217,-0.103
8.218,-0.104
8.219,-0.106
8.220,-0.105
8.221,-0.106
8.222,-0.103
8.223,-0.103
8.224,-0.104
8.225,-0.103
8.226,-0.104
8.227,-0.106
8.228,-0.106
8.229,-0.106
8.230,-0.106
8.231,-0.106
8.232,-0.104
8.233,-0.103
8.234,-0.102
8.235,-0.100
8.236,-0.099
8.237,-0.097
8.238,-0.095
8.239,-0.094
8.240,-0.094
8.241,-0.091
8.242,-0.088
8.243,-0.088
8.244,-0.084
8.245,-0.084
8.246,-0.080
8.247,-0.078
8.248,-0.076
8.249,-0.078
8.250,-0.078
8.251,-0.078
8.252,-0.076
8.253,-0.081
8.254,-0.080
8.255,-0.078
8.256,-0.076
8.257,-0.075
8.258,-0.078
8.259,-0.078
8.260,-0.074
8.261,-0.066
8.262,-0.061
8.263,-0.059
8.264,-0.055
8.265,-0.053
8.266,-0.050
8.267,-0.050
8.268,-0.050
8.269,-0.050
8.270,-0.050
8.271,-0.050
8.272,-0.050
8.273,-0.050
8.274,-0.048
8.275,-0.050
8.276,-0.046
8.277,-0.044
8.278,-0.042
8.279,-0.044
8.280,-0.041
8.281,-0.038
8.282,-0.039
8.283,-0.038
8.284,-0.038
8.285,-0.038
8.286,-0.038
8.287,-0.034
8.288,-0.030
8.289,-0.025
8.290,-0.019
8.291,-0.016
8.292,-0.019
8.293,-0.022
8.294,-0.020
8.295,-0.022
8.296,-0.021
8.297,-0.019
8.298,-0.013
8.299,-0.009
8.300,-0.009
8.301,-0.009
8.302,-0.009
8.303,-0.006
8.304,-0.003
8.305,0.000
8.306,0.003
8.307,0.003
8.308,0.009
8.309,0.016
8.310,0.014
8.311,0.016
8.312,0.016
8.313,0.012
8.314,0.016
8.315,0.019
8.316,0.022
8.317,0.022
8.318,0.024
8.319,0.025
8.320,0.029
8.321,0.034
8.322,0.036
8.323,0.037
8.324,0.039
8.325,0.037
8.326,0.042
8.327,0.047
8.328,0.046
8.329,0.047
8.330,0.051
8.331,0.053
8.332,0.057
8.333,0.062
8.334,0.070
8.335,0.075
8.336,0.083
8.337,0.091
8.338,0.092
8.339,0.097
8.340,0.097
8.341,0.103
8.342,0.105
8.343,0.112
8.344,0.112
8.345,0.116
8.346,0.123
8.347,0.134
8.348,0.137
8.349,0.137
8.350,0.147
8.351,0.153
8.352,0.162
8.353,0.169
8.354,0.176
8.355,0.184
8.356,0.189
8.357,0.194
8.358,0.196
8.359,0.200
8.360,0.208
8.361,0.212
8.362,0.216
8.363,0.222
8.364,0.228
8.365,0.231
8.366,0.233
8.367,0.231
8.368,0.239
8.369,0.244
8.370,0.250
8.371,0.253
8.372,0.259
8.373,0.269
8.374,0.267
8.375,0.266
8.376,0.272
8.377,0.272
8.378,0.275
8.379,0.278
8.380,0.281
8.381,0.284
8.382,0.287
8.383,0.291
8.384,0.295
8.385,0.300
8.386,0.303
8.387,0.303
8.388,0.300
8.389,0.300
8.390,0.299
8.391,0.297
8.392,0.304
8.393,0.306
8.394,0.311
8.395,0.316
8.396,0.317
8.397,0.316
8.398,0.314
8.399,0.309
8.400,0.309
8.401,0.306
8.402,0.303
8.403,0.300
8.404,0.298
8.405,0.294
8.406,0.292
8.407,0.287
8.408,0.286
8.409,0.281
8.410,0.272
8.411,0.256
8.412,0.252
8.413,0.241
8.414,0.236
8.415,0.225
8.416,0.216
8.417,0.209
8.418,0.200
8.419,0.191
8.420,0.178
8.421,0.162
8.422,0.153
8.423,0.144
8.424,0.139
8.425,0.131
8.426,0.122
8.427,0.116
8.428,0.106
8.429,0.100
8.430,0.092
8.431,0.087
8.432,0.078
8.433,0.075
8.434,0.069
8.435,0.066
8.436,0.058
8.437,0.050
8.438,0.045
8.439,0.041
8.440,0.031
8.441,0.022
8.442,0.016
8.443,0.012
8.444,0.009
8.445,0.006
8.446,-0.003
8.447,-0.009
8.448,-0.011
8.449,-0.016
8.450,-0.019
8.451,-0.025
8.452,-0.022
8.453,-0.022
8.454,-0.024
8.455,-0.028
8.456,-0.031
8.457,-0.031
8.458,-0.032
8.459,-0.034
8.460,-0.038
8.461,-0.044
8.462,-0.044
8.463,-0.041
8.464,-0.043
8.465,-0.044
8.466,-0.044
8.467,-0.047
8.468,-0.048
8.469,-0.050
8.470,-0.053
8.471,-0.056
8.472,-0.059
8.473,-0.063
8.474,-0.059
8.475,-0.056
8.476,-0.056
8.477,-0.056
8.478,-0.063
8.479,-0.066
8.480,-0.067
8.481,-0.069
8.482,-0.069
8.483,-0.069
8.484,-0.072
8.485,-0.072
8.486,-0.072
8.487,-0.072
8.488,-0.069
8.489,-0.069
8.490,-0.064
8.491,-0.063
8.492,-0.067
8.493,-0.069
8.494,-0.070
8.495,-0.072
8.496,-0.069
8.497,-0.072
8.498,-0.072
8.499,-0.072
8.500,-0.072
8.501,-0.072
8.502,-0.072
8.503,-0.072
8.504,-0.072
8.505,-0.072
8.506,-0.072
8.507,-0.072
8.508,-0.068
8.509,-0.066
8.510,-0.068
8.511,-0.066
8.512,-0.066
8.513,-0.066
8.514,-0.067
8.515,-0.066
8.516,-0.069
8.517,-0.069
8.518,-0.070
8.519,-0.072
8.520,-0.073
8.521,-0.075
8.522,-0.074
8.523,-0.072
8.524,-0.073
8.525,-0.075
8.526,-0.075
8.527,-0.075
8.528,-0.075
8.529,-0.075
8.530,-0.069
8.531,-0.066
8.532,-0.070
8.533,-0.069
8.534,-0.064
8.535,-0.063
8.536,-0.063
8.537,-0.063
8.538,-0.066
8.539,-0.066
8.540,-0.069
8.541,-0.069
8.542,-0.070
8.543,-0.072
8.544,-0.071
8.545,-0.069
8.546,-0.070
8.547,-0.069
8.548,-0.069
8.549,-0.066
8.550,-0.063
8.551,-0.063
8.552,-0.066
8.553,-0.066
8.554,-0.064
8.555,-0.063
8.556,-0.061
8.557,-0.059
8.558,-0.061
8.559,-0.063
8.560,-0.064
8.561,-0.066
8.562,-0.067
8.563,-0.072
8.564,-0.066
8.565,-0.063
8.566,-0.063
8.567,-0.063
8.568,-0.067
8.569,-0.066
8.570,-0.063
8.571,-0.063
8.572,-0.063
8.573,-0.056
8.574,-0.057
8.575,-0.059
8.576,-0.061
8.577,-0.063
8.578,-0.061
8.579,-0.059
8.580,-0.061
8.581,-0.059
8.582,-0.066
8.583,-0.066
8.584,-0.068
8.585,-0.069
8.586,-0.069
8.587,-0.069
8.588,-0.069
8.589,-0.069
8.590,-0.075
8.591,-0.078
8.592,-0.075
8.593,-0.075
8.594,-0.075
8.595,-0.078
8.596,-0.078
8.597,-0.078
8.598,-0.074
8.599,-0.069
8.600,-0.070
8.601,-0.072
8.602,-0.072
8.603,-0.072
8.604,-0.075
8.605,-0.075
8.606,-0.075
8.607,-0.075
8.608,-0.074
8.609,-0.072
8.610,-0.076
8.611,-0.075
8.612,-0.075
8.613,-0.075
8.614,-0.076
8.615,-0.081
8.616,-0.081
8.617,-0.081
8.618,-0.078
8.619,-0.075
8.620,-0.078
8.621,-0.078
8.622,-0.079
8.623,-0.081
8.624,-0.081
8.625,-0.084
8.626,-0.084
8.627,-0.081
8.628,-0.081
8.629,-0.081
8.630,-0.083
8.631,-0.084
8.632,-0.081
8.633,-0.084
8.634,-0.086
8.635,-0.088
8.636,-0.089
8.637,-0.091
8.638,-0.089
8.639,-0.088
8.640,-0.092
8.641,-0.097
8.642,-0.097
8.643,-0.097
8.644,-0.097
8.645,-0.097
8.646,-0.098
8.647,-0.097
8.648,-0.099
8.649,-0.097
8.650,-0.100
8.651,-0.097
8.652,-0.094
8.653,-0.094
8.654,-0.094
8.655,-0.097
8.656,-0.100
8.657,-0.103
8.658,-0.102
8.659,-0.103
8.660,-0.104
8.661,-0.103
8.662,-0.105
8.663,-0.103
8.664,-0.103
8.665,-0.103
8.666,-0.106
8.667,-0.106
8.668,-0.103
8.669,-0.103
8.670,-0.102
8.671,-0.100
8.672,-0.102
8.673,-0.100
8.674,-0.104
8.675,-0.103
8.676,-0.097
8.677,-0.097
8.678,-0.095
8.679,-0.097
8.680,-0.098
8.681,-0.103
8.682,-0.103
8.683,-0.106
8.684,-0.104
8.685,-0.106
8.686,-0.108
8.687,-0.109
8.688,-0.109
8.689,-0.109
8.690,-0.111
8.691,-0.113
8.692,-0.109
8.693,-0.109
8.694,-0.111
8.695,-0.113
8.696,-0.113
8.697,-0.113
8.698,-0.111
8.699,-0.113
8.700,-0.108
8.701,-0.103
8.702,-0.103
8.703,-0.103
8.704,-0.103
8.705,-0.103
8.706,-0.103
8.707,-0.106
8.708,-0.106
8.709,-0.109
8.710,-0.109
8.711,-0.109
8.712,-0.108
8.713,-0.109
8.714,-0.111
8.715,-0.113
8.716,-0.113
8.717,-0.113
8.718,-0.113
8.719,-0.109
8.720,-0.113
8.721,-0.113
8.722,-0.111
8.723,-0.109
8.724,-0.109
8.725,-0.113
8.726,-0.114
8.727,-0.116
8.728,-0.116
8.729,-0.116
8.730,-0.116
8.731,-0.116
8.732,-0.114
8.733,-0.109
8.734,-0.109
8.735,-0.109
8.736,-0.113
8.737,-0.113
8.738,-0.113
8.739,-0.113
8.740,-0.116
8.741,-0.116
8.742,-0.114
8.743,-0.116
8.744,-0.113
8.745,-0.109
8.746,-0.106
8.747,-0.109
8.748,-0.109
8.749,-0.109
8.750,-0.111
8.751,-0.109
8.752,-0.113
8.753,-0.109
8.754,-0.111
8.755,-0.113
8.756,-0.113
8.757,-0.113
8.758,-0.113
8.759,-0.113
8.760,-0.114
8.761,-0.113
8.762,-0.116
8.763,-0.116
8.764,-0.116
8.765,-0.116
8.766,-0.117
8.767,-0.116
8.768,-0.114
8.769,-0.116
8.770,-0.116
8.771,-0.116
8.772,-0.113
8.773,-0.113
8.774,-0.109
8.775,-0.109
8.776,-0.113
8.777,-0.113
8.778,-0.111
8.779,-0.109
8.780,-0.105
8.781,-0.106
8.782,-0.106
8.783,-0.103
8.784,-0.101
8.785,-0.103
8.786,-0.099
8.787,-0.094
8.788,-0.094
8.789,-0.084
8.790,-0.078
8.791,-0.072
8.792,-0.066
8.793,-0.066
8.794,-0.061
8.795,-0.053
8.796,-0.047
8.797,-0.041
8.798,-0.038
8.799,-0.034
8.800,-0.031
8.801,-0.034
8.802,-0.038
8.803,-0.034
8.804,-0.036
8.805,-0.038
8.806,-0.030
8.807,-0.025
8.808,-0.025
8.809,-0.019
8.810,-0.017
8.811,-0.013
8.812,-0.009
8.813,-0.006
8.814,-0.005
8.815,0.000
8.816,0.001
8.817,0.000
8.818,-0.001
8.819,0.000
8.820,0.003
8.821,0.009
8.822,0.019
8.823,0.022
8.824,0.022
8.825,0.022
8.826,0.026
8.827,0.034
8.828,0.034
8.829,0.037
8.830,0.043
8.831,0.041
8.832,0.041
8.833,0.041
8.834,0.039
8.835,0.041
8.836,0.050
8.837,0.050
8.838,0.055
8.839,0.059
8.840,0.062
8.841,0.062
8.842,0.055
8.843,0.053
8.844,0.057
8.845,0.059
8.846,0.064
8.847,0.066
8.848,0.067
8.849,0.066
8.850,0.062
8.851,0.059
8.852,0.053
8.853,0.050
8.854,0.051
8.855,0.047
8.856,0.043
8.857,0.041
8.858,0.033
8.859,0.028
8.860,0.023
8.861,0.016
8.862,0.011
8.863,0.006
8.864,0.001
8.865,0.003
8.866,0.004
8.867,0.000
8.868,-0.009
8.869,-0.016
8.870,-0.021
8.871,-0.025
8.872,-0.036
8.873,-0.047
8.874,-0.055
8.875,-0.059
8.876,-0.067
8.877,-0.075
8.878,-0.078
8.879,-0.084
8.880,-0.086
8.881,-0.084
8.882,-0.092
8.883,-0.094
8.884,-0.100
8.885,-0.103
8.886,-0.102
8.887,-0.103
8.888,-0.109
8.889,-0.116
8.890,-0.126
8.891,-0.134
8.892,-0.139
8.893,-0.141
8.894,-0.143
8.895,-0.144
8.896,-0.147
8.897,-0.153
8.898,-0.153
8.899,-0.153
8.900,-0.159
8.901,-0.156
8.902,-0.161
8.903,-0.163
8.904,-0.159
8.905,-0.159
8.906,-0.161
8.907,-0.163
8.908,-0.163
8.909,-0.163
8.910,-0.163
8.911,-0.166
8.912,-0.166
8.913,-0.166
8.914,-0.167
8.915,-0.166
8.916,-0.169
8.917,-0.166
8.918,-0.169
8.919,-0.169
8.920,-0.170
8.921,-0.172
8.922,-0.171
8.923,-0.169
8.924,-0.172
8.925,-0.172
8.926,-0.171
8.927,-0.169
8.928,-0.172
8.929,-0.175
8.930,-0.178
8.931,-0.178
8.932,-0.178
8.933,-0.178
8.934,-0.183
8.935,-0.181
8.936,-0.178
8.937,-0.175
8.938,-0.174
8.939,-0.169
8.940,-0.172
8.941,-0.172
8.942,-0.173
8.943,-0.169
8.944,-0.163
8.945,-0.159
8.946,-0.159
8.947,-0.159
8.948,-0.161
8.949,-0.163
8.950,-0.163
8.951,-0.163
8.952,-0.166
8.953,-0.172
8.954,-0.183
8.955,-0.194
8.956,-0.204
8.957,-0.216
8.958,-0.221
8.959,-0.225
8.960,-0.226
8.961,-0.231
8.962,-0.228
8.963,-0.228
8.964,-0.212
8.965,-0.187
8.966,-0.166
8.967,-0.144
8.968,-0.118
8.969,-0.094
8.970,-0.067
8.971,-0.041
8.972,-0.008
8.973,0.034
8.974,0.089
8.975,0.156
8.976,0.241
8.977,0.319
8.978,0.400
8.979,0.478
8.980,0.564
8.981,0.653
8.982,0.758
8.983,0.859
8.984,0.964
8.985,1.069
8.986,1.186
8.987,1.306
8.988,1.425
8.989,1.537
8.990,1.625
8.991,1.697
8.992,1.705
8.993,1.666
8.994,1.552
8.995,1.406
8.996,1.253
8.997,1.109
8.998,0.988
8.999,0.875
9.000,0.747
9.001,0.603
9.002,0.476
9.003,0.366
9.004,0.294
9.005,0.237
9.006,0.206
9.007,0.184
9.008,0.166
9.009,0.150
9.010,0.124
9.011,0.094
9.012,0.070
9.013,0.044
9.014,0.022
9.015,0.003
9.016,-0.013
9.017,-0.019
9.018,-0.029
9.019,-0.038
9.020,-0.044
9.021,-0.050
9.022,-0.059
9.023,-0.069
9.024,-0.073
9.025,-0.081
9.026,-0.081
9.027,-0.081
9.028,-0.084
9.029,-0.088
9.030,-0.094
9.031,-0.100
9.032,-0.100
9.033,-0.097
9.034,-0.097
9.035,-0.100
9.036,-0.103
9.037,-0.109
9.038,-0.113
9.039,-0.116
9.040,-0.118
9.041,-0.119
9.042,-0.120
9.043,-0.119
9.044,-0.122
9.045,-0.119
9.046,-0.118
9.047,-0.119
9.048,-0.118
9.049,-0.116
9.050,-0.109
9.051,-0.109
9.052,-0.116
9.053,-0.122
9.054,-0.121
9.055,-0.122
9.056,-0.120
9.057,-0.122
9.058,-0.122
9.059,-0.119
9.060,-0.118
9.061,-0.116
9.062,-0.116
9.063,-0.116
9.064,-0.113
9.065,-0.109
9.066,-0.108
9.067,-0.106
9.068,-0.106
9.069,-0.106
9.070,-0.109
9.071,-0.113
9.072,-0.111
9.073,-0.109
9.074,-0.109
9.075,-0.106
9.076,-0.103
9.077,-0.103
9.078,-0.103
9.079,-0.106
9.080,-0.099
9.081,-0.094
9.082,-0.092
9.083,-0.094
9.084,-0.094
9.085,-0.094
9.086,-0.089
9.087,-0.091
9.088,-0.092
9.089,-0.094
9.090,-0.089
9.091,-0.084
9.092,-0.086
9.093,-0.084
9.094,-0.084
9.095,-0.081
9.096,-0.078
9.097,-0.078
9.098,-0.076
9.099,-0.078
9.100,-0.076
9.101,-0.078
9.102,-0.078
9.103,-0.078
9.104,-0.074
9.105,-0.069
9.106,-0.069
9.107,-0.069
9.108,-0.069
9.109,-0.072
9.110,-0.069
9.111,-0.069
9.112,-0.066
9.113,-0.066
9.114,-0.061
9.115,-0.056
9.116,-0.057
9.117,-0.056
9.118,-0.056
9.119,-0.056
9.120,-0.057
9.121,-0.056
9.122,-0.054
9.123,-0.053
9.124,-0.051
9.125,-0.053
9.126,-0.053
9.127,-0.053
9.128,-0.047
9.129,-0.044
9.130,-0.044
9.131,-0.044
9.132,-0.041
9.133,-0.041
9.134,-0.038
9.135,-0.034
9.136,-0.034
9.137,-0.031
9.138,-0.027
9.139,-0.022
9.140,-0.019
9.141,-0.019
9.142,-0.019
9.143,-0.019
9.144,-0.019
9.145,-0.016
9.146,-0.008
9.147,-0.003
9.148,-0.001
9.149,0.000
9.150,0.002
9.151,0.000
9.152,0.002
9.153,0.003
9.154,0.007
9.155,0.012
9.156,0.016
9.157,0.019
9.158,0.022
9.159,0.022
9.160,0.025
9.161,0.028
9.162,0.032
9.163,0.041
9.164,0.044
9.165,0.044
9.166,0.046
9.167,0.047
9.168,0.053
9.169,0.056
9.170,0.061
9.171,0.066
9.172,0.070
9.173,0.078
9.174,0.075
9.175,0.078
9.176,0.080
9.177,0.087
9.178,0.095
9.179,0.106
9.180,0.109
9.181,0.116
9.182,0.123
9.183,0.128
9.184,0.134
9.185,0.137
9.186,0.145
9.187,0.150
9.188,0.152
9.189,0.153
9.190,0.158
9.191,0.162
9.192,0.170
9.193,0.181
9.194,0.187
9.195,0.191
9.196,0.191
9.197,0.194
9.198,0.199
9.199,0.200
9.200,0.208
9.201,0.212
9.202,0.220
9.203,0.225
9.204,0.230
9.205,0.231
9.206,0.234
9.207,0.241
9.208,0.248
9.209,0.256
9.210,0.262
9.211,0.262
9.212,0.264
9.213,0.266
9.214,0.267
9.215,0.269
9.216,0.271
9.217,0.272
9.218,0.275
9.219,0.278
9.220,0.282
9.221,0.284
9.222,0.284
9.223,0.287
9.224,0.289
9.225,0.291
9.226,0.300
9.227,0.303
9.228,0.303
9.229,0.303
9.230,0.305
9.231,0.303
9.232,0.304
9.233,0.303
9.234,0.303
9.235,0.300
9.236,0.300
9.237,0.300
9.238,0.298
9.239,0.294
9.240,0.286
9.241,0.275
9.242,0.267
9.243,0.256
9.244,0.254
9.245,0.247
9.246,0.242
9.247,0.231
9.248,0.225
9.249,0.212
9.250,0.204
9.251,0.200
9.252,0.194
9.253,0.187
9.254,0.178
9.255,0.166
9.256,0.155
9.257,0.144
9.258,0.137
9.259,0.128
9.260,0.117
9.261,0.109
9.262,0.097
9.263,0.087
9.264,0.083
9.265,0.081
9.266,0.073
9.267,0.072
9.268,0.059
9.269,0.050
9.270,0.043
9.271,0.034
9.272,0.025
9.273,0.016
9.274,0.014
9.275,0.012
9.276,0.006
9.277,0.003
9.278,-0.006
9.279,-0.016
9.280,-0.022
9.281,-0.025
9.282,-0.024
9.283,-0.025
9.284,-0.024
9.285,-0.025
9.286,-0.025
9.287,-0.028
9.288,-0.030
9.289,-0.034
9.290,-0.044
9.291,-0.050
9.292,-0.051
9.293,-0.053
9.294,-0.056
9.295,-0.063
9.296,-0.067
9.297,-0.069
9.298,-0.069
9.299,-0.069
9.300,-0.069
9.301,-0.072
9.302,-0.072
9.303,-0.072
9.304,-0.071
9.305,-0.069
9.306,-0.071
9.307,-0.072
9.308,-0.073
9.309,-0.075
9.310,-0.074
9.311,-0.072
9.312,-0.078
9.313,-0.081
9.314,-0.083
9.315,-0.084
9.316,-0.080
9.317,-0.075
9.318,-0.081
9.319,-0.084
9.320,-0.086
9.321,-0.088
9.322,-0.086
9.323,-0.088
9.324,-0.084
9.325,-0.084
9.326,-0.088
9.327,-0.088
9.328,-0.088
9.329,-0.088
9.330,-0.078
9.331,-0.075
9.332,-0.072
9.333,-0.069
9.334,-0.069
9.335,-0.069
9.336,-0.073
9.337,-0.078
9.338,-0.081
9.339,-0.084
9.340,-0.066
9.341,-0.047
9.342,-0.022
9.343,0.000
9.344,-0.003
9.345,-0.003
9.346,-0.003
9.347,-0.003
9.348,-0.023
9.349,-0.041
9.350,-0.064
9.351,-0.084
9.352,-0.080
9.353,-0.075
9.354,-0.074
9.355,-0.072
9.356,-0.073
9.357,-0.075
9.358,-0.075
9.359,-0.075
9.360,-0.076
9.361,-0.078
9.362,-0.078
9.363,-0.078
9.364,-0.075
9.365,-0.075
9.366,-0.078
9.367,-0.075
9.368,-0.073
9.369,-0.075
9.370,-0.076
9.371,-0.078
9.372,-0.077
9.373,-0.072
9.374,-0.074
9.375,-0.072
9.376,-0.072
9.377,-0.072
9.378,-0.072
9.379,-0.072
9.380,-0.073
9.381,-0.072
9.382,-0.072
9.383,-0.069
9.384,-0.068
9.385,-0.069
9.386,-0.072
9.387,-0.072
9.388,-0.072
9.389,-0.072
9.390,-0.072
9.391,-0.072
9.392,-0.073
9.393,-0.075
9.394,-0.075
9.395,-0.075
9.396,-0.074
9.397,-0.075
9.398,-0.073
9.399,-0.075
9.400,-0.075
9.401,-0.075
9.402,-0.078
9.403,-0.075
9.404,-0.072
9.405,-0.072
9.406,-0.076
9.407,-0.075
9.408,-0.076
9.409,-0.078
9.410,-0.079
9.411,-0.081
9.412,-0.083
9.413,-0.084
9.414,-0.084
9.415,-0.081
9.416,-0.086
9.417,-0.084
9.418,-0.086
9.419,-0.088
9.420,-0.088
9.421,-0.088
9.422,-0.088
