'Elapsed time','II'
'seconds','mV'
0,-0.111
0.001,-0.084
0.002,-0.058
0.003,-0.031
0.004,-0.011
0.005,0.009
0.006,0.048
0.007,0.088
0.008,0.15
0.009,0.212
0.01,0.294
0.011,0.375
0.012,0.463
0.013,0.55
0.014,0.641
0.015,0.731
0.016,0.811
0.017,0.891
0.018,0.959
0.019,1.028
0.02,1.106
0.021,1.184
0.022,1.238
0.023,1.291
0.024,1.306
0.025,1.322
0.026,1.277
0.027,1.231
0.028,1.167
0.029,1.103
0.03,1.013
0.031,0.922
0.032,0.824
0.033,0.725
0.034,0.638
0.035,0.55
0.036,0.492
0.037,0.434
0.038,0.406
0.039,0.378
0.04,0.368
0.041,0.356
0.042,0.333
0.043,0.309
0.044,0.286
0.045,0.263
0.046,0.25
0.047,0.238
0.048,0.219
0.049,0.2
0.05,0.186
0.051,0.172
0.052,0.159
0.053,0.147
0.054,0.139
0.055,0.131
0.056,0.121
0.057,0.109
0.058,0.1
0.059,0.091
0.06,0.08
0.061,0.069
0.062,0.062
0.063,0.056
0.064,0.047
0.065,0.038
0.066,0.025
0.067,0.013
0.068,0.005
0.069,-0.003
0.07,-0.007
0.071,-0.013
0.072,-0.014
0.073,-0.016
0.074,-0.02
0.075,-0.025
0.076,-0.026
0.077,-0.028
0.078,-0.031
0.079,-0.034
0.08,-0.036
0.081,-0.038
0.082,-0.042
0.083,-0.047
0.084,-0.05
0.085,-0.053
0.086,-0.053
0.087,-0.053
0.088,-0.056
0.089,-0.059
0.09,-0.058
0.091,-0.056
0.092,-0.058
0.093,-0.059
0.094,-0.059
0.095,-0.059
0.096,-0.059
0.097,-0.059
0.098,-0.061
0.099,-0.062
0.1,-0.064
0.101,-0.066
0.102,-0.066
0.103,-0.066
0.104,-0.066
0.105,-0.066
0.106,-0.066
0.107,-0.066
0.108,-0.066
0.109,-0.066
0.11,-0.062
0.111,-0.059
0.112,-0.058
0.113,-0.056
0.114,-0.056
0.115,-0.056
0.116,-0.056
0.117,-0.056
0.118,-0.056
0.119,-0.056
0.12,-0.056
0.121,-0.056
0.122,-0.053
0.123,-0.05
0.124,-0.05
0.125,-0.05
0.126,-0.05
0.127,-0.05
0.128,-0.05
0.129,-0.05
0.13,-0.05
0.131,-0.05
0.132,-0.05
0.133,-0.05
0.134,-0.05
0.135,-0.05
0.136,-0.05
0.137,-0.05
0.138,-0.047
0.139,-0.044
0.14,-0.042
0.141,-0.041
0.142,-0.041
0.143,-0.041
0.144,-0.041
0.145,-0.041
0.146,-0.036
0.147,-0.031
0.148,-0.031
0.149,-0.031
0.15,-0.032
0.151,-0.034
0.152,-0.034
0.153,-0.034
0.154,-0.034
0.155,-0.034
0.156,-0.028
0.157,-0.022
0.158,-0.021
0.159,-0.019
0.16,-0.02
0.161,-0.022
0.162,-0.019
0.163,-0.016
0.164,-0.016
0.165,-0.016
0.166,-0.017
0.167,-0.019
0.168,-0.017
0.169,-0.016
0.17,-0.016
0.171,-0.016
0.172,-0.014
0.173,-0.013
0.174,-0.009
0.175,-0.006
0.176,-0.003
0.177,0
0.178,0.001
0.179,0.003
0.18,0.003
0.181,0.003
0.182,0.004
0.183,0.006
0.184,0.009
0.185,0.013
0.186,0.013
0.187,0.013
0.188,0.013
0.189,0.013
0.19,0.016
0.191,0.019
0.192,0.019
0.193,0.019
0.194,0.02
0.195,0.022
0.196,0.028
0.197,0.034
0.198,0.033
0.199,0.031
0.2,0.036
0.201,0.041
0.202,0.042
0.203,0.044
0.204,0.044
0.205,0.044
0.206,0.047
0.207,0.05
0.208,0.05
0.209,0.05
0.21,0.054
0.211,0.059
0.212,0.064
0.213,0.069
0.214,0.073
0.215,0.078
0.216,0.081
0.217,0.084
0.218,0.088
0.219,0.091
0.22,0.094
0.221,0.097
0.222,0.098
0.223,0.1
0.224,0.103
0.225,0.106
0.226,0.113
0.227,0.119
0.228,0.122
0.229,0.125
0.23,0.129
0.231,0.134
0.232,0.137
0.233,0.141
0.234,0.145
0.235,0.15
0.236,0.157
0.237,0.166
0.238,0.172
0.239,0.178
0.24,0.184
0.241,0.191
0.242,0.197
0.243,0.203
0.244,0.208
0.245,0.212
0.246,0.216
0.247,0.219
0.248,0.223
0.249,0.228
0.25,0.234
0.251,0.241
0.252,0.247
0.253,0.253
0.254,0.259
0.255,0.266
0.256,0.272
0.257,0.278
0.258,0.283
0.259,0.287
0.26,0.295
0.261,0.303
0.262,0.307
0.263,0.313
0.264,0.317
0.265,0.322
0.266,0.326
0.267,0.331
0.268,0.336
0.269,0.341
0.27,0.344
0.271,0.347
0.272,0.35
0.273,0.353
0.274,0.359
0.275,0.366
0.276,0.372
0.277,0.378
0.278,0.378
0.279,0.378
0.28,0.378
0.281,0.378
0.282,0.378
0.283,0.378
0.284,0.378
0.285,0.378
0.286,0.375
0.287,0.372
0.288,0.371
0.289,0.369
0.29,0.368
0.291,0.366
0.292,0.358
0.293,0.35
0.294,0.347
0.295,0.344
0.296,0.341
0.297,0.338
0.298,0.328
0.299,0.319
0.3,0.311
0.301,0.303
0.302,0.296
0.303,0.287
0.304,0.277
0.305,0.266
0.306,0.258
0.307,0.25
0.308,0.242
0.309,0.234
0.31,0.227
0.311,0.219
0.312,0.209
0.313,0.2
0.314,0.189
0.315,0.178
0.316,0.171
0.317,0.163
0.318,0.156
0.319,0.15
0.32,0.141
0.321,0.131
0.322,0.124
0.323,0.116
0.324,0.108
0.325,0.1
0.326,0.092
0.327,0.084
0.328,0.08
0.329,0.075
0.33,0.069
0.331,0.062
0.332,0.056
0.333,0.05
0.334,0.047
0.335,0.044
0.336,0.038
0.337,0.031
0.338,0.025
0.339,0.019
0.34,0.014
0.341,0.009
0.342,0.006
0.343,0.003
0.344,-0.001
0.345,-0.006
0.346,-0.007
0.347,-0.009
0.348,-0.013
0.349,-0.016
0.35,-0.016
0.351,-0.016
0.352,-0.022
0.353,-0.028
0.354,-0.029
0.355,-0.031
0.356,-0.03
0.357,-0.028
0.358,-0.029
0.359,-0.031
0.36,-0.032
0.361,-0.034
0.362,-0.038
0.363,-0.041
0.364,-0.042
0.365,-0.044
0.366,-0.045
0.367,-0.047
0.368,-0.047
0.369,-0.047
0.37,-0.047
0.371,-0.047
0.372,-0.048
0.373,-0.05
0.374,-0.051
0.375,-0.053
0.376,-0.053
0.377,-0.053
0.378,-0.053
0.379,-0.053
0.38,-0.056
0.381,-0.059
0.382,-0.059
0.383,-0.059
0.384,-0.059
0.385,-0.059
0.386,-0.059
0.387,-0.059
0.388,-0.062
0.389,-0.066
0.39,-0.066
0.391,-0.066
0.392,-0.066
0.393,-0.066
0.394,-0.066
0.395,-0.066
0.396,-0.062
0.397,-0.059
0.398,-0.061
0.399,-0.062
0.4,-0.062
0.401,-0.062
0.402,-0.062
0.403,-0.062
0.404,-0.064
0.405,-0.066
0.406,-0.066
0.407,-0.066
0.408,-0.067
0.409,-0.069
0.41,-0.069
0.411,-0.069
0.412,-0.066
0.413,-0.062
0.414,-0.062
0.415,-0.062
0.416,-0.064
0.417,-0.066
0.418,-0.066
0.419,-0.066
0.42,-0.067
0.421,-0.069
0.422,-0.068
0.423,-0.066
0.424,-0.066
0.425,-0.066
0.426,-0.066
0.427,-0.066
0.428,-0.067
0.429,-0.069
0.43,-0.069
0.431,-0.069
0.432,-0.07
0.433,-0.072
0.434,-0.072
0.435,-0.072
0.436,-0.072
0.437,-0.072
0.438,-0.072
0.439,-0.072
0.44,-0.072
0.441,-0.072
0.442,-0.069
0.443,-0.066
0.444,-0.066
0.445,-0.066
0.446,-0.067
0.447,-0.069
0.448,-0.069
0.449,-0.069
0.45,-0.069
0.451,-0.069
0.452,-0.069
0.453,-0.069
0.454,-0.07
0.455,-0.072
0.456,-0.069
0.457,-0.066
0.458,-0.066
0.459,-0.066
0.46,-0.067
0.461,-0.069
0.462,-0.066
0.463,-0.062
0.464,-0.064
0.465,-0.066
0.466,-0.066
0.467,-0.066
0.468,-0.067
0.469,-0.069
0.47,-0.069
0.471,-0.069
0.472,-0.069
0.473,-0.069
0.474,-0.069
0.475,-0.069
0.476,-0.069
0.477,-0.069
0.478,-0.068
0.479,-0.066
0.48,-0.067
0.481,-0.069
0.482,-0.069
0.483,-0.069
0.484,-0.068
0.485,-0.066
0.486,-0.066
0.487,-0.066
0.488,-0.066
0.489,-0.066
0.49,-0.061
0.491,-0.056
0.492,-0.058
0.493,-0.059
0.494,-0.061
0.495,-0.062
0.496,-0.062
0.497,-0.062
0.498,-0.064
0.499,-0.066
0.5,-0.066
0.501,-0.066
0.502,-0.066
0.503,-0.066
0.504,-0.066
0.505,-0.066
0.506,-0.066
0.507,-0.066
0.508,-0.062
0.509,-0.059
0.51,-0.059
0.511,-0.059
0.512,-0.059
0.513,-0.059
0.514,-0.062
0.515,-0.066
0.516,-0.067
0.517,-0.069
0.518,-0.069
0.519,-0.069
0.52,-0.069
0.521,-0.069
0.522,-0.069
0.523,-0.069
0.524,-0.068
0.525,-0.066
0.526,-0.066
0.527,-0.066
0.528,-0.066
0.529,-0.066
0.53,-0.066
0.531,-0.066
0.532,-0.066
0.533,-0.066
0.534,-0.066
0.535,-0.066
0.536,-0.066
0.537,-0.066
0.538,-0.066
0.539,-0.066
0.54,-0.066
0.541,-0.066
0.542,-0.067
0.543,-0.069
0.544,-0.069
0.545,-0.069
0.546,-0.069
0.547,-0.069
0.548,-0.069
0.549,-0.069
0.55,-0.069
0.551,-0.069
0.552,-0.069
0.553,-0.069
0.554,-0.07
0.555,-0.072
0.556,-0.072
0.557,-0.072
0.558,-0.072
0.559,-0.072
0.56,-0.072
0.561,-0.072
0.562,-0.072
0.563,-0.072
0.564,-0.072
0.565,-0.072
0.566,-0.073
0.567,-0.075
0.568,-0.075
0.569,-0.075
0.57,-0.076
0.571,-0.078
0.572,-0.079
0.573,-0.081
0.574,-0.077
0.575,-0.072
0.576,-0.075
0.577,-0.078
0.578,-0.079
0.579,-0.081
0.58,-0.081
0.581,-0.081
0.582,-0.081
0.583,-0.081
0.584,-0.081
0.585,-0.081
0.586,-0.081
0.587,-0.081
0.588,-0.081
0.589,-0.081
0.59,-0.081
0.591,-0.081
0.592,-0.081
0.593,-0.081
0.594,-0.081
0.595,-0.081
0.596,-0.081
0.597,-0.081
0.598,-0.082
0.599,-0.084
0.6,-0.083
0.601,-0.081
0.602,-0.08
0.603,-0.078
0.604,-0.078
0.605,-0.078
0.606,-0.078
0.607,-0.078
0.608,-0.079
0.609,-0.081
0.61,-0.082
0.611,-0.084
0.612,-0.084
0.613,-0.084
0.614,-0.084
0.615,-0.084
0.616,-0.084
0.617,-0.084
0.618,-0.08
0.619,-0.075
0.62,-0.076
0.621,-0.078
0.622,-0.082
0.623,-0.088
0.624,-0.088
0.625,-0.088
0.626,-0.088
0.627,-0.088
0.628,-0.088
0.629,-0.088
0.63,-0.084
0.631,-0.081
0.632,-0.084
0.633,-0.088
0.634,-0.088
0.635,-0.088
0.636,-0.088
0.637,-0.088
0.638,-0.088
0.639,-0.088
0.64,-0.088
0.641,-0.088
0.642,-0.088
0.643,-0.088
0.644,-0.089
0.645,-0.091
0.646,-0.089
0.647,-0.088
0.648,-0.089
0.649,-0.091
0.65,-0.086
0.651,-0.081
0.652,-0.082
0.653,-0.084
0.654,-0.088
0.655,-0.091
0.656,-0.091
0.657,-0.091
0.658,-0.091
0.659,-0.091
0.66,-0.092
0.661,-0.094
0.662,-0.091
0.663,-0.088
0.664,-0.088
0.665,-0.088
0.666,-0.088
0.667,-0.088
0.668,-0.088
0.669,-0.088
0.67,-0.088
0.671,-0.088
0.672,-0.088
0.673,-0.088
0.674,-0.088
0.675,-0.088
0.676,-0.089
0.677,-0.091
0.678,-0.089
0.679,-0.088
0.68,-0.088
0.681,-0.088
0.682,-0.089
0.683,-0.091
0.684,-0.091
0.685,-0.091
0.686,-0.091
0.687,-0.091
0.688,-0.092
0.689,-0.094
0.69,-0.094
0.691,-0.094
0.692,-0.094
0.693,-0.094
0.694,-0.092
0.695,-0.091
0.696,-0.089
0.697,-0.088
0.698,-0.089
0.699,-0.091
0.7,-0.091
0.701,-0.091
0.702,-0.091
0.703,-0.091
0.704,-0.091
0.705,-0.091
0.706,-0.091
0.707,-0.091
0.708,-0.089
0.709,-0.088
0.71,-0.088
0.711,-0.088
0.712,-0.088
0.713,-0.088
0.714,-0.089
0.715,-0.091
0.716,-0.092
0.717,-0.094
0.718,-0.094
0.719,-0.094
0.72,-0.094
0.721,-0.094
0.722,-0.094
0.723,-0.094
0.724,-0.092
0.725,-0.091
0.726,-0.091
0.727,-0.091
0.728,-0.091
0.729,-0.091
0.73,-0.091
0.731,-0.091
0.732,-0.092
0.733,-0.094
0.734,-0.092
0.735,-0.091
0.736,-0.091
0.737,-0.091
0.738,-0.092
0.739,-0.094
0.74,-0.092
0.741,-0.091
0.742,-0.091
0.743,-0.091
0.744,-0.091
0.745,-0.091
0.746,-0.092
0.747,-0.094
0.748,-0.095
0.749,-0.097
0.75,-0.096
0.751,-0.094
0.752,-0.094
0.753,-0.094
0.754,-0.094
0.755,-0.094
0.756,-0.094
0.757,-0.094
0.758,-0.094
0.759,-0.094
0.76,-0.092
0.761,-0.091
0.762,-0.091
0.763,-0.091
0.764,-0.092
0.765,-0.094
0.766,-0.097
0.767,-0.1
0.768,-0.1
0.769,-0.1
0.77,-0.1
0.771,-0.1
0.772,-0.097
0.773,-0.094
0.774,-0.094
0.775,-0.094
0.776,-0.094
0.777,-0.094
0.778,-0.094
0.779,-0.094
0.78,-0.092
0.781,-0.091
0.782,-0.091
0.783,-0.091
0.784,-0.092
0.785,-0.094
0.786,-0.094
0.787,-0.094
0.788,-0.094
0.789,-0.094
0.79,-0.094
0.791,-0.094
0.792,-0.097
0.793,-0.1
0.794,-0.097
0.795,-0.094
0.796,-0.092
0.797,-0.091
0.798,-0.094
0.799,-0.097
0.8,-0.096
0.801,-0.094
0.802,-0.094
0.803,-0.094
0.804,-0.095
0.805,-0.097
0.806,-0.097
0.807,-0.097
0.808,-0.097
0.809,-0.097
0.81,-0.098
0.811,-0.1
0.812,-0.1
0.813,-0.1
0.814,-0.1
0.815,-0.1
0.816,-0.101
0.817,-0.103
0.818,-0.104
0.819,-0.103
0.82,-0.099
0.821,-0.094
0.822,-0.094
0.823,-0.094
0.824,-0.097
0.825,-0.1
0.826,-0.098
0.827,-0.1
0.828,-0.097
0.829,-0.097
0.83,-0.096
0.831,-0.094
0.832,-0.097
0.833,-0.097
0.834,-0.098
0.835,-0.1
0.836,-0.1
0.837,-0.1
0.838,-0.099
0.839,-0.097
0.84,-0.094
0.841,-0.094
0.842,-0.097
0.843,-0.097
0.844,-0.095
0.845,-0.097
0.846,-0.095
0.847,-0.091
0.848,-0.094
0.849,-0.094
0.85,-0.097
0.851,-0.097
0.852,-0.097
0.853,-0.097
0.854,-0.096
0.855,-0.094
0.856,-0.095
0.857,-0.097
0.858,-0.096
0.859,-0.094
0.86,-0.097
0.861,-0.097
0.862,-0.096
0.863,-0.094
0.864,-0.092
0.865,-0.094
0.866,-0.097
0.867,-0.097
0.868,-0.097
0.869,-0.094
0.87,-0.1
0.871,-0.1
0.872,-0.1
0.873,-0.097
0.874,-0.1
0.875,-0.1
0.876,-0.097
0.877,-0.1
0.878,-0.096
0.879,-0.094
0.88,-0.096
0.881,-0.097
0.882,-0.094
0.883,-0.097
0.884,-0.095
0.885,-0.094
0.886,-0.094
0.887,-0.097
0.888,-0.097
0.889,-0.097
0.89,-0.094
0.891,-0.094
0.892,-0.092
0.893,-0.097
0.894,-0.097
0.895,-0.097
0.896,-0.099
0.897,-0.097
0.898,-0.099
0.899,-0.097
0.9,-0.098
0.901,-0.097
0.902,-0.097
0.903,-0.097
0.904,-0.096
0.905,-0.097
0.906,-0.095
0.907,-0.1
0.908,-0.097
0.909,-0.091
0.91,-0.092
0.911,-0.094
0.912,-0.089
0.913,-0.091
0.914,-0.092
0.915,-0.097
0.916,-0.098
0.917,-0.1
0.918,-0.099
0.919,-0.091
0.92,-0.097
0.921,-0.097
0.922,-0.097
0.923,-0.097
0.924,-0.097
0.925,-0.097
0.926,-0.097
0.927,-0.097
0.928,-0.098
0.929,-0.1
0.93,-0.1
0.931,-0.1
0.932,-0.1
0.933,-0.1
0.934,-0.097
0.935,-0.094
0.936,-0.092
0.937,-0.094
0.938,-0.092
0.939,-0.094
0.94,-0.091
0.941,-0.091
0.942,-0.094
0.943,-0.094
0.944,-0.092
0.945,-0.094
0.946,-0.092
0.947,-0.094
0.948,-0.095
0.949,-0.097
0.95,-0.097
0.951,-0.097
0.952,-0.092
0.953,-0.091
0.954,-0.098
0.955,-0.103
0.956,-0.103
0.957,-0.103
0.958,-0.099
0.959,-0.097
0.96,-0.094
0.961,-0.094
0.962,-0.094
0.963,-0.091
0.964,-0.091
0.965,-0.091
0.966,-0.089
0.967,-0.091
0.968,-0.092
0.969,-0.094
0.97,-0.095
0.971,-0.097
0.972,-0.099
0.973,-0.094
0.974,-0.092
0.975,-0.097
0.976,-0.094
0.977,-0.097
0.978,-0.095
0.979,-0.094
0.98,-0.092
0.981,-0.091
0.982,-0.094
0.983,-0.094
0.984,-0.095
0.985,-0.094
0.986,-0.097
0.987,-0.097
0.988,-0.098
0.989,-0.1
0.99,-0.1
0.991,-0.1
0.992,-0.101
0.993,-0.106
0.994,-0.103
0.995,-0.103
0.996,-0.099
0.997,-0.094
0.998,-0.095
0.999,-0.097
1,-0.097
1.001,-0.097
1.002,-0.094
1.003,-0.097
1.004,-0.097
1.005,-0.097
1.006,-0.092
1.007,-0.094
1.008,-0.095
1.009,-0.1
1.01,-0.104
1.011,-0.103
1.012,-0.097
1.013,-0.094
1.014,-0.092
1.015,-0.094
1.016,-0.097
1.017,-0.097
1.018,-0.097
1.019,-0.091
1.02,-0.098
1.021,-0.097
1.022,-0.094
1.023,-0.097
1.024,-0.094
1.025,-0.094
1.026,-0.094
1.027,-0.097
1.028,-0.098
1.029,-0.097
1.03,-0.1
1.031,-0.1
1.032,-0.1
1.033,-0.1
1.034,-0.1
1.035,-0.1
1.036,-0.099
1.037,-0.097
1.038,-0.097
1.039,-0.097
1.04,-0.097
1.041,-0.097
1.042,-0.1
1.043,-0.097
1.044,-0.101
1.045,-0.1
1.046,-0.099
1.047,-0.097
1.048,-0.101
1.049,-0.103
1.05,-0.106
1.051,-0.103
1.052,-0.106
1.053,-0.106
1.054,-0.105
1.055,-0.103
1.056,-0.103
1.057,-0.1
1.058,-0.1
1.059,-0.1
1.06,-0.1
1.061,-0.1
1.062,-0.097
1.063,-0.097
1.064,-0.1
1.065,-0.1
1.066,-0.1
1.067,-0.1
1.068,-0.1
1.069,-0.1
1.07,-0.098
1.071,-0.103
1.072,-0.101
1.073,-0.103
1.074,-0.102
1.075,-0.103
1.076,-0.1
1.077,-0.097
1.078,-0.097
1.079,-0.097
1.08,-0.096
1.081,-0.094
1.082,-0.098
1.083,-0.103
1.084,-0.103
1.085,-0.103
1.086,-0.103
1.087,-0.103
1.088,-0.103
1.089,-0.103
1.09,-0.103
1.091,-0.1
1.092,-0.103
1.093,-0.103
1.094,-0.103
1.095,-0.103
1.096,-0.102
1.097,-0.1
1.098,-0.101
1.099,-0.103
1.1,-0.104
1.101,-0.106
1.102,-0.105
1.103,-0.103
1.104,-0.104
1.105,-0.103
1.106,-0.103
1.107,-0.103
1.108,-0.102
1.109,-0.103
1.11,-0.104
1.111,-0.106
1.112,-0.102
1.113,-0.097
1.114,-0.097
1.115,-0.097
1.116,-0.097
1.117,-0.094
1.118,-0.091
1.119,-0.084
1.12,-0.086
1.121,-0.084
1.122,-0.079
1.123,-0.075
1.124,-0.073
1.125,-0.069
1.126,-0.066
1.127,-0.059
1.128,-0.053
1.129,-0.041
1.13,-0.036
1.131,-0.031
1.132,-0.028
1.133,-0.019
1.134,-0.013
1.135,-0.009
1.136,-0.013
1.137,-0.009
1.138,-0.013
1.139,-0.013
1.14,-0.011
1.141,-0.009
1.142,-0.011
1.143,-0.016
1.144,-0.019
1.145,-0.016
1.146,-0.009
1.147,-0.003
1.148,0.002
1.149,0.003
1.15,0.013
1.151,0.022
1.152,0.025
1.153,0.034
1.154,0.036
1.155,0.038
1.156,0.036
1.157,0.041
1.158,0.047
1.159,0.053
1.16,0.061
1.161,0.062
1.162,0.067
1.163,0.072
1.164,0.078
1.165,0.078
1.166,0.078
1.167,0.081
1.168,0.079
1.169,0.084
1.17,0.084
1.171,0.084
1.172,0.077
1.173,0.072
1.174,0.072
1.175,0.069
1.176,0.059
1.177,0.05
1.178,0.044
1.179,0.038
1.18,0.031
1.181,0.028
1.182,0.024
1.183,0.019
1.184,0.017
1.185,0.016
1.186,0.014
1.187,0.016
1.188,0.011
1.189,0.003
1.19,0.002
1.191,-0.003
1.192,-0.006
1.193,-0.006
1.194,-0.014
1.195,-0.022
1.196,-0.028
1.197,-0.034
1.198,-0.05
1.199,-0.062
1.2,-0.069
1.201,-0.075
1.202,-0.081
1.203,-0.088
1.204,-0.091
1.205,-0.094
1.206,-0.094
1.207,-0.094
1.208,-0.091
1.209,-0.094
1.21,-0.095
1.211,-0.1
1.212,-0.099
1.213,-0.1
1.214,-0.101
1.215,-0.103
1.216,-0.103
1.217,-0.103
1.218,-0.109
1.219,-0.116
1.22,-0.119
1.221,-0.122
1.222,-0.122
1.223,-0.125
1.224,-0.125
1.225,-0.125
1.226,-0.128
1.227,-0.125
1.228,-0.127
1.229,-0.125
1.23,-0.127
1.231,-0.125
1.232,-0.127
1.233,-0.125
1.234,-0.126
1.235,-0.128
1.236,-0.131
1.237,-0.134
1.238,-0.134
1.239,-0.137
1.24,-0.136
1.241,-0.134
1.242,-0.136
1.243,-0.137
1.244,-0.139
1.245,-0.137
1.246,-0.139
1.247,-0.141
1.248,-0.141
1.249,-0.144
1.25,-0.141
1.251,-0.141
1.252,-0.141
1.253,-0.141
1.254,-0.145
1.255,-0.147
1.256,-0.143
1.257,-0.141
1.258,-0.141
1.259,-0.141
1.26,-0.142
1.261,-0.144
1.262,-0.141
1.263,-0.141
1.264,-0.141
1.265,-0.141
1.266,-0.139
1.267,-0.141
1.268,-0.137
1.269,-0.137
1.27,-0.142
1.271,-0.144
1.272,-0.147
1.273,-0.153
1.274,-0.152
1.275,-0.153
1.276,-0.166
1.277,-0.175
1.278,-0.18
1.279,-0.188
1.28,-0.197
1.281,-0.209
1.282,-0.203
1.283,-0.197
1.284,-0.177
1.285,-0.15
1.286,-0.126
1.287,-0.1
1.288,-0.075
1.289,-0.047
1.29,-0.019
1.291,0.009
1.292,0.045
1.293,0.081
1.294,0.151
1.295,0.219
1.296,0.306
1.297,0.391
1.298,0.472
1.299,0.556
1.3,0.648
1.301,0.744
1.302,0.824
1.303,0.903
1.304,0.969
1.305,1.037
1.306,1.111
1.307,1.191
1.308,1.239
1.309,1.291
1.31,1.303
1.311,1.297
1.312,1.259
1.313,1.209
1.314,1.143
1.315,1.072
1.316,0.981
1.317,0.887
1.318,0.792
1.319,0.697
1.32,0.608
1.321,0.516
1.322,0.463
1.323,0.413
1.324,0.392
1.325,0.369
1.326,0.353
1.327,0.344
1.328,0.322
1.329,0.297
1.33,0.278
1.331,0.256
1.332,0.238
1.333,0.225
1.334,0.208
1.335,0.194
1.336,0.181
1.337,0.166
1.338,0.151
1.339,0.144
1.34,0.133
1.341,0.125
1.342,0.117
1.343,0.106
1.344,0.092
1.345,0.081
1.346,0.075
1.347,0.062
1.348,0.056
1.349,0.05
1.35,0.039
1.351,0.031
1.352,0.025
1.353,0.019
1.354,0.008
1.355,0.003
1.356,-0.005
1.357,-0.006
1.358,-0.009
1.359,-0.013
1.36,-0.016
1.361,-0.019
1.362,-0.021
1.363,-0.019
1.364,-0.022
1.365,-0.028
1.366,-0.028
1.367,-0.028
1.368,-0.032
1.369,-0.041
1.37,-0.041
1.371,-0.044
1.372,-0.047
1.373,-0.05
1.374,-0.049
1.375,-0.05
1.376,-0.049
1.377,-0.047
1.378,-0.044
1.379,-0.044
1.38,-0.044
1.381,-0.044
1.382,-0.047
1.383,-0.047
1.384,-0.047
1.385,-0.047
1.386,-0.047
1.387,-0.05
1.388,-0.049
1.389,-0.05
1.39,-0.051
1.391,-0.05
1.392,-0.053
1.393,-0.053
1.394,-0.054
1.395,-0.053
1.396,-0.052
1.397,-0.047
1.398,-0.05
1.399,-0.047
1.4,-0.044
1.401,-0.044
1.402,-0.041
1.403,-0.038
1.404,-0.038
1.405,-0.038
1.406,-0.039
1.407,-0.041
1.408,-0.036
1.409,-0.038
1.41,-0.033
1.411,-0.031
1.412,-0.03
1.413,-0.025
1.414,-0.026
1.415,-0.025
1.416,-0.024
1.417,-0.022
1.418,-0.017
1.419,-0.019
1.42,-0.022
1.421,-0.022
1.422,-0.016
1.423,-0.016
1.424,-0.016
1.425,-0.016
1.426,-0.016
1.427,-0.016
1.428,-0.014
1.429,-0.009
1.43,-0.008
1.431,-0.006
1.432,-0.007
1.433,-0.009
1.434,-0.004
1.435,-0.003
1.436,-0.003
1.437,0
1.438,0
1.439,-0.003
1.44,0.001
1.441,0.003
1.442,0.006
1.443,0.006
1.444,0.009
1.445,0.009
1.446,0.013
1.447,0.013
1.448,0.011
1.449,0.009
1.45,0.014
1.451,0.016
1.452,0.017
1.453,0.025
1.454,0.022
1.455,0.022
1.456,0.025
1.457,0.025
1.458,0.028
1.459,0.028
1.46,0.031
1.461,0.034
1.462,0.034
1.463,0.038
1.464,0.036
1.465,0.038
1.466,0.042
1.467,0.044
1.468,0.043
1.469,0.047
1.47,0.047
1.471,0.047
1.472,0.048
1.473,0.053
1.474,0.056
1.475,0.056
1.476,0.061
1.477,0.062
1.478,0.062
1.479,0.066
1.48,0.068
1.481,0.066
1.482,0.068
1.483,0.066
1.484,0.07
1.485,0.078
1.486,0.076
1.487,0.078
1.488,0.078
1.489,0.081
1.49,0.089
1.491,0.097
1.492,0.097
1.493,0.097
1.494,0.1
1.495,0.103
1.496,0.104
1.497,0.109
1.498,0.113
1.499,0.113
1.5,0.114
1.501,0.119
1.502,0.122
1.503,0.122
1.504,0.124
1.505,0.128
1.506,0.134
1.507,0.141
1.508,0.144
1.509,0.15
1.51,0.152
1.511,0.15
1.512,0.163
1.513,0.169
1.514,0.172
1.515,0.175
1.516,0.174
1.517,0.178
1.518,0.184
1.519,0.191
1.52,0.196
1.521,0.197
1.522,0.203
1.523,0.212
1.524,0.22
1.525,0.231
1.526,0.231
1.527,0.238
1.528,0.246
1.529,0.25
1.53,0.258
1.531,0.263
1.532,0.266
1.533,0.272
1.534,0.278
1.535,0.287
1.536,0.289
1.537,0.294
1.538,0.299
1.539,0.306
1.54,0.314
1.541,0.322
1.542,0.324
1.543,0.325
1.544,0.333
1.545,0.341
1.546,0.347
1.547,0.353
1.548,0.358
1.549,0.366
1.55,0.37
1.551,0.378
1.552,0.384
1.553,0.388
1.554,0.386
1.555,0.391
1.556,0.396
1.557,0.397
1.558,0.4
1.559,0.403
1.56,0.408
1.561,0.413
1.562,0.416
1.563,0.419
1.564,0.423
1.565,0.425
1.566,0.427
1.567,0.425
1.568,0.425
1.569,0.425
1.57,0.426
1.571,0.428
1.572,0.429
1.573,0.431
1.574,0.426
1.575,0.428
1.576,0.422
1.577,0.416
1.578,0.411
1.579,0.409
1.58,0.408
1.581,0.403
1.582,0.396
1.583,0.388
1.584,0.381
1.585,0.372
1.586,0.369
1.587,0.359
1.588,0.349
1.589,0.334
1.59,0.328
1.591,0.322
1.592,0.314
1.593,0.306
1.594,0.296
1.595,0.287
1.596,0.278
1.597,0.269
1.598,0.255
1.599,0.247
1.6,0.234
1.601,0.225
1.602,0.223
1.603,0.219
1.604,0.202
1.605,0.191
1.606,0.186
1.607,0.181
1.608,0.169
1.609,0.156
1.61,0.153
1.611,0.147
1.612,0.144
1.613,0.141
1.614,0.128
1.615,0.122
1.616,0.116
1.617,0.109
1.618,0.103
1.619,0.097
1.62,0.092
1.621,0.088
1.622,0.082
1.623,0.078
1.624,0.074
1.625,0.066
1.626,0.064
1.627,0.059
1.628,0.052
1.629,0.047
1.63,0.044
1.631,0.041
1.632,0.038
1.633,0.034
1.634,0.034
1.635,0.034
1.636,0.033
1.637,0.025
1.638,0.021
1.639,0.016
1.64,0.011
1.641,0.009
1.642,0.013
1.643,0.009
1.644,0.007
1.645,0.009
1.646,0.007
1.647,0.009
1.648,0.003
1.649,-0.003
1.65,-0.004
1.651,-0.006
1.652,-0.005
1.653,-0.006
1.654,-0.009
1.655,-0.009
1.656,-0.006
1.657,-0.009
1.658,-0.008
1.659,-0.009
1.66,-0.011
1.661,-0.016
1.662,-0.016
1.663,-0.016
1.664,-0.019
1.665,-0.019
1.666,-0.019
1.667,-0.019
1.668,-0.023
1.669,-0.025
1.67,-0.025
1.671,-0.025
1.672,-0.025
1.673,-0.025
1.674,-0.025
1.675,-0.025
1.676,-0.024
1.677,-0.025
1.678,-0.026
1.679,-0.025
1.68,-0.024
1.681,-0.025
1.682,-0.026
1.683,-0.031
1.684,-0.029
1.685,-0.031
1.686,-0.031
1.687,-0.031
1.688,-0.03
1.689,-0.031
1.69,-0.029
1.691,-0.031
1.692,-0.03
1.693,-0.028
1.694,-0.028
1.695,-0.028
1.696,-0.031
1.697,-0.031
1.698,-0.032
1.699,-0.038
1.7,-0.034
1.701,-0.031
1.702,-0.028
1.703,-0.028
1.704,-0.029
1.705,-0.034
1.706,-0.032
1.707,-0.034
1.708,-0.034
1.709,-0.034
1.71,-0.036
1.711,-0.038
1.712,-0.034
1.713,-0.034
1.714,-0.038
1.715,-0.038
1.716,-0.036
1.717,-0.034
1.718,-0.034
1.719,-0.038
1.72,-0.038
1.721,-0.038
1.722,-0.036
1.723,-0.038
1.724,-0.036
1.725,-0.034
1.726,-0.03
1.727,-0.031
1.728,-0.034
1.729,-0.031
1.73,-0.033
1.731,-0.034
1.732,-0.036
1.733,-0.038
1.734,-0.036
1.735,-0.034
1.736,-0.034
1.737,-0.031
1.738,-0.033
1.739,-0.034
1.74,-0.036
1.741,-0.031
1.742,-0.034
1.743,-0.034
1.744,-0.036
1.745,-0.038
1.746,-0.038
1.747,-0.038
1.748,-0.036
1.749,-0.038
1.75,-0.034
1.751,-0.034
1.752,-0.034
1.753,-0.034
1.754,-0.034
1.755,-0.034
1.756,-0.036
1.757,-0.034
1.758,-0.031
1.759,-0.028
1.76,-0.032
1.761,-0.031
1.762,-0.031
1.763,-0.034
1.764,-0.031
1.765,-0.034
1.766,-0.034
1.767,-0.038
1.768,-0.036
1.769,-0.034
1.77,-0.036
1.771,-0.038
1.772,-0.039
1.773,-0.041
1.774,-0.034
1.775,-0.038
1.776,-0.038
1.777,-0.038
1.778,-0.038
1.779,-0.038
1.78,-0.033
1.781,-0.034
1.782,-0.039
1.783,-0.038
1.784,-0.038
1.785,-0.038
1.786,-0.038
1.787,-0.038
1.788,-0.039
1.789,-0.041
1.79,-0.041
1.791,-0.038
1.792,-0.042
1.793,-0.044
1.794,-0.048
1.795,-0.047
1.796,-0.042
1.797,-0.038
1.798,-0.039
1.799,-0.041
1.8,-0.041
1.801,-0.038
1.802,-0.042
1.803,-0.044
1.804,-0.042
1.805,-0.044
1.806,-0.045
1.807,-0.044
1.808,-0.044
1.809,-0.044
1.81,-0.044
1.811,-0.044
1.812,-0.041
1.813,-0.041
1.814,-0.041
1.815,-0.041
1.816,-0.041
1.817,-0.041
1.818,-0.038
1.819,-0.041
1.82,-0.042
1.821,-0.044
1.822,-0.045
1.823,-0.047
1.824,-0.047
1.825,-0.05
1.826,-0.048
1.827,-0.05
1.828,-0.05
1.829,-0.05
1.83,-0.047
1.831,-0.041
1.832,-0.044
1.833,-0.044
1.834,-0.047
1.835,-0.044
1.836,-0.042
1.837,-0.044
1.838,-0.048
1.839,-0.053
1.84,-0.053
1.841,-0.05
1.842,-0.052
1.843,-0.053
1.844,-0.051
1.845,-0.053
1.846,-0.052
1.847,-0.053
1.848,-0.053
1.849,-0.053
1.85,-0.055
1.851,-0.05
1.852,-0.05
1.853,-0.05
1.854,-0.054
1.855,-0.056
1.856,-0.056
1.857,-0.056
1.858,-0.053
1.859,-0.056
1.86,-0.058
1.861,-0.059
1.862,-0.059
1.863,-0.059
1.864,-0.056
1.865,-0.053
1.866,-0.054
1.867,-0.056
1.868,-0.055
1.869,-0.056
1.87,-0.059
1.871,-0.062
1.872,-0.066
1.873,-0.066
1.874,-0.064
1.875,-0.066
1.876,-0.064
1.877,-0.066
1.878,-0.066
1.879,-0.069
1.88,-0.064
1.881,-0.062
1.882,-0.067
1.883,-0.066
1.884,-0.062
1.885,-0.062
1.886,-0.064
1.887,-0.066
1.888,-0.067
1.889,-0.069
1.89,-0.067
1.891,-0.069
1.892,-0.069
1.893,-0.069
1.894,-0.072
1.895,-0.072
1.896,-0.069
1.897,-0.072
1.898,-0.071
1.899,-0.066
1.9,-0.067
1.901,-0.069
1.902,-0.068
1.903,-0.069
1.904,-0.072
1.905,-0.075
1.906,-0.073
1.907,-0.075
1.908,-0.069
1.909,-0.069
1.91,-0.066
1.911,-0.066
1.912,-0.069
1.913,-0.066
1.914,-0.07
1.915,-0.072
1.916,-0.073
1.917,-0.075
1.918,-0.076
1.919,-0.075
1.92,-0.077
1.921,-0.072
1.922,-0.074
1.923,-0.072
1.924,-0.069
1.925,-0.069
1.926,-0.072
1.927,-0.072
1.928,-0.071
1.929,-0.069
1.93,-0.068
1.931,-0.062
1.932,-0.067
1.933,-0.066
1.934,-0.069
1.935,-0.072
1.936,-0.071
1.937,-0.069
1.938,-0.072
1.939,-0.072
1.94,-0.072
1.941,-0.072
1.942,-0.072
1.943,-0.072
1.944,-0.073
1.945,-0.075
1.946,-0.075
1.947,-0.072
1.948,-0.072
1.949,-0.072
1.95,-0.072
1.951,-0.072
1.952,-0.071
1.953,-0.072
1.954,-0.072
1.955,-0.072
1.956,-0.07
1.957,-0.072
1.958,-0.074
1.959,-0.072
1.96,-0.076
1.961,-0.075
1.962,-0.075
1.963,-0.072
1.964,-0.074
1.965,-0.072
1.966,-0.072
1.967,-0.072
1.968,-0.072
1.969,-0.075
1.97,-0.074
1.971,-0.072
1.972,-0.072
1.973,-0.072
1.974,-0.073
1.975,-0.072
1.976,-0.074
1.977,-0.072
1.978,-0.073
1.979,-0.075
1.98,-0.075
1.981,-0.075
1.982,-0.075
1.983,-0.075
1.984,-0.079
1.985,-0.078
1.986,-0.083
1.987,-0.084
1.988,-0.082
1.989,-0.084
1.99,-0.077
1.991,-0.075
1.992,-0.077
1.993,-0.078
1.994,-0.076
1.995,-0.078
1.996,-0.075
1.997,-0.072
1.998,-0.073
1.999,-0.075
2,-0.078
2.001,-0.081
2.002,-0.082
2.003,-0.081
2.004,-0.08
2.005,-0.078
2.006,-0.078
2.007,-0.078
2.008,-0.079
2.009,-0.081
2.01,-0.078
2.011,-0.081
2.012,-0.08
2.013,-0.078
2.014,-0.076
2.015,-0.072
2.016,-0.072
2.017,-0.072
2.018,-0.073
2.019,-0.075
2.02,-0.075
2.021,-0.075
2.022,-0.075
2.023,-0.075
2.024,-0.076
2.025,-0.078
2.026,-0.078
2.027,-0.078
2.028,-0.079
2.029,-0.081
2.03,-0.078
2.031,-0.075
2.032,-0.075
2.033,-0.075
2.034,-0.076
2.035,-0.078
2.036,-0.078
2.037,-0.078
2.038,-0.079
2.039,-0.081
2.04,-0.08
2.041,-0.078
2.042,-0.078
2.043,-0.078
2.044,-0.079
2.045,-0.081
2.046,-0.078
2.047,-0.075
2.048,-0.076
2.049,-0.078
2.05,-0.077
2.051,-0.075
2.052,-0.075
2.053,-0.075
2.054,-0.076
2.055,-0.078
2.056,-0.075
2.057,-0.072
2.058,-0.073
2.059,-0.075
2.06,-0.076
2.061,-0.078
2.062,-0.077
2.063,-0.075
2.064,-0.075
2.065,-0.075
2.066,-0.075
2.067,-0.075
2.068,-0.075
2.069,-0.075
2.07,-0.076
2.071,-0.078
2.072,-0.078
2.073,-0.078
2.074,-0.075
2.075,-0.072
2.076,-0.075
2.077,-0.078
2.078,-0.078
2.079,-0.078
2.08,-0.078
2.081,-0.078
2.082,-0.078
2.083,-0.078
2.084,-0.077
2.085,-0.075
2.086,-0.075
2.087,-0.075
2.088,-0.075
2.089,-0.075
2.09,-0.074
2.091,-0.072
2.092,-0.072
2.093,-0.072
2.094,-0.072
2.095,-0.072
2.096,-0.073
2.097,-0.075
2.098,-0.075
2.099,-0.075
2.1,-0.075
2.101,-0.075
2.102,-0.075
2.103,-0.075
2.104,-0.076
2.105,-0.078
2.106,-0.077
2.107,-0.075
2.108,-0.075
2.109,-0.075
2.11,-0.075
2.111,-0.075
2.112,-0.074
2.113,-0.072
2.114,-0.072
2.115,-0.072
2.116,-0.073
2.117,-0.075
2.118,-0.074
2.119,-0.072
2.12,-0.073
2.121,-0.075
2.122,-0.075
2.123,-0.075
2.124,-0.076
2.125,-0.078
2.126,-0.078
2.127,-0.075
2.128,-0.072
2.129,-0.072
2.13,-0.072
2.131,-0.072
2.132,-0.073
2.133,-0.078
2.134,-0.082
2.135,-0.081
2.136,-0.081
2.137,-0.078
2.138,-0.078
2.139,-0.078
2.14,-0.074
2.141,-0.072
2.142,-0.072
2.143,-0.072
2.144,-0.072
2.145,-0.072
2.146,-0.072
2.147,-0.072
2.148,-0.075
2.149,-0.075
2.15,-0.072
2.151,-0.075
2.152,-0.079
2.153,-0.078
2.154,-0.081
2.155,-0.081
2.156,-0.075
2.157,-0.081
2.158,-0.084
2.159,-0.084
2.16,-0.08
2.161,-0.078
2.162,-0.074
2.163,-0.069
2.164,-0.07
2.165,-0.072
2.166,-0.072
2.167,-0.072
2.168,-0.071
2.169,-0.072
2.17,-0.072
2.171,-0.072
2.172,-0.078
2.173,-0.081
2.174,-0.08
2.175,-0.081
2.176,-0.08
2.177,-0.078
2.178,-0.075
2.179,-0.078
2.18,-0.076
2.181,-0.078
2.182,-0.075
2.183,-0.078
2.184,-0.077
2.185,-0.072
2.186,-0.075
2.187,-0.072
2.188,-0.072
2.189,-0.075
2.19,-0.078
2.191,-0.075
2.192,-0.079
2.193,-0.078
2.194,-0.074
2.195,-0.072
2.196,-0.075
2.197,-0.075
2.198,-0.076
2.199,-0.075
2.2,-0.074
2.201,-0.072
2.202,-0.078
2.203,-0.075
2.204,-0.072
2.205,-0.075
2.206,-0.076
2.207,-0.081
2.208,-0.081
2.209,-0.081
2.21,-0.079
2.211,-0.081
2.212,-0.081
2.213,-0.081
2.214,-0.081
2.215,-0.075
2.216,-0.078
2.217,-0.078
2.218,-0.075
2.219,-0.075
2.22,-0.076
2.221,-0.075
2.222,-0.077
2.223,-0.075
2.224,-0.079
2.225,-0.081
2.226,-0.082
2.227,-0.084
2.228,-0.077
2.229,-0.081
2.23,-0.08
2.231,-0.078
2.232,-0.078
2.233,-0.078
2.234,-0.078
2.235,-0.078
2.236,-0.078
2.237,-0.078
2.238,-0.077
2.239,-0.075
2.24,-0.075
2.241,-0.075
2.242,-0.076
2.243,-0.078
2.244,-0.077
2.245,-0.075
2.246,-0.079
2.247,-0.078
2.248,-0.079
2.249,-0.078
2.25,-0.077
2.251,-0.078
2.252,-0.079
2.253,-0.078
2.254,-0.077
2.255,-0.075
2.256,-0.078
2.257,-0.078
2.258,-0.078
2.259,-0.078
2.26,-0.078
2.261,-0.075
2.262,-0.074
2.263,-0.075
2.264,-0.075
2.265,-0.075
2.266,-0.075
2.267,-0.075
2.268,-0.078
2.269,-0.075
2.27,-0.074
2.271,-0.072
2.272,-0.068
2.273,-0.069
2.274,-0.073
2.275,-0.072
2.276,-0.072
2.277,-0.072
2.278,-0.072
2.279,-0.072
2.28,-0.071
2.281,-0.072
2.282,-0.072
2.283,-0.075
2.284,-0.081
2.285,-0.078
2.286,-0.08
2.287,-0.075
2.288,-0.072
2.289,-0.072
2.29,-0.071
2.291,-0.072
2.292,-0.072
2.293,-0.072
2.294,-0.069
2.295,-0.072
2.296,-0.072
2.297,-0.072
2.298,-0.073
2.299,-0.075
2.3,-0.074
2.301,-0.072
2.302,-0.075
2.303,-0.072
2.304,-0.072
2.305,-0.072
2.306,-0.072
2.307,-0.072
2.308,-0.072
2.309,-0.072
2.31,-0.072
2.311,-0.069
2.312,-0.072
2.313,-0.072
2.314,-0.071
2.315,-0.066
2.316,-0.069
2.317,-0.069
2.318,-0.071
2.319,-0.072
2.32,-0.072
2.321,-0.072
2.322,-0.072
2.323,-0.072
2.324,-0.075
2.325,-0.075
2.326,-0.073
2.327,-0.078
2.328,-0.074
2.329,-0.078
2.33,-0.074
2.331,-0.069
2.332,-0.073
2.333,-0.072
2.334,-0.071
2.335,-0.069
2.336,-0.072
2.337,-0.072
2.338,-0.069
2.339,-0.072
2.34,-0.072
2.341,-0.072
2.342,-0.072
2.343,-0.072
2.344,-0.073
2.345,-0.075
2.346,-0.074
2.347,-0.072
2.348,-0.072
2.349,-0.072
2.35,-0.072
2.351,-0.075
2.352,-0.072
2.353,-0.075
2.354,-0.073
2.355,-0.075
2.356,-0.075
2.357,-0.078
2.358,-0.077
2.359,-0.075
2.36,-0.069
2.361,-0.072
2.362,-0.072
2.363,-0.072
2.364,-0.071
2.365,-0.072
2.366,-0.072
2.367,-0.072
2.368,-0.072
2.369,-0.072
2.37,-0.073
2.371,-0.072
2.372,-0.071
2.373,-0.072
2.374,-0.072
2.375,-0.072
2.376,-0.072
2.377,-0.072
2.378,-0.072
2.379,-0.069
2.38,-0.073
2.381,-0.072
2.382,-0.072
2.383,-0.072
2.384,-0.075
2.385,-0.075
2.386,-0.075
2.387,-0.075
2.388,-0.075
2.389,-0.075
2.39,-0.074
2.391,-0.072
2.392,-0.072
2.393,-0.072
2.394,-0.072
2.395,-0.072
2.396,-0.072
2.397,-0.072
2.398,-0.075
2.399,-0.078
2.4,-0.074
2.401,-0.075
2.402,-0.074
2.403,-0.072
2.404,-0.072
2.405,-0.072
2.406,-0.073
2.407,-0.075
2.408,-0.075
2.409,-0.075
2.41,-0.075
2.411,-0.075
2.412,-0.075
2.413,-0.075
2.414,-0.072
2.415,-0.072
2.416,-0.071
2.417,-0.069
2.418,-0.072
2.419,-0.072
2.42,-0.073
2.421,-0.072
2.422,-0.07
2.423,-0.072
2.424,-0.073
2.425,-0.075
2.426,-0.072
2.427,-0.069
2.428,-0.061
2.429,-0.059
2.43,-0.056
2.431,-0.05
2.432,-0.047
2.433,-0.047
2.434,-0.039
2.435,-0.034
2.436,-0.028
2.437,-0.025
2.438,-0.019
2.439,-0.019
2.44,-0.014
2.441,-0.009
2.442,0.003
2.443,0.013
2.444,0.019
2.445,0.022
2.446,0.028
2.447,0.025
2.448,0.025
2.449,0.025
2.45,0.024
2.451,0.019
2.452,0.011
2.453,0.009
2.454,0.014
2.455,0.016
2.456,0.017
2.457,0.022
2.458,0.025
2.459,0.034
2.46,0.045
2.461,0.05
2.462,0.059
2.463,0.062
2.464,0.062
2.465,0.062
2.466,0.075
2.467,0.081
2.468,0.088
2.469,0.097
2.47,0.097
2.471,0.1
2.472,0.102
2.473,0.106
2.474,0.109
2.475,0.113
2.476,0.116
2.477,0.113
2.478,0.117
2.479,0.116
2.48,0.114
2.481,0.113
2.482,0.113
2.483,0.109
2.484,0.102
2.485,0.091
2.486,0.082
2.487,0.078
2.488,0.071
2.489,0.062
2.49,0.058
2.491,0.053
2.492,0.05
2.493,0.047
2.494,0.045
2.495,0.044
2.496,0.043
2.497,0.038
2.498,0.03
2.499,0.028
2.5,0.028
2.501,0.025
2.502,0.023
2.503,0.019
2.504,0.016
2.505,0.009
2.506,0
2.507,-0.013
2.508,-0.023
2.509,-0.031
2.51,-0.039
2.511,-0.047
2.512,-0.056
2.513,-0.062
2.514,-0.064
2.515,-0.062
2.516,-0.064
2.517,-0.062
2.518,-0.064
2.519,-0.062
2.52,-0.066
2.521,-0.066
2.522,-0.069
2.523,-0.069
2.524,-0.068
2.525,-0.069
2.526,-0.072
2.527,-0.075
2.528,-0.078
2.529,-0.081
2.53,-0.084
2.531,-0.084
2.532,-0.089
2.533,-0.091
2.534,-0.089
2.535,-0.091
2.536,-0.086
2.537,-0.088
2.538,-0.091
2.539,-0.097
2.54,-0.097
2.541,-0.1
2.542,-0.1
2.543,-0.1
2.544,-0.099
2.545,-0.1
2.546,-0.104
2.547,-0.106
2.548,-0.108
2.549,-0.106
2.55,-0.105
2.551,-0.106
2.552,-0.111
2.553,-0.113
2.554,-0.111
2.555,-0.113
2.556,-0.111
2.557,-0.109
2.558,-0.114
2.559,-0.113
2.56,-0.113
2.561,-0.113
2.562,-0.111
2.563,-0.113
2.564,-0.114
2.565,-0.113
2.566,-0.114
2.567,-0.116
2.568,-0.117
2.569,-0.119
2.57,-0.12
2.571,-0.119
2.572,-0.117
2.573,-0.119
2.574,-0.122
2.575,-0.119
2.576,-0.119
2.577,-0.119
2.578,-0.121
2.579,-0.122
2.58,-0.119
2.581,-0.119
2.582,-0.125
2.583,-0.125
2.584,-0.125
2.585,-0.134
2.586,-0.147
2.587,-0.156
2.588,-0.166
2.589,-0.172
2.59,-0.186
2.591,-0.188
2.592,-0.188
2.593,-0.172
2.594,-0.15
2.595,-0.128
2.596,-0.097
2.597,-0.069
2.598,-0.042
2.599,-0.019
2.6,0.003
2.601,0.031
2.602,0.052
2.603,0.103
2.604,0.158
2.605,0.238
2.606,0.322
2.607,0.406
2.608,0.489
2.609,0.575
2.61,0.667
2.611,0.756
2.612,0.847
2.613,0.916
2.614,0.981
2.615,1.056
2.616,1.147
2.617,1.206
2.618,1.272
2.619,1.306
2.62,1.322
2.621,1.303
2.622,1.264
2.623,1.203
2.624,1.145
2.625,1.066
2.626,0.978
2.627,0.878
2.628,0.774
2.629,0.684
2.63,0.587
2.631,0.516
2.632,0.446
2.633,0.413
2.634,0.384
2.635,0.369
2.636,0.362
2.637,0.35
2.638,0.331
2.639,0.303
2.64,0.272
2.641,0.253
2.642,0.239
2.643,0.219
2.644,0.206
2.645,0.197
2.646,0.181
2.647,0.166
2.648,0.152
2.649,0.137
2.65,0.131
2.651,0.125
2.652,0.117
2.653,0.103
2.654,0.089
2.655,0.081
2.656,0.07
2.657,0.062
2.658,0.053
2.659,0.044
2.66,0.039
2.661,0.031
2.662,0.022
2.663,0.013
2.664,0.008
2.665,-0.003
2.666,-0.007
2.667,-0.013
2.668,-0.016
2.669,-0.019
2.67,-0.022
2.671,-0.025
2.672,-0.028
2.673,-0.034
2.674,-0.039
2.675,-0.038
2.676,-0.036
2.677,-0.038
2.678,-0.044
2.679,-0.044
2.68,-0.047
2.681,-0.05
2.682,-0.054
2.683,-0.056
2.684,-0.059
2.685,-0.059
2.686,-0.061
2.687,-0.059
2.688,-0.062
2.689,-0.066
2.69,-0.064
2.691,-0.066
2.692,-0.066
2.693,-0.066
2.694,-0.066
2.695,-0.066
2.696,-0.068
2.697,-0.066
2.698,-0.07
2.699,-0.072
2.7,-0.069
2.701,-0.072
2.702,-0.071
2.703,-0.069
2.704,-0.069
2.705,-0.072
2.706,-0.069
2.707,-0.072
2.708,-0.068
2.709,-0.062
2.71,-0.061
2.711,-0.059
2.712,-0.059
2.713,-0.059
2.714,-0.061
2.715,-0.062
2.716,-0.064
2.717,-0.062
2.718,-0.067
2.719,-0.066
2.72,-0.066
2.721,-0.066
2.722,-0.062
2.723,-0.062
2.724,-0.061
2.725,-0.062
2.726,-0.062
2.727,-0.059
2.728,-0.061
2.729,-0.059
2.73,-0.056
2.731,-0.05
2.732,-0.05
2.733,-0.05
2.734,-0.051
2.735,-0.053
2.736,-0.052
2.737,-0.05
2.738,-0.048
2.739,-0.05
2.74,-0.05
2.741,-0.05
2.742,-0.053
2.743,-0.05
2.744,-0.047
2.745,-0.05
2.746,-0.049
2.747,-0.044
2.748,-0.044
2.749,-0.041
2.75,-0.041
2.751,-0.038
2.752,-0.038
2.753,-0.034
2.754,-0.036
2.755,-0.034
2.756,-0.033
2.757,-0.031
2.758,-0.032
2.759,-0.031
2.76,-0.028
2.761,-0.025
2.762,-0.017
2.763,-0.019
2.764,-0.022
2.765,-0.022
2.766,-0.023
2.767,-0.022
2.768,-0.019
2.769,-0.016
2.77,-0.017
2.771,-0.019
2.772,-0.017
2.773,-0.019
2.774,-0.013
2.775,-0.006
2.776,-0.006
2.777,-0.006
2.778,-0.001
2.779,-0.003
2.78,0
2.781,0.003
2.782,0.003
2.783,0.003
2.784,0.004
2.785,0.009
2.786,0.008
2.787,0.006
2.788,0.006
2.789,0.006
2.79,0.009
2.791,0.016
2.792,0.011
2.793,0.009
2.794,0.02
2.795,0.022
2.796,0.023
2.797,0.025
2.798,0.027
2.799,0.028
2.8,0.033
2.801,0.038
2.802,0.039
2.803,0.041
2.804,0.043
2.805,0.041
2.806,0.043
2.807,0.044
2.808,0.045
2.809,0.05
2.81,0.058
2.811,0.062
2.812,0.066
2.813,0.072
2.814,0.077
2.815,0.078
2.816,0.08
2.817,0.081
2.818,0.088
2.819,0.091
2.82,0.088
2.821,0.094
2.822,0.097
2.823,0.1
2.824,0.106
2.825,0.109
2.826,0.116
2.827,0.122
2.828,0.127
2.829,0.131
2.83,0.134
2.831,0.137
2.832,0.145
2.833,0.15
2.834,0.156
2.835,0.156
2.836,0.159
2.837,0.166
2.838,0.171
2.839,0.175
2.84,0.181
2.841,0.191
2.842,0.199
2.843,0.2
2.844,0.206
2.845,0.209
2.846,0.217
2.847,0.225
2.848,0.233
2.849,0.238
2.85,0.244
2.851,0.247
2.852,0.249
2.853,0.253
2.854,0.259
2.855,0.266
2.856,0.269
2.857,0.269
2.858,0.279
2.859,0.287
2.86,0.289
2.861,0.294
2.862,0.301
2.863,0.303
2.864,0.313
2.865,0.322
2.866,0.324
2.867,0.325
2.868,0.329
2.869,0.334
2.87,0.338
2.871,0.341
2.872,0.342
2.873,0.344
2.874,0.344
2.875,0.347
2.876,0.348
2.877,0.353
2.878,0.356
2.879,0.356
2.88,0.356
2.881,0.356
2.882,0.358
2.883,0.353
2.884,0.354
2.885,0.353
2.886,0.351
2.887,0.35
2.888,0.347
2.889,0.341
2.89,0.336
2.891,0.331
2.892,0.322
2.893,0.316
2.894,0.311
2.895,0.306
2.896,0.297
2.897,0.294
2.898,0.283
2.899,0.275
2.9,0.269
2.901,0.259
2.902,0.247
2.903,0.234
2.904,0.228
2.905,0.219
2.906,0.211
2.907,0.2
2.908,0.192
2.909,0.181
2.91,0.172
2.911,0.163
2.912,0.156
2.913,0.147
2.914,0.141
2.915,0.134
2.916,0.131
2.917,0.125
2.918,0.114
2.919,0.106
2.92,0.096
2.921,0.088
2.922,0.081
2.923,0.069
2.924,0.064
2.925,0.062
2.926,0.058
2.927,0.05
2.928,0.043
2.929,0.034
2.93,0.031
2.931,0.028
2.932,0.021
2.933,0.016
2.934,0.011
2.935,0.009
2.936,0
2.937,-0.009
2.938,-0.014
2.939,-0.019
2.94,-0.021
2.941,-0.022
2.942,-0.025
2.943,-0.028
2.944,-0.03
2.945,-0.031
2.946,-0.039
2.947,-0.038
2.948,-0.041
2.949,-0.047
2.95,-0.047
2.951,-0.047
2.952,-0.054
2.953,-0.059
2.954,-0.059
2.955,-0.062
2.956,-0.062
2.957,-0.066
2.958,-0.068
2.959,-0.066
2.96,-0.066
2.961,-0.066
2.962,-0.068
2.963,-0.069
2.964,-0.07
2.965,-0.069
2.966,-0.073
2.967,-0.075
2.968,-0.077
2.969,-0.075
2.97,-0.079
2.971,-0.081
2.972,-0.081
2.973,-0.084
2.974,-0.084
2.975,-0.084
2.976,-0.083
2.977,-0.084
2.978,-0.084
2.979,-0.084
2.98,-0.084
2.981,-0.084
2.982,-0.084
2.983,-0.084
2.984,-0.084
2.985,-0.084
2.986,-0.088
2.987,-0.088
2.988,-0.086
2.989,-0.088
2.99,-0.089
2.991,-0.088
2.992,-0.092
2.993,-0.091
2.994,-0.091
2.995,-0.091
2.996,-0.089
2.997,-0.088
2.998,-0.092
2.999,-0.091
3,-0.091
3.001,-0.091
3.002,-0.092
3.003,-0.094
3.004,-0.092
3.005,-0.094
3.006,-0.092
3.007,-0.091
3.008,-0.095
3.009,-0.094
3.01,-0.092
3.011,-0.094
3.012,-0.096
3.013,-0.094
3.014,-0.097
3.015,-0.094
3.016,-0.094
3.017,-0.094
3.018,-0.094
3.019,-0.094
3.02,-0.097
3.021,-0.097
3.022,-0.096
3.023,-0.097
3.024,-0.097
3.025,-0.097
3.026,-0.096
3.027,-0.094
3.028,-0.098
3.029,-0.1
3.03,-0.1
3.031,-0.097
3.032,-0.098
3.033,-0.1
3.034,-0.099
3.035,-0.094
3.036,-0.097
3.037,-0.097
3.038,-0.089
3.039,-0.091
3.04,-0.095
3.041,-0.097
3.042,-0.097
3.043,-0.097
3.044,-0.096
3.045,-0.094
3.046,-0.089
3.047,-0.091
3.048,-0.098
3.049,-0.103
3.05,-0.097
3.051,-0.1
3.052,-0.1
3.053,-0.1
3.054,-0.1
3.055,-0.1
3.056,-0.099
3.057,-0.097
3.058,-0.101
3.059,-0.1
3.06,-0.099
3.061,-0.097
3.062,-0.094
3.063,-0.091
3.064,-0.092
3.065,-0.094
3.066,-0.092
3.067,-0.094
3.068,-0.092
3.069,-0.094
3.07,-0.092
3.071,-0.094
3.072,-0.098
3.073,-0.097
3.074,-0.096
3.075,-0.091
3.076,-0.094
3.077,-0.091
3.078,-0.086
3.079,-0.088
3.08,-0.089
3.081,-0.088
3.082,-0.091
3.083,-0.088
3.084,-0.091
3.085,-0.091
3.086,-0.091
3.087,-0.091
3.088,-0.092
3.089,-0.091
3.09,-0.092
3.091,-0.094
3.092,-0.094
3.093,-0.097
3.094,-0.096
3.095,-0.094
3.096,-0.091
3.097,-0.088
3.098,-0.089
3.099,-0.091
3.1,-0.088
3.101,-0.091
3.102,-0.089
3.103,-0.091
3.104,-0.091
3.105,-0.094
3.106,-0.095
3.107,-0.097
3.108,-0.098
3.109,-0.1
3.11,-0.092
3.111,-0.091
3.112,-0.091
3.113,-0.091
3.114,-0.094
3.115,-0.094
3.116,-0.092
3.117,-0.094
3.118,-0.094
3.119,-0.094
3.12,-0.092
3.121,-0.091
3.122,-0.095
3.123,-0.097
3.124,-0.097
3.125,-0.097
3.126,-0.097
3.127,-0.094
3.128,-0.097
3.129,-0.097
3.13,-0.097
3.131,-0.097
3.132,-0.098
3.133,-0.1
3.134,-0.103
3.135,-0.1
3.136,-0.101
3.137,-0.103
3.138,-0.103
3.139,-0.103
3.14,-0.099
3.141,-0.1
3.142,-0.099
3.143,-0.1
3.144,-0.097
3.145,-0.097
3.146,-0.101
3.147,-0.103
3.148,-0.104
3.149,-0.106
3.15,-0.1
3.151,-0.1
3.152,-0.104
3.153,-0.103
3.154,-0.103
3.155,-0.103
3.156,-0.105
3.157,-0.103
3.158,-0.103
3.159,-0.106
3.16,-0.104
3.161,-0.106
3.162,-0.105
3.163,-0.106
3.164,-0.106
3.165,-0.106
3.166,-0.106
3.167,-0.103
3.168,-0.106
3.169,-0.106
3.17,-0.106
3.171,-0.106
3.172,-0.106
3.173,-0.106
3.174,-0.105
3.175,-0.103
3.176,-0.103
3.177,-0.103
3.178,-0.105
3.179,-0.103
3.18,-0.106
3.181,-0.109
3.182,-0.106
3.183,-0.106
3.184,-0.109
3.185,-0.109
3.186,-0.111
3.187,-0.109
3.188,-0.113
3.189,-0.109
3.19,-0.109
3.191,-0.113
3.192,-0.108
3.193,-0.106
3.194,-0.109
3.195,-0.109
3.196,-0.111
3.197,-0.113
3.198,-0.113
3.199,-0.109
3.2,-0.108
3.201,-0.106
3.202,-0.105
3.203,-0.106
3.204,-0.107
3.205,-0.106
3.206,-0.109
3.207,-0.109
3.208,-0.107
3.209,-0.109
3.21,-0.108
3.211,-0.106
3.212,-0.109
3.213,-0.109
3.214,-0.111
3.215,-0.109
3.216,-0.111
3.217,-0.109
3.218,-0.113
3.219,-0.109
3.22,-0.108
3.221,-0.109
3.222,-0.106
3.223,-0.109
3.224,-0.109
3.225,-0.109
3.226,-0.109
3.227,-0.109
3.228,-0.105
3.229,-0.106
3.23,-0.103
3.231,-0.106
3.232,-0.109
3.233,-0.109
3.234,-0.108
3.235,-0.109
3.236,-0.109
3.237,-0.109
3.238,-0.111
3.239,-0.113
3.24,-0.109
3.241,-0.113
3.242,-0.111
3.243,-0.113
3.244,-0.114
3.245,-0.116
3.246,-0.109
3.247,-0.106
3.248,-0.107
3.249,-0.109
3.25,-0.109
3.251,-0.109
3.252,-0.109
3.253,-0.109
3.254,-0.109
3.255,-0.109
3.256,-0.105
3.257,-0.106
3.258,-0.111
3.259,-0.109
3.26,-0.106
3.261,-0.106
3.262,-0.109
3.263,-0.109
3.264,-0.108
3.265,-0.103
3.266,-0.102
3.267,-0.103
3.268,-0.103
3.269,-0.106
3.27,-0.104
3.271,-0.106
3.272,-0.104
3.273,-0.109
3.274,-0.106
3.275,-0.103
3.276,-0.103
3.277,-0.103
3.278,-0.106
3.279,-0.106
3.28,-0.106
3.281,-0.106
3.282,-0.106
3.283,-0.106
3.284,-0.102
3.285,-0.103
3.286,-0.103
3.287,-0.103
3.288,-0.103
3.289,-0.103
3.29,-0.103
3.291,-0.103
3.292,-0.104
3.293,-0.106
3.294,-0.097
3.295,-0.1
3.296,-0.104
3.297,-0.103
3.298,-0.106
3.299,-0.103
3.3,-0.097
3.301,-0.094
3.302,-0.097
3.303,-0.094
3.304,-0.095
3.305,-0.097
3.306,-0.097
3.307,-0.097
3.308,-0.094
3.309,-0.094
3.31,-0.101
3.311,-0.103
3.312,-0.098
3.313,-0.1
3.314,-0.096
3.315,-0.091
3.316,-0.091
3.317,-0.091
3.318,-0.092
3.319,-0.091
3.32,-0.094
3.321,-0.094
3.322,-0.094
3.323,-0.094
3.324,-0.094
3.325,-0.094
3.326,-0.094
3.327,-0.094
3.328,-0.094
3.329,-0.094
3.33,-0.094
3.331,-0.094
3.332,-0.094
3.333,-0.094
3.334,-0.094
3.335,-0.094
3.336,-0.092
3.337,-0.091
3.338,-0.089
3.339,-0.088
3.34,-0.088
3.341,-0.088
3.342,-0.089
3.343,-0.091
3.344,-0.092
3.345,-0.094
3.346,-0.094
3.347,-0.094
3.348,-0.091
3.349,-0.088
3.35,-0.088
3.351,-0.088
3.352,-0.086
3.353,-0.084
3.354,-0.086
3.355,-0.084
3.356,-0.086
3.357,-0.088
3.358,-0.088
3.359,-0.088
3.36,-0.089
3.361,-0.091
3.362,-0.089
3.363,-0.091
3.364,-0.088
3.365,-0.088
3.366,-0.084
3.367,-0.081
3.368,-0.083
3.369,-0.081
3.37,-0.081
3.371,-0.081
3.372,-0.081
3.373,-0.081
3.374,-0.081
3.375,-0.081
3.376,-0.077
3.377,-0.075
3.378,-0.078
3.379,-0.078
3.38,-0.076
3.381,-0.078
3.382,-0.078
3.383,-0.075
3.384,-0.077
3.385,-0.075
3.386,-0.076
3.387,-0.075
3.388,-0.075
3.389,-0.075
3.39,-0.074
3.391,-0.072
3.392,-0.072
3.393,-0.072
3.394,-0.072
3.395,-0.072
3.396,-0.074
3.397,-0.072
3.398,-0.071
3.399,-0.069
3.4,-0.067
3.401,-0.069
3.402,-0.072
3.403,-0.072
3.404,-0.071
3.405,-0.066
3.406,-0.07
3.407,-0.069
3.408,-0.07
3.409,-0.069
3.41,-0.071
3.411,-0.069
3.412,-0.064
3.413,-0.066
3.414,-0.062
3.415,-0.062
3.416,-0.066
3.417,-0.069
3.418,-0.066
3.419,-0.069
3.42,-0.067
3.421,-0.066
3.422,-0.064
3.423,-0.066
3.424,-0.066
3.425,-0.066
3.426,-0.059
3.427,-0.056
3.428,-0.053
3.429,-0.056
3.43,-0.054
3.431,-0.053
3.432,-0.056
3.433,-0.056
3.434,-0.061
3.435,-0.062
3.436,-0.059
3.437,-0.053
3.438,-0.053
3.439,-0.053
3.44,-0.053
3.441,-0.056
3.442,-0.052
3.443,-0.053
3.444,-0.054
3.445,-0.053
3.446,-0.053
3.447,-0.053
3.448,-0.05
3.449,-0.053
3.45,-0.05
3.451,-0.05
3.452,-0.05
3.453,-0.05
3.454,-0.051
3.455,-0.047
3.456,-0.052
3.457,-0.05
3.458,-0.05
3.459,-0.05
3.46,-0.05
3.461,-0.05
3.462,-0.05
3.463,-0.05
3.464,-0.049
3.465,-0.047
3.466,-0.047
3.467,-0.047
3.468,-0.046
3.469,-0.044
3.47,-0.042
3.471,-0.041
3.472,-0.039
3.473,-0.041
3.474,-0.039
3.475,-0.041
3.476,-0.038
3.477,-0.038
3.478,-0.041
3.479,-0.041
3.48,-0.038
3.481,-0.038
3.482,-0.036
3.483,-0.038
3.484,-0.041
3.485,-0.044
3.486,-0.042
3.487,-0.041
3.488,-0.039
3.489,-0.041
3.49,-0.044
3.491,-0.044
3.492,-0.042
3.493,-0.041
3.494,-0.039
3.495,-0.041
3.496,-0.039
3.497,-0.041
3.498,-0.041
3.499,-0.038
3.5,-0.042
3.501,-0.047
3.502,-0.044
3.503,-0.044
3.504,-0.045
3.505,-0.047
3.506,-0.048
3.507,-0.05
3.508,-0.053
3.509,-0.05
3.51,-0.05
3.511,-0.056
3.512,-0.053
3.513,-0.056
3.514,-0.056
3.515,-0.056
3.516,-0.056
3.517,-0.056
3.518,-0.059
3.519,-0.059
3.52,-0.059
3.521,-0.056
3.522,-0.061
3.523,-0.062
3.524,-0.062
3.525,-0.062
3.526,-0.064
3.527,-0.066
3.528,-0.069
3.529,-0.075
3.53,-0.071
3.531,-0.069
3.532,-0.069
3.533,-0.069
3.534,-0.069
3.535,-0.069
3.536,-0.066
3.537,-0.062
3.538,-0.061
3.539,-0.066
3.54,-0.066
3.541,-0.066
3.542,-0.066
3.543,-0.072
3.544,-0.071
3.545,-0.072
3.546,-0.076
3.547,-0.075
3.548,-0.072
3.549,-0.072
3.55,-0.072
3.551,-0.075
3.552,-0.075
3.553,-0.072
3.554,-0.078
3.555,-0.078
3.556,-0.083
3.557,-0.078
3.558,-0.075
3.559,-0.078
3.56,-0.078
3.561,-0.081
3.562,-0.078
3.563,-0.078
3.564,-0.078
3.565,-0.075
3.566,-0.079
3.567,-0.081
3.568,-0.081
3.569,-0.081
3.57,-0.081
3.571,-0.081
3.572,-0.084
3.573,-0.088
3.574,-0.088
3.575,-0.088
3.576,-0.088
3.577,-0.088
3.578,-0.091
3.579,-0.088
3.58,-0.091
3.581,-0.088
3.582,-0.089
3.583,-0.091
3.584,-0.092
3.585,-0.091
3.586,-0.094
3.587,-0.091
3.588,-0.094
3.589,-0.094
3.59,-0.092
3.591,-0.091
3.592,-0.097
3.593,-0.1
3.594,-0.097
3.595,-0.094
3.596,-0.094
3.597,-0.094
3.598,-0.092
3.599,-0.094
3.6,-0.098
3.601,-0.1
3.602,-0.1
3.603,-0.1
3.604,-0.1
3.605,-0.1
3.606,-0.098
3.607,-0.103
3.608,-0.101
3.609,-0.103
3.61,-0.099
3.611,-0.097
3.612,-0.098
3.613,-0.1
3.614,-0.1
3.615,-0.1
3.616,-0.101
3.617,-0.103
3.618,-0.104
3.619,-0.106
3.62,-0.107
3.621,-0.109
3.622,-0.109
3.623,-0.109
3.624,-0.109
3.625,-0.109
3.626,-0.111
3.627,-0.109
3.628,-0.113
3.629,-0.113
3.63,-0.111
3.631,-0.109
3.632,-0.111
3.633,-0.113
3.634,-0.113
3.635,-0.113
3.636,-0.113
3.637,-0.113
3.638,-0.113
3.639,-0.113
3.64,-0.116
3.641,-0.116
3.642,-0.116
3.643,-0.116
3.644,-0.114
3.645,-0.116
3.646,-0.116
3.647,-0.116
3.648,-0.114
3.649,-0.113
3.65,-0.111
3.651,-0.109
3.652,-0.111
3.653,-0.109
3.654,-0.111
3.655,-0.109
3.656,-0.108
3.657,-0.103
3.658,-0.094
3.659,-0.084
3.66,-0.081
3.661,-0.075
3.662,-0.073
3.663,-0.069
3.664,-0.064
3.665,-0.053
3.666,-0.051
3.667,-0.05
3.668,-0.048
3.669,-0.041
3.67,-0.033
3.671,-0.028
3.672,-0.031
3.673,-0.028
3.674,-0.03
3.675,-0.028
3.676,-0.028
3.677,-0.028
3.678,-0.03
3.679,-0.034
3.68,-0.038
3.681,-0.034
3.682,-0.034
3.683,-0.034
3.684,-0.029
3.685,-0.028
3.686,-0.016
3.687,-0.003
3.688,-0.001
3.689,0.006
3.69,0.013
3.691,0.019
3.692,0.019
3.693,0.025
3.694,0.029
3.695,0.034
3.696,0.041
3.697,0.041
3.698,0.041
3.699,0.041
3.7,0.047
3.701,0.047
3.702,0.047
3.703,0.05
3.704,0.05
3.705,0.056
3.706,0.054
3.707,0.053
3.708,0.051
3.709,0.053
3.71,0.05
3.711,0.044
3.712,0.031
3.713,0.019
3.714,0.016
3.715,0.013
3.716,0.005
3.717,0
3.718,-0.004
3.719,-0.009
3.72,-0.014
3.721,-0.019
3.722,-0.025
3.723,-0.028
3.724,-0.027
3.725,-0.028
3.726,-0.029
3.727,-0.034
3.728,-0.041
3.729,-0.044
3.73,-0.05
3.731,-0.056
3.732,-0.07
3.733,-0.084
3.734,-0.094
3.735,-0.1
3.736,-0.106
3.737,-0.113
3.738,-0.119
3.739,-0.125
3.74,-0.128
3.741,-0.131
3.742,-0.131
3.743,-0.131
3.744,-0.131
3.745,-0.137
3.746,-0.137
3.747,-0.141
3.748,-0.141
3.749,-0.144
3.75,-0.143
3.751,-0.141
3.752,-0.145
3.753,-0.15
3.754,-0.153
3.755,-0.156
3.756,-0.159
3.757,-0.163
3.758,-0.161
3.759,-0.163
3.76,-0.166
3.761,-0.169
3.762,-0.172
3.763,-0.169
3.764,-0.171
3.765,-0.169
3.766,-0.175
3.767,-0.178
3.768,-0.181
3.769,-0.181
3.77,-0.18
3.771,-0.178
3.772,-0.181
3.773,-0.184
3.774,-0.184
3.775,-0.188
3.776,-0.191
3.777,-0.194
3.778,-0.196
3.779,-0.197
3.78,-0.198
3.781,-0.197
3.782,-0.197
3.783,-0.197
3.784,-0.196
3.785,-0.197
3.786,-0.197
3.787,-0.2
3.788,-0.2
3.789,-0.2
3.79,-0.203
3.791,-0.203
3.792,-0.201
3.793,-0.203
3.794,-0.204
3.795,-0.206
3.796,-0.205
3.797,-0.203
3.798,-0.2
3.799,-0.2
3.8,-0.203
3.801,-0.206
3.802,-0.203
3.803,-0.203
3.804,-0.202
3.805,-0.203
3.806,-0.209
3.807,-0.212
3.808,-0.214
3.809,-0.219
3.81,-0.222
3.811,-0.228
3.812,-0.238
3.813,-0.244
3.814,-0.251
3.815,-0.263
3.816,-0.269
3.817,-0.278
3.818,-0.278
3.819,-0.278
3.82,-0.267
3.821,-0.25
3.822,-0.224
3.823,-0.194
3.824,-0.166
3.825,-0.134
3.826,-0.116
3.827,-0.097
3.828,-0.069
3.829,-0.041
3.83,0.016
3.831,0.069
3.832,0.153
3.833,0.234
3.834,0.313
3.835,0.394
3.836,0.481
3.837,0.572
3.838,0.659
3.839,0.747
3.84,0.816
3.841,0.887
3.842,0.962
3.843,1.044
3.844,1.106
3.845,1.172
3.846,1.214
3.847,1.238
3.848,1.213
3.849,1.175
3.85,1.122
3.851,1.066
3.852,0.984
3.853,0.9
3.854,0.797
3.855,0.694
3.856,0.597
3.857,0.497
3.858,0.427
3.859,0.359
3.86,0.327
3.861,0.291
3.862,0.279
3.863,0.275
3.864,0.258
3.865,0.238
3.866,0.209
3.867,0.178
3.868,0.161
3.869,0.15
3.87,0.127
3.871,0.106
3.872,0.092
3.873,0.075
3.874,0.061
3.875,0.053
3.876,0.043
3.877,0.034
3.878,0.031
3.879,0.025
3.88,0.013
3.881,0.003
3.882,-0.004
3.883,-0.019
3.884,-0.029
3.885,-0.041
3.886,-0.05
3.887,-0.056
3.888,-0.072
3.889,-0.088
3.89,-0.094
3.891,-0.094
3.892,-0.103
3.893,-0.106
3.894,-0.108
3.895,-0.109
3.896,-0.114
3.897,-0.119
3.898,-0.122
3.899,-0.122
3.9,-0.124
3.901,-0.128
3.902,-0.129
3.903,-0.131
3.904,-0.134
3.905,-0.141
3.906,-0.139
3.907,-0.141
3.908,-0.144
3.909,-0.147
3.91,-0.15
3.911,-0.156
3.912,-0.156
3.913,-0.156
3.914,-0.152
3.915,-0.15
3.916,-0.15
3.917,-0.15
3.918,-0.154
3.919,-0.156
3.92,-0.156
3.921,-0.156
3.922,-0.156
3.923,-0.159
3.924,-0.158
3.925,-0.159
3.926,-0.161
3.927,-0.159
3.928,-0.163
3.929,-0.163
3.93,-0.164
3.931,-0.163
3.932,-0.163
3.933,-0.159
3.934,-0.158
3.935,-0.15
3.936,-0.148
3.937,-0.15
3.938,-0.149
3.939,-0.147
3.94,-0.147
3.941,-0.147
3.942,-0.15
3.943,-0.153
3.944,-0.15
3.945,-0.153
3.946,-0.15
3.947,-0.15
3.948,-0.15
3.949,-0.147
3.95,-0.148
3.951,-0.147
3.952,-0.146
3.953,-0.144
3.954,-0.139
3.955,-0.141
3.956,-0.141
3.957,-0.137
3.958,-0.133
3.959,-0.134
3.96,-0.134
3.961,-0.134
3.962,-0.133
3.963,-0.131
3.964,-0.133
3.965,-0.131
3.966,-0.131
3.967,-0.131
3.968,-0.131
3.969,-0.131
3.97,-0.125
3.971,-0.122
3.972,-0.125
3.973,-0.125
3.974,-0.122
3.975,-0.122
3.976,-0.12
3.977,-0.122
3.978,-0.117
3.979,-0.116
3.98,-0.113
3.981,-0.113
3.982,-0.109
3.983,-0.109
3.984,-0.109
3.985,-0.109
3.986,-0.107
3.987,-0.109
3.988,-0.109
3.989,-0.103
3.99,-0.103
3.991,-0.1
3.992,-0.098
3.993,-0.1
3.994,-0.096
3.995,-0.094
3.996,-0.094
3.997,-0.094
3.998,-0.094
3.999,-0.091
4,-0.091
4.001,-0.088
4.002,-0.084
4.003,-0.084
4.004,-0.088
4.005,-0.084
4.006,-0.084
4.007,-0.084
4.008,-0.081
4.009,-0.075
4.01,-0.071
4.011,-0.069
4.012,-0.066
4.013,-0.066
4.014,-0.064
4.015,-0.059
4.016,-0.058
4.017,-0.059
4.018,-0.056
4.019,-0.056
4.02,-0.056
4.021,-0.053
4.022,-0.053
4.023,-0.05
4.024,-0.049
4.025,-0.044
4.026,-0.041
4.027,-0.038
4.028,-0.034
4.029,-0.031
4.03,-0.025
4.031,-0.019
4.032,-0.022
4.033,-0.022
4.034,-0.017
4.035,-0.016
4.036,-0.013
4.037,-0.006
4.038,-0.002
4.039,0
4.04,0.002
4.041,0.006
4.042,0.013
4.043,0.019
4.044,0.021
4.045,0.025
4.046,0.028
4.047,0.028
4.048,0.038
4.049,0.041
4.05,0.045
4.051,0.05
4.052,0.05
4.053,0.056
4.054,0.062
4.055,0.069
4.056,0.075
4.057,0.078
4.058,0.08
4.059,0.084
4.06,0.091
4.061,0.1
4.062,0.103
4.063,0.113
4.064,0.121
4.065,0.125
4.066,0.128
4.067,0.128
4.068,0.136
4.069,0.147
4.07,0.15
4.071,0.156
4.072,0.161
4.073,0.169
4.074,0.175
4.075,0.184
4.076,0.189
4.077,0.194
4.078,0.2
4.079,0.206
4.08,0.214
4.081,0.222
4.082,0.228
4.083,0.234
4.084,0.239
4.085,0.247
4.086,0.25
4.087,0.256
4.088,0.263
4.089,0.266
4.09,0.267
4.091,0.275
4.092,0.283
4.093,0.287
4.094,0.291
4.095,0.294
4.096,0.297
4.097,0.3
4.098,0.303
4.099,0.306
4.1,0.309
4.101,0.309
4.102,0.317
4.103,0.322
4.104,0.324
4.105,0.325
4.106,0.325
4.107,0.325
4.108,0.326
4.109,0.328
4.11,0.323
4.111,0.325
4.112,0.323
4.113,0.322
4.114,0.317
4.115,0.316
4.116,0.314
4.117,0.309
4.118,0.303
4.119,0.297
4.12,0.297
4.121,0.294
4.122,0.284
4.123,0.269
4.124,0.263
4.125,0.253
4.126,0.247
4.127,0.241
4.128,0.231
4.129,0.222
4.13,0.212
4.131,0.206
4.132,0.197
4.133,0.188
4.134,0.179
4.135,0.178
4.136,0.167
4.137,0.159
4.138,0.152
4.139,0.141
4.14,0.128
4.141,0.122
4.142,0.116
4.143,0.109
4.144,0.103
4.145,0.097
4.146,0.091
4.147,0.081
4.148,0.076
4.149,0.072
4.15,0.059
4.151,0.053
4.152,0.049
4.153,0.044
4.154,0.038
4.155,0.031
4.156,0.025
4.157,0.019
4.158,0.013
4.159,0.006
4.16,0.004
4.161,0
4.162,-0.002
4.163,-0.006
4.164,-0.011
4.165,-0.013
4.166,-0.016
4.167,-0.019
4.168,-0.022
4.169,-0.025
4.17,-0.029
4.171,-0.034
4.172,-0.038
4.173,-0.047
4.174,-0.048
4.175,-0.05
4.176,-0.053
4.177,-0.053
4.178,-0.049
4.179,-0.05
4.18,-0.054
4.181,-0.056
4.182,-0.058
4.183,-0.056
4.184,-0.059
4.185,-0.062
4.186,-0.064
4.187,-0.066
4.188,-0.064
4.189,-0.066
4.19,-0.07
4.191,-0.072
4.192,-0.068
4.193,-0.069
4.194,-0.068
4.195,-0.069
4.196,-0.069
4.197,-0.072
4.198,-0.071
4.199,-0.069
4.2,-0.071
4.201,-0.069
4.202,-0.069
4.203,-0.069
4.204,-0.073
4.205,-0.075
4.206,-0.074
4.207,-0.072
4.208,-0.073
4.209,-0.075
4.21,-0.075
4.211,-0.075
4.212,-0.072
4.213,-0.072
4.214,-0.073
4.215,-0.072
4.216,-0.071
4.217,-0.072
4.218,-0.071
4.219,-0.072
4.22,-0.069
4.221,-0.069
4.222,-0.069
4.223,-0.069
4.224,-0.069
4.225,-0.072
4.226,-0.07
4.227,-0.072
4.228,-0.072
4.229,-0.072
4.23,-0.071
4.231,-0.069
4.232,-0.071
4.233,-0.069
4.234,-0.068
4.235,-0.069
4.236,-0.066
4.237,-0.062
4.238,-0.064
4.239,-0.069
4.24,-0.069
4.241,-0.072
4.242,-0.069
4.243,-0.069
4.244,-0.068
4.245,-0.066
4.246,-0.066
4.247,-0.066
4.248,-0.062
4.249,-0.062
4.25,-0.066
4.251,-0.066
4.252,-0.066
4.253,-0.066
4.254,-0.064
4.255,-0.066
4.256,-0.066
4.257,-0.066
4.258,-0.059
4.259,-0.056
4.26,-0.056
4.261,-0.056
4.262,-0.054
4.263,-0.059
4.264,-0.061
4.265,-0.056
4.266,-0.056
4.267,-0.056
4.268,-0.055
4.269,-0.053
4.27,-0.053
4.271,-0.053
4.272,-0.056
4.273,-0.056
4.274,-0.056
4.275,-0.056
4.276,-0.058
4.277,-0.053
4.278,-0.053
4.279,-0.05
4.28,-0.049
4.281,-0.047
4.282,-0.047
4.283,-0.047
4.284,-0.044
4.285,-0.044
4.286,-0.042
4.287,-0.044
4.288,-0.045
4.289,-0.047
4.29,-0.046
4.291,-0.044
4.292,-0.042
4.293,-0.038
4.294,-0.038
4.295,-0.038
4.296,-0.042
4.297,-0.041
4.298,-0.038
4.299,-0.038
4.3,-0.033
4.301,-0.034
4.302,-0.034
4.303,-0.038
4.304,-0.036
4.305,-0.034
4.306,-0.036
4.307,-0.038
4.308,-0.039
4.309,-0.041
4.31,-0.034
4.311,-0.038
4.312,-0.038
4.313,-0.038
4.314,-0.038
4.315,-0.038
4.316,-0.033
4.317,-0.034
4.318,-0.038
4.319,-0.034
4.32,-0.034
4.321,-0.034
4.322,-0.034
4.323,-0.034
4.324,-0.034
4.325,-0.034
4.326,-0.036
4.327,-0.034
4.328,-0.034
4.329,-0.031
4.33,-0.033
4.331,-0.028
4.332,-0.028
4.333,-0.028
4.334,-0.029
4.335,-0.031
4.336,-0.031
4.337,-0.028
4.338,-0.031
4.339,-0.031
4.34,-0.03
4.341,-0.031
4.342,-0.034
4.343,-0.034
4.344,-0.034
4.345,-0.034
4.346,-0.034
4.347,-0.034
4.348,-0.033
4.349,-0.034
4.35,-0.034
4.351,-0.034
4.352,-0.033
4.353,-0.031
4.354,-0.027
4.355,-0.028
4.356,-0.028
4.357,-0.028
4.358,-0.028
4.359,-0.028
4.36,-0.029
4.361,-0.034
4.362,-0.031
4.363,-0.031
4.364,-0.031
4.365,-0.031
4.366,-0.031
4.367,-0.028
4.368,-0.03
4.369,-0.028
4.37,-0.031
4.371,-0.028
4.372,-0.027
4.373,-0.028
4.374,-0.029
4.375,-0.031
4.376,-0.032
4.377,-0.031
4.378,-0.034
4.379,-0.038
4.38,-0.034
4.381,-0.034
4.382,-0.033
4.383,-0.034
4.384,-0.034
4.385,-0.034
4.386,-0.039
4.387,-0.038
4.388,-0.036
4.389,-0.034
4.39,-0.041
4.391,-0.044
4.392,-0.042
4.393,-0.041
4.394,-0.038
4.395,-0.041
4.396,-0.041
4.397,-0.041
4.398,-0.041
4.399,-0.041
4.4,-0.041
4.401,-0.041
4.402,-0.041
4.403,-0.041
4.404,-0.041
4.405,-0.044
4.406,-0.042
4.407,-0.041
4.408,-0.042
4.409,-0.041
4.41,-0.041
4.411,-0.044
4.412,-0.044
4.413,-0.047
4.414,-0.047
4.415,-0.05
4.416,-0.047
4.417,-0.047
4.418,-0.049
4.419,-0.044
4.42,-0.041
4.421,-0.041
4.422,-0.042
4.423,-0.044
4.424,-0.045
4.425,-0.047
4.426,-0.047
4.427,-0.05
4.428,-0.049
4.429,-0.047
4.43,-0.051
4.431,-0.053
4.432,-0.049
4.433,-0.05
4.434,-0.051
4.435,-0.05
4.436,-0.05
4.437,-0.05
4.438,-0.049
4.439,-0.05
4.44,-0.05
4.441,-0.05
4.442,-0.047
4.443,-0.047
4.444,-0.044
4.445,-0.047
4.446,-0.044
4.447,-0.044
4.448,-0.047
4.449,-0.044
4.45,-0.047
4.451,-0.047
4.452,-0.048
4.453,-0.05
4.454,-0.05
4.455,-0.047
4.456,-0.05
4.457,-0.047
4.458,-0.05
4.459,-0.05
4.46,-0.047
4.461,-0.047
4.462,-0.05
4.463,-0.05
4.464,-0.05
4.465,-0.05
4.466,-0.051
4.467,-0.05
4.468,-0.052
4.469,-0.047
4.47,-0.047
4.471,-0.047
4.472,-0.048
4.473,-0.05
4.474,-0.052
4.475,-0.05
4.476,-0.051
4.477,-0.053
4.478,-0.053
4.479,-0.053
4.48,-0.052
4.481,-0.05
4.482,-0.049
4.483,-0.044
4.484,-0.047
4.485,-0.05
4.486,-0.05
4.487,-0.05
4.488,-0.049
4.489,-0.05
4.49,-0.05
4.491,-0.05
4.492,-0.047
4.493,-0.047
4.494,-0.049
4.495,-0.047
4.496,-0.051
4.497,-0.05
4.498,-0.049
4.499,-0.044
4.5,-0.046
4.501,-0.044
4.502,-0.044
4.503,-0.044
4.504,-0.045
4.505,-0.05
4.506,-0.05
4.507,-0.05
4.508,-0.05
4.509,-0.05
4.51,-0.05
4.511,-0.047
4.512,-0.05
4.513,-0.05
4.514,-0.05
4.515,-0.05
4.516,-0.05
4.517,-0.05
4.518,-0.05
4.519,-0.05
4.52,-0.051
4.521,-0.047
4.522,-0.052
4.523,-0.053
4.524,-0.051
4.525,-0.053
4.526,-0.047
4.527,-0.047
4.528,-0.049
4.529,-0.05
4.53,-0.048
4.531,-0.05
4.532,-0.05
4.533,-0.05
4.534,-0.049
4.535,-0.047
4.536,-0.049
4.537,-0.05
4.538,-0.051
4.539,-0.05
4.54,-0.049
4.541,-0.047
4.542,-0.047
4.543,-0.047
4.544,-0.047
4.545,-0.047
4.546,-0.044
4.547,-0.047
4.548,-0.047
4.549,-0.047
4.55,-0.048
4.551,-0.047
4.552,-0.047
4.553,-0.047
4.554,-0.048
4.555,-0.05
4.556,-0.05
4.557,-0.05
4.558,-0.047
4.559,-0.044
4.56,-0.044
4.561,-0.044
4.562,-0.044
4.563,-0.044
4.564,-0.045
4.565,-0.047
4.566,-0.047
4.567,-0.047
4.568,-0.046
4.569,-0.044
4.57,-0.044
4.571,-0.044
4.572,-0.045
4.573,-0.047
4.574,-0.046
4.575,-0.044
4.576,-0.042
4.577,-0.041
4.578,-0.041
4.579,-0.041
4.58,-0.041
4.581,-0.041
4.582,-0.042
4.583,-0.044
4.584,-0.045
4.585,-0.047
4.586,-0.043
4.587,-0.038
4.588,-0.038
4.589,-0.041
4.59,-0.045
4.591,-0.05
4.592,-0.046
4.593,-0.044
4.594,-0.048
4.595,-0.047
4.596,-0.048
4.597,-0.047
4.598,-0.047
4.599,-0.047
4.6,-0.042
4.601,-0.041
4.602,-0.041
4.603,-0.041
4.604,-0.041
4.605,-0.041
4.606,-0.041
4.607,-0.041
4.608,-0.044
4.609,-0.044
4.61,-0.041
4.611,-0.044
4.612,-0.048
4.613,-0.047
4.614,-0.048
4.615,-0.047
4.616,-0.039
4.617,-0.044
4.618,-0.046
4.619,-0.044
4.62,-0.041
4.621,-0.041
4.622,-0.041
4.623,-0.041
4.624,-0.041
4.625,-0.041
4.626,-0.041
4.627,-0.041
4.628,-0.039
4.629,-0.041
4.63,-0.041
4.631,-0.041
4.632,-0.041
4.633,-0.038
4.634,-0.038
4.635,-0.041
4.636,-0.042
4.637,-0.044
4.638,-0.039
4.639,-0.041
4.64,-0.039
4.641,-0.041
4.642,-0.036
4.643,-0.038
4.644,-0.039
4.645,-0.038
4.646,-0.041
4.647,-0.038
4.648,-0.034
4.649,-0.034
4.65,-0.038
4.651,-0.034
4.652,-0.039
4.653,-0.038
4.654,-0.034
4.655,-0.034
4.656,-0.038
4.657,-0.038
4.658,-0.038
4.659,-0.034
4.66,-0.033
4.661,-0.031
4.662,-0.039
4.663,-0.038
4.664,-0.033
4.665,-0.034
4.666,-0.033
4.667,-0.034
4.668,-0.036
4.669,-0.038
4.67,-0.034
4.671,-0.034
4.672,-0.034
4.673,-0.034
4.674,-0.038
4.675,-0.034
4.676,-0.038
4.677,-0.038
4.678,-0.033
4.679,-0.031
4.68,-0.031
4.681,-0.028
4.682,-0.031
4.683,-0.031
4.684,-0.033
4.685,-0.031
4.686,-0.034
4.687,-0.038
4.688,-0.03
4.689,-0.034
4.69,-0.034
4.691,-0.034
4.692,-0.034
4.693,-0.034
4.694,-0.036
4.695,-0.038
4.696,-0.036
4.697,-0.034
4.698,-0.034
4.699,-0.034
4.7,-0.033
4.701,-0.031
4.702,-0.031
4.703,-0.031
4.704,-0.031
4.705,-0.031
4.706,-0.036
4.707,-0.034
4.708,-0.036
4.709,-0.034
4.71,-0.033
4.711,-0.034
4.712,-0.036
4.713,-0.034
4.714,-0.033
4.715,-0.031
4.716,-0.034
4.717,-0.034
4.718,-0.034
4.719,-0.034
4.72,-0.033
4.721,-0.028
4.722,-0.027
4.723,-0.028
4.724,-0.029
4.725,-0.031
4.726,-0.032
4.727,-0.034
4.728,-0.036
4.729,-0.031
4.73,-0.032
4.731,-0.034
4.732,-0.03
4.733,-0.031
4.734,-0.034
4.735,-0.031
4.736,-0.031
4.737,-0.031
4.738,-0.031
4.739,-0.031
4.74,-0.031
4.741,-0.034
4.742,-0.031
4.743,-0.031
4.744,-0.038
4.745,-0.034
4.746,-0.038
4.747,-0.034
4.748,-0.031
4.749,-0.031
4.75,-0.03
4.751,-0.031
4.752,-0.032
4.753,-0.034
4.754,-0.031
4.755,-0.034
4.756,-0.034
4.757,-0.034
4.758,-0.034
4.759,-0.034
4.76,-0.034
4.761,-0.034
4.762,-0.034
4.763,-0.028
4.764,-0.028
4.765,-0.028
4.766,-0.029
4.767,-0.031
4.768,-0.032
4.769,-0.034
4.77,-0.034
4.771,-0.031
4.772,-0.034
4.773,-0.034
4.774,-0.036
4.775,-0.034
4.776,-0.034
4.777,-0.031
4.778,-0.033
4.779,-0.034
4.78,-0.032
4.781,-0.031
4.782,-0.031
4.783,-0.031
4.784,-0.033
4.785,-0.031
4.786,-0.028
4.787,-0.031
4.788,-0.028
4.789,-0.034
4.79,-0.032
4.791,-0.031
4.792,-0.034
4.793,-0.031
4.794,-0.031
4.795,-0.031
4.796,-0.033
4.797,-0.031
4.798,-0.027
4.799,-0.028
4.8,-0.029
4.801,-0.031
4.802,-0.031
4.803,-0.031
4.804,-0.032
4.805,-0.034
4.806,-0.034
4.807,-0.034
4.808,-0.034
4.809,-0.034
4.81,-0.033
4.811,-0.034
4.812,-0.031
4.813,-0.034
4.814,-0.031
4.815,-0.031
4.816,-0.03
4.817,-0.031
4.818,-0.032
4.819,-0.034
4.82,-0.028
4.821,-0.031
4.822,-0.031
4.823,-0.031
4.824,-0.031
4.825,-0.034
4.826,-0.034
4.827,-0.034
4.828,-0.034
4.829,-0.034
4.83,-0.03
4.831,-0.022
4.832,-0.023
4.833,-0.028
4.834,-0.029
4.835,-0.031
4.836,-0.031
4.837,-0.031
4.838,-0.031
4.839,-0.028
4.84,-0.032
4.841,-0.031
4.842,-0.031
4.843,-0.031
4.844,-0.034
4.845,-0.034
4.846,-0.033
4.847,-0.031
4.848,-0.031
4.849,-0.031
4.85,-0.031
4.851,-0.031
4.852,-0.031
4.853,-0.031
4.854,-0.031
4.855,-0.031
4.856,-0.031
4.857,-0.031
4.858,-0.031
4.859,-0.031
4.86,-0.027
4.861,-0.028
4.862,-0.028
4.863,-0.028
4.864,-0.028
4.865,-0.028
4.866,-0.028
4.867,-0.028
4.868,-0.028
4.869,-0.028
4.87,-0.028
4.871,-0.028
4.872,-0.029
4.873,-0.031
4.874,-0.028
4.875,-0.028
4.876,-0.027
4.877,-0.025
4.878,-0.028
4.879,-0.028
4.88,-0.028
4.881,-0.025
4.882,-0.023
4.883,-0.025
4.884,-0.024
4.885,-0.022
4.886,-0.019
4.887,-0.016
4.888,-0.011
4.889,-0.013
4.89,-0.011
4.891,-0.006
4.892,0
4.893,0.003
4.894,0.013
4.895,0.019
4.896,0.025
4.897,0.028
4.898,0.038
4.899,0.041
4.9,0.045
4.901,0.05
4.902,0.058
4.903,0.062
4.904,0.064
4.905,0.062
4.906,0.068
4.907,0.062
4.908,0.062
4.909,0.062
4.91,0.066
4.911,0.066
4.912,0.059
4.913,0.059
4.914,0.067
4.915,0.072
4.916,0.074
4.917,0.078
4.918,0.081
4.919,0.091
4.92,0.101
4.921,0.106
4.922,0.116
4.923,0.119
4.924,0.122
4.925,0.125
4.926,0.136
4.927,0.141
4.928,0.141
4.929,0.144
4.93,0.147
4.931,0.153
4.932,0.153
4.933,0.156
4.934,0.156
4.935,0.156
4.936,0.164
4.937,0.166
4.938,0.169
4.939,0.166
4.94,0.163
4.941,0.159
4.942,0.158
4.943,0.153
4.944,0.147
4.945,0.137
4.946,0.128
4.947,0.122
4.948,0.116
4.949,0.109
4.95,0.109
4.951,0.109
4.952,0.106
4.953,0.103
4.954,0.1
4.955,0.097
4.956,0.097
4.957,0.094
4.958,0.089
4.959,0.091
4.96,0.086
4.961,0.078
4.962,0.075
4.963,0.069
4.964,0.061
4.965,0.05
4.966,0.041
4.967,0.028
4.968,0.019
4.969,0.013
4.97,0.009
4.971,0.006
4.972,-0.001
4.973,-0.006
4.974,-0.008
4.975,-0.006
4.976,-0.007
4.977,-0.006
4.978,-0.008
4.979,-0.006
4.98,-0.009
4.981,-0.009
4.982,-0.013
4.983,-0.013
4.984,-0.014
4.985,-0.019
4.986,-0.022
4.987,-0.025
4.988,-0.027
4.989,-0.028
4.99,-0.03
4.991,-0.028
4.992,-0.031
4.993,-0.031
4.994,-0.03
4.995,-0.031
4.996,-0.028
4.997,-0.031
4.998,-0.032
4.999,-0.038
5,-0.036
5.001,-0.038
5.002,-0.038
5.003,-0.038
5.004,-0.041
5.005,-0.047
5.006,-0.05
5.007,-0.05
5.008,-0.053
5.009,-0.053
5.01,-0.05
5.011,-0.05
5.012,-0.053
5.013,-0.053
5.014,-0.051
5.015,-0.053
5.016,-0.054
5.017,-0.056
5.018,-0.059
5.019,-0.056
5.02,-0.055
5.021,-0.053
5.022,-0.052
5.023,-0.053
5.024,-0.053
5.025,-0.05
5.026,-0.05
5.027,-0.05
5.028,-0.05
5.029,-0.05
5.03,-0.051
5.031,-0.05
5.032,-0.051
5.033,-0.056
5.034,-0.059
5.035,-0.056
5.036,-0.055
5.037,-0.053
5.038,-0.055
5.039,-0.056
5.04,-0.056
5.041,-0.059
5.042,-0.07
5.043,-0.075
5.044,-0.075
5.045,-0.084
5.046,-0.094
5.047,-0.1
5.048,-0.109
5.049,-0.116
5.05,-0.125
5.051,-0.122
5.052,-0.116
5.053,-0.094
5.054,-0.073
5.055,-0.053
5.056,-0.021
5.057,0.009
5.058,0.036
5.059,0.059
5.06,0.086
5.061,0.119
5.062,0.154
5.063,0.222
5.064,0.281
5.065,0.366
5.066,0.448
5.067,0.531
5.068,0.617
5.069,0.706
5.07,0.796
5.071,0.881
5.072,0.968
5.073,1.031
5.074,1.099
5.075,1.175
5.076,1.258
5.077,1.309
5.078,1.361
5.079,1.381
5.08,1.377
5.081,1.337
5.082,1.296
5.083,1.231
5.084,1.164
5.085,1.075
5.086,0.984
5.087,0.881
5.088,0.775
5.089,0.684
5.09,0.601
5.091,0.544
5.092,0.486
5.093,0.466
5.094,0.442
5.095,0.431
5.096,0.416
5.097,0.394
5.098,0.376
5.099,0.35
5.1,0.323
5.101,0.309
5.102,0.297
5.103,0.278
5.104,0.261
5.105,0.247
5.106,0.232
5.107,0.219
5.108,0.211
5.109,0.203
5.11,0.194
5.111,0.184
5.112,0.175
5.113,0.159
5.114,0.147
5.115,0.141
5.116,0.127
5.117,0.116
5.118,0.109
5.119,0.103
5.12,0.098
5.121,0.091
5.122,0.081
5.123,0.072
5.124,0.068
5.125,0.056
5.126,0.052
5.127,0.047
5.128,0.045
5.129,0.044
5.13,0.041
5.131,0.038
5.132,0.039
5.133,0.038
5.134,0.033
5.135,0.034
5.136,0.036
5.137,0.034
5.138,0.027
5.139,0.025
5.14,0.021
5.141,0.016
5.142,0.011
5.143,0.009
5.144,0.006
5.145,0.006
5.146,0.006
5.147,0.009
5.148,0.009
5.149,0.009
5.15,0.011
5.151,0.009
5.152,0.008
5.153,0.006
5.154,0.006
5.155,0.006
5.156,0.004
5.157,0.006
5.158,0.003
5.159,0.003
5.16,0.007
5.161,0.006
5.162,0.005
5.163,0.003
5.164,0.006
5.165,0.006
5.166,0.009
5.167,0.006
5.168,0.009
5.169,0.013
5.17,0.013
5.171,0.013
5.172,0.013
5.173,0.013
5.174,0.013
5.175,0.013
5.176,0.011
5.177,0.013
5.178,0.009
5.179,0.013
5.18,0.017
5.181,0.022
5.182,0.022
5.183,0.019
5.184,0.021
5.185,0.019
5.186,0.022
5.187,0.028
5.188,0.025
5.189,0.025
5.19,0.025
5.191,0.028
5.192,0.028
5.193,0.028
5.194,0.028
5.195,0.028
5.196,0.028
5.197,0.028
5.198,0.031
5.199,0.031
5.2,0.031
5.201,0.031
5.202,0.031
5.203,0.038
5.204,0.041
5.205,0.038
5.206,0.036
5.207,0.038
5.208,0.039
5.209,0.044
5.21,0.044
5.211,0.047
5.212,0.046
5.213,0.047
5.214,0.046
5.215,0.047
5.216,0.048
5.217,0.05
5.218,0.049
5.219,0.05
5.22,0.05
5.221,0.05
5.222,0.058
5.223,0.056
5.224,0.056
5.225,0.059
5.226,0.058
5.227,0.059
5.228,0.059
5.229,0.059
5.23,0.059
5.231,0.059
5.232,0.062
5.233,0.062
5.234,0.062
5.235,0.062
5.236,0.064
5.237,0.066
5.238,0.071
5.239,0.069
5.24,0.068
5.241,0.066
5.242,0.07
5.243,0.075
5.244,0.076
5.245,0.081
5.246,0.082
5.247,0.084
5.248,0.091
5.249,0.097
5.25,0.094
5.251,0.094
5.252,0.092
5.253,0.094
5.254,0.1
5.255,0.097
5.256,0.097
5.257,0.097
5.258,0.099
5.259,0.1
5.26,0.104
5.261,0.109
5.262,0.111
5.263,0.113
5.264,0.117
5.265,0.119
5.266,0.121
5.267,0.122
5.268,0.122
5.269,0.125
5.27,0.131
5.271,0.134
5.272,0.134
5.273,0.137
5.274,0.143
5.275,0.144
5.276,0.147
5.277,0.15
5.278,0.156
5.279,0.159
5.28,0.159
5.281,0.169
5.282,0.171
5.283,0.172
5.284,0.175
5.285,0.175
5.286,0.183
5.287,0.191
5.288,0.197
5.289,0.203
5.29,0.206
5.291,0.209
5.292,0.214
5.293,0.216
5.294,0.223
5.295,0.225
5.296,0.231
5.297,0.241
5.298,0.247
5.299,0.253
5.3,0.255
5.301,0.259
5.302,0.27
5.303,0.275
5.304,0.28
5.305,0.281
5.306,0.286
5.307,0.291
5.308,0.3
5.309,0.306
5.31,0.314
5.311,0.319
5.312,0.321
5.313,0.325
5.314,0.331
5.315,0.338
5.316,0.345
5.317,0.35
5.318,0.355
5.319,0.356
5.32,0.361
5.321,0.369
5.322,0.376
5.323,0.378
5.324,0.384
5.325,0.391
5.326,0.394
5.327,0.397
5.328,0.399
5.329,0.4
5.33,0.404
5.331,0.409
5.332,0.413
5.333,0.416
5.334,0.413
5.335,0.413
5.336,0.411
5.337,0.413
5.338,0.416
5.339,0.416
5.34,0.417
5.341,0.419
5.342,0.422
5.343,0.419
5.344,0.416
5.345,0.409
5.346,0.406
5.347,0.403
5.348,0.403
5.349,0.4
5.35,0.394
5.351,0.388
5.352,0.378
5.353,0.372
5.354,0.364
5.355,0.356
5.356,0.348
5.357,0.347
5.358,0.338
5.359,0.331
5.36,0.322
5.361,0.309
5.362,0.301
5.363,0.294
5.364,0.287
5.365,0.278
5.366,0.269
5.367,0.256
5.368,0.247
5.369,0.234
5.37,0.229
5.371,0.225
5.372,0.216
5.373,0.203
5.374,0.196
5.375,0.188
5.376,0.183
5.377,0.175
5.378,0.167
5.379,0.163
5.38,0.153
5.381,0.147
5.382,0.141
5.383,0.128
5.384,0.122
5.385,0.119
5.386,0.117
5.387,0.113
5.388,0.105
5.389,0.097
5.39,0.088
5.391,0.078
5.392,0.071
5.393,0.066
5.394,0.061
5.395,0.059
5.396,0.056
5.397,0.053
5.398,0.05
5.399,0.047
5.4,0.044
5.401,0.041
5.402,0.038
5.403,0.034
5.404,0.03
5.405,0.025
5.406,0.017
5.407,0.019
5.408,0.019
5.409,0.016
5.41,0.013
5.411,0.009
5.412,0.004
5.413,0.003
5.414,0.003
5.415,0
5.416,-0.001
5.417,-0.006
5.418,-0.009
5.419,-0.009
5.42,-0.008
5.421,-0.006
5.422,-0.009
5.423,-0.013
5.424,-0.016
5.425,-0.016
5.426,-0.019
5.427,-0.019
5.428,-0.019
5.429,-0.016
5.43,-0.017
5.431,-0.016
5.432,-0.016
5.433,-0.019
5.434,-0.022
5.435,-0.025
5.436,-0.022
5.437,-0.022
5.438,-0.022
5.439,-0.022
5.44,-0.023
5.441,-0.025
5.442,-0.025
5.443,-0.025
5.444,-0.026
5.445,-0.028
5.446,-0.031
5.447,-0.031
5.448,-0.028
5.449,-0.028
5.45,-0.031
5.451,-0.031
5.452,-0.036
5.453,-0.034
5.454,-0.034
5.455,-0.034
5.456,-0.034
5.457,-0.034
5.458,-0.038
5.459,-0.034
5.46,-0.033
5.461,-0.031
5.462,-0.031
5.463,-0.031
5.464,-0.03
5.465,-0.031
5.466,-0.032
5.467,-0.034
5.468,-0.039
5.469,-0.038
5.47,-0.034
5.471,-0.034
5.472,-0.036
5.473,-0.034
5.474,-0.038
5.475,-0.034
5.476,-0.033
5.477,-0.031
5.478,-0.031
5.479,-0.031
5.48,-0.032
5.481,-0.031
5.482,-0.03
5.483,-0.031
5.484,-0.032
5.485,-0.034
5.486,-0.033
5.487,-0.031
5.488,-0.034
5.489,-0.034
5.49,-0.036
5.491,-0.034
5.492,-0.034
5.493,-0.034
5.494,-0.033
5.495,-0.028
5.496,-0.031
5.497,-0.031
5.498,-0.025
5.499,-0.028
5.5,-0.031
5.501,-0.031
5.502,-0.031
5.503,-0.031
5.504,-0.032
5.505,-0.034
5.506,-0.031
5.507,-0.034
5.508,-0.038
5.509,-0.038
5.51,-0.031
5.511,-0.034
5.512,-0.033
5.513,-0.031
5.514,-0.032
5.515,-0.034
5.516,-0.033
5.517,-0.031
5.518,-0.036
5.519,-0.034
5.52,-0.034
5.521,-0.034
5.522,-0.034
5.523,-0.034
5.524,-0.034
5.525,-0.034
5.526,-0.032
5.527,-0.034
5.528,-0.033
5.529,-0.034
5.53,-0.03
5.531,-0.028
5.532,-0.031
5.533,-0.028
5.534,-0.032
5.535,-0.034
5.536,-0.039
5.537,-0.038
5.538,-0.033
5.539,-0.034
5.54,-0.038
5.541,-0.038
5.542,-0.039
5.543,-0.034
5.544,-0.036
5.545,-0.034
5.546,-0.034
5.547,-0.034
5.548,-0.036
5.549,-0.034
5.55,-0.036
5.551,-0.038
5.552,-0.036
5.553,-0.038
5.554,-0.036
5.555,-0.034
5.556,-0.034
5.557,-0.034
5.558,-0.034
5.559,-0.034
5.56,-0.03
5.561,-0.031
5.562,-0.032
5.563,-0.038
5.564,-0.033
5.565,-0.031
5.566,-0.031
5.567,-0.031
5.568,-0.032
5.569,-0.034
5.57,-0.031
5.571,-0.034
5.572,-0.039
5.573,-0.044
5.574,-0.044
5.575,-0.041
5.576,-0.038
5.577,-0.038
5.578,-0.039
5.579,-0.041
5.58,-0.039
5.581,-0.038
5.582,-0.042
5.583,-0.044
5.584,-0.041
5.585,-0.038
5.586,-0.039
5.587,-0.038
5.588,-0.042
5.589,-0.044
5.59,-0.045
5.591,-0.047
5.592,-0.046
5.593,-0.044
5.594,-0.048
5.595,-0.047
5.596,-0.047
5.597,-0.047
5.598,-0.047
5.599,-0.047
5.6,-0.044
5.601,-0.047
5.602,-0.047
5.603,-0.05
5.604,-0.048
5.605,-0.05
5.606,-0.052
5.607,-0.05
5.608,-0.05
5.609,-0.05
5.61,-0.046
5.611,-0.047
5.612,-0.053
5.613,-0.053
5.614,-0.052
5.615,-0.05
5.616,-0.053
5.617,-0.053
5.618,-0.052
5.619,-0.053
5.62,-0.051
5.621,-0.053
5.622,-0.056
5.623,-0.062
5.624,-0.062
5.625,-0.062
5.626,-0.061
5.627,-0.056
5.628,-0.058
5.629,-0.056
5.63,-0.058
5.631,-0.059
5.632,-0.061
5.633,-0.062
5.634,-0.062
5.635,-0.062
5.636,-0.061
5.637,-0.059
5.638,-0.062
5.639,-0.062
5.64,-0.062
5.641,-0.062
5.642,-0.059
5.643,-0.059
5.644,-0.064
5.645,-0.066
5.646,-0.068
5.647,-0.066
5.648,-0.07
5.649,-0.069
5.65,-0.07
5.651,-0.075
5.652,-0.072
5.653,-0.072
5.654,-0.075
5.655,-0.075
5.656,-0.075
5.657,-0.075
5.658,-0.075
5.659,-0.072
5.66,-0.072
5.661,-0.072
5.662,-0.071
5.663,-0.072
5.664,-0.072
5.665,-0.069
5.666,-0.072
5.667,-0.072
5.668,-0.07
5.669,-0.072
5.67,-0.071
5.671,-0.069
5.672,-0.075
5.673,-0.078
5.674,-0.081
5.675,-0.081
5.676,-0.08
5.677,-0.075
5.678,-0.079
5.679,-0.078
5.68,-0.077
5.681,-0.078
5.682,-0.076
5.683,-0.081
5.684,-0.081
5.685,-0.081
5.686,-0.08
5.687,-0.078
5.688,-0.076
5.689,-0.081
5.69,-0.078
5.691,-0.081
5.692,-0.082
5.693,-0.081
5.694,-0.08
5.695,-0.081
5.696,-0.081
5.697,-0.081
5.698,-0.081
5.699,-0.081
5.7,-0.078
5.701,-0.081
5.702,-0.079
5.703,-0.081
5.704,-0.081
5.705,-0.081
5.706,-0.081
5.707,-0.084
5.708,-0.084
5.709,-0.084
5.71,-0.086
5.711,-0.088
5.712,-0.088
5.713,-0.088
5.714,-0.088
5.715,-0.088
5.716,-0.084
5.717,-0.088
5.718,-0.092
5.719,-0.091
5.72,-0.086
5.721,-0.084
5.722,-0.088
5.723,-0.088
5.724,-0.089
5.725,-0.088
5.726,-0.086
5.727,-0.088
5.728,-0.086
5.729,-0.088
5.73,-0.086
5.731,-0.088
5.732,-0.084
5.733,-0.088
5.734,-0.089
5.735,-0.091
5.736,-0.089
5.737,-0.088
5.738,-0.091
5.739,-0.091
5.74,-0.091
5.741,-0.091
5.742,-0.091
5.743,-0.091
5.744,-0.086
5.745,-0.088
5.746,-0.088
5.747,-0.088
5.748,-0.088
5.749,-0.088
5.75,-0.092
5.751,-0.097
5.752,-0.096
5.753,-0.094
5.754,-0.084
5.755,-0.088
5.756,-0.094
5.757,-0.094
5.758,-0.097
5.759,-0.094
5.76,-0.092
5.761,-0.094
5.762,-0.096
5.763,-0.091
5.764,-0.091
5.765,-0.091
5.766,-0.092
5.767,-0.094
5.768,-0.092
5.769,-0.094
5.77,-0.098
5.771,-0.097
5.772,-0.092
5.773,-0.094
5.774,-0.094
5.775,-0.094
5.776,-0.094
5.777,-0.094
5.778,-0.094
5.779,-0.091
5.78,-0.094
5.781,-0.094
5.782,-0.094
5.783,-0.094
5.784,-0.098
5.785,-0.1
5.786,-0.099
5.787,-0.097
5.788,-0.098
5.789,-0.1
5.79,-0.097
5.791,-0.094
5.792,-0.094
5.793,-0.094
5.794,-0.094
5.795,-0.094
5.796,-0.097
5.797,-0.1
5.798,-0.1
5.799,-0.1
5.8,-0.101
5.801,-0.103
5.802,-0.103
5.803,-0.103
5.804,-0.103
5.805,-0.103
5.806,-0.103
5.807,-0.103
5.808,-0.103
5.809,-0.103
5.81,-0.102
5.811,-0.1
5.812,-0.1
5.813,-0.1
5.814,-0.1
5.815,-0.1
5.816,-0.101
5.817,-0.103
5.818,-0.103
5.819,-0.103
5.82,-0.1
5.821,-0.097
5.822,-0.1
5.823,-0.103
5.824,-0.103
5.825,-0.103
5.826,-0.1
5.827,-0.097
5.828,-0.097
5.829,-0.097
5.83,-0.096
5.831,-0.094
5.832,-0.097
5.833,-0.097
5.834,-0.104
5.835,-0.113
5.836,-0.109
5.837,-0.106
5.838,-0.106
5.839,-0.106
5.84,-0.103
5.841,-0.103
5.842,-0.101
5.843,-0.103
5.844,-0.102
5.845,-0.1
5.846,-0.103
5.847,-0.103
5.848,-0.103
5.849,-0.103
5.85,-0.104
5.851,-0.106
5.852,-0.107
5.853,-0.109
5.854,-0.106
5.855,-0.106
5.856,-0.109
5.857,-0.109
5.858,-0.105
5.859,-0.103
5.86,-0.101
5.861,-0.097
5.862,-0.102
5.863,-0.103
5.864,-0.106
5.865,-0.106
5.866,-0.106
5.867,-0.106
5.868,-0.106
5.869,-0.106
5.87,-0.106
5.871,-0.106
5.872,-0.106
5.873,-0.106
5.874,-0.109
5.875,-0.109
5.876,-0.109
5.877,-0.109
5.878,-0.106
5.879,-0.106
5.88,-0.108
5.881,-0.106
5.882,-0.106
5.883,-0.103
5.884,-0.106
5.885,-0.103
5.886,-0.103
5.887,-0.1
5.888,-0.103
5.889,-0.103
5.89,-0.101
5.891,-0.106
5.892,-0.103
5.893,-0.103
5.894,-0.106
5.895,-0.109
5.896,-0.105
5.897,-0.106
5.898,-0.104
5.899,-0.103
5.9,-0.103
5.901,-0.106
5.902,-0.106
5.903,-0.106
5.904,-0.103
5.905,-0.103
5.906,-0.1
5.907,-0.103
5.908,-0.103
5.909,-0.103
5.91,-0.105
5.911,-0.103
5.912,-0.106
5.913,-0.106
5.914,-0.107
5.915,-0.106
5.916,-0.106
5.917,-0.106
5.918,-0.105
5.919,-0.106
5.92,-0.103
5.921,-0.106
5.922,-0.107
5.923,-0.106
5.924,-0.106
5.925,-0.106
5.926,-0.103
5.927,-0.106
5.928,-0.106
5.929,-0.109
5.93,-0.108
5.931,-0.106
5.932,-0.107
5.933,-0.103
5.934,-0.109
5.935,-0.109
5.936,-0.109
5.937,-0.109
5.938,-0.109
5.939,-0.109
5.94,-0.109
5.941,-0.109
5.942,-0.109
5.943,-0.109
5.944,-0.109
5.945,-0.109
5.946,-0.109
5.947,-0.109
5.948,-0.109
5.949,-0.109
5.95,-0.109
5.951,-0.113
5.952,-0.111
5.953,-0.113
5.954,-0.109
5.955,-0.109
5.956,-0.113
5.957,-0.113
5.958,-0.109
5.959,-0.109
5.96,-0.108
5.961,-0.109
5.962,-0.109
5.963,-0.109
5.964,-0.109
5.965,-0.109
5.966,-0.107
5.967,-0.109
5.968,-0.109
5.969,-0.106
5.97,-0.106
5.971,-0.106
5.972,-0.106
5.973,-0.109
5.974,-0.107
5.975,-0.109
5.976,-0.109
5.977,-0.106
5.978,-0.108
5.979,-0.109
5.98,-0.107
5.981,-0.109
5.982,-0.109
5.983,-0.109
5.984,-0.109
5.985,-0.109
5.986,-0.113
5.987,-0.109
5.988,-0.106
5.989,-0.109
5.99,-0.106
5.991,-0.109
5.992,-0.109
5.993,-0.109
5.994,-0.109
5.995,-0.109
5.996,-0.111
5.997,-0.109
5.998,-0.111
5.999,-0.109
6,-0.111
6.001,-0.109
6.002,-0.106
6.003,-0.103
6.004,-0.103
6.005,-0.103
6.006,-0.104
6.007,-0.109
6.008,-0.107
6.009,-0.109
6.01,-0.109
6.011,-0.109
6.012,-0.108
6.013,-0.106
6.014,-0.106
6.015,-0.106
6.016,-0.104
6.017,-0.109
6.018,-0.109
6.019,-0.109
6.02,-0.105
6.021,-0.106
6.022,-0.105
6.023,-0.106
6.024,-0.111
6.025,-0.109
6.026,-0.107
6.027,-0.109
6.028,-0.108
6.029,-0.109
6.03,-0.109
6.031,-0.106
6.032,-0.109
6.033,-0.106
6.034,-0.113
6.035,-0.109
6.036,-0.107
6.037,-0.113
6.038,-0.106
6.039,-0.103
6.04,-0.104
6.041,-0.109
6.042,-0.111
6.043,-0.109
6.044,-0.113
6.045,-0.113
6.046,-0.111
6.047,-0.109
6.048,-0.109
6.049,-0.109
6.05,-0.109
6.051,-0.109
6.052,-0.109
6.053,-0.109
6.054,-0.106
6.055,-0.103
6.056,-0.107
6.057,-0.106
6.058,-0.109
6.059,-0.106
6.06,-0.106
6.061,-0.106
6.062,-0.109
6.063,-0.109
6.064,-0.111
6.065,-0.106
6.066,-0.109
6.067,-0.109
6.068,-0.108
6.069,-0.106
6.07,-0.109
6.071,-0.109
6.072,-0.109
6.073,-0.109
6.074,-0.109
6.075,-0.109
6.076,-0.106
6.077,-0.106
6.078,-0.109
6.079,-0.109
6.08,-0.109
6.081,-0.109
6.082,-0.109
6.083,-0.109
6.084,-0.106
6.085,-0.109
6.086,-0.106
6.087,-0.106
6.088,-0.105
6.089,-0.106
6.09,-0.106
6.091,-0.106
6.092,-0.107
6.093,-0.109
6.094,-0.109
6.095,-0.109
6.096,-0.109
6.097,-0.109
6.098,-0.106
6.099,-0.103
6.1,-0.103
6.101,-0.103
6.102,-0.104
6.103,-0.106
6.104,-0.107
6.105,-0.106
6.106,-0.109
6.107,-0.109
6.108,-0.106
6.109,-0.103
6.11,-0.104
6.111,-0.106
6.112,-0.107
6.113,-0.109
6.114,-0.106
6.115,-0.103
6.116,-0.103
6.117,-0.103
6.118,-0.104
6.119,-0.103
6.12,-0.103
6.121,-0.103
6.122,-0.102
6.123,-0.103
6.124,-0.103
6.125,-0.103
6.126,-0.103
6.127,-0.103
6.128,-0.104
6.129,-0.106
6.13,-0.1
6.131,-0.091
6.132,-0.089
6.133,-0.084
6.134,-0.081
6.135,-0.075
6.136,-0.069
6.137,-0.062
6.138,-0.061
6.139,-0.056
6.14,-0.054
6.141,-0.05
6.142,-0.047
6.143,-0.038
6.144,-0.036
6.145,-0.034
6.146,-0.03
6.147,-0.019
6.148,-0.013
6.149,-0.009
6.15,-0.013
6.151,-0.009
6.152,-0.006
6.153,0
6.154,0
6.155,0
6.156,-0.002
6.157,-0.006
6.158,-0.007
6.159,-0.003
6.16,-0.001
6.161,0
6.162,0.006
6.163,0.009
6.164,0.023
6.165,0.038
6.166,0.038
6.167,0.044
6.168,0.046
6.169,0.047
6.17,0.051
6.171,0.062
6.172,0.062
6.173,0.062
6.174,0.069
6.175,0.069
6.176,0.073
6.177,0.078
6.178,0.086
6.179,0.088
6.18,0.086
6.181,0.088
6.182,0.084
6.183,0.088
6.184,0.086
6.185,0.084
6.186,0.082
6.187,0.084
6.188,0.081
6.189,0.075
6.19,0.067
6.191,0.059
6.192,0.052
6.193,0.044
6.194,0.036
6.195,0.031
6.196,0.029
6.197,0.028
6.198,0.025
6.199,0.022
6.2,0.017
6.201,0.016
6.202,0.014
6.203,0.009
6.204,0.011
6.205,0.009
6.206,0
6.207,-0.006
6.208,-0.013
6.209,-0.019
6.21,-0.027
6.211,-0.034
6.212,-0.042
6.213,-0.047
6.214,-0.054
6.215,-0.062
6.216,-0.07
6.217,-0.078
6.218,-0.08
6.219,-0.081
6.22,-0.081
6.221,-0.081
6.222,-0.079
6.223,-0.084
6.224,-0.084
6.225,-0.088
6.226,-0.088
6.227,-0.091
6.228,-0.091
6.229,-0.091
6.23,-0.091
6.231,-0.091
6.232,-0.095
6.233,-0.1
6.234,-0.103
6.235,-0.106
6.236,-0.106
6.237,-0.109
6.238,-0.109
6.239,-0.109
6.24,-0.114
6.241,-0.113
6.242,-0.114
6.243,-0.113
6.244,-0.117
6.245,-0.119
6.246,-0.122
6.247,-0.122
6.248,-0.122
6.249,-0.122
6.25,-0.124
6.251,-0.125
6.252,-0.125
6.253,-0.128
6.254,-0.127
6.255,-0.125
6.256,-0.131
6.257,-0.137
6.258,-0.139
6.259,-0.137
6.26,-0.134
6.261,-0.131
6.262,-0.131
6.263,-0.134
6.264,-0.131
6.265,-0.131
6.266,-0.131
6.267,-0.131
6.268,-0.136
6.269,-0.137
6.27,-0.136
6.271,-0.137
6.272,-0.137
6.273,-0.137
6.274,-0.136
6.275,-0.134
6.276,-0.131
6.277,-0.131
6.278,-0.133
6.279,-0.134
6.28,-0.133
6.281,-0.134
6.282,-0.134
6.283,-0.137
6.284,-0.141
6.285,-0.141
6.286,-0.141
6.287,-0.144
6.288,-0.147
6.289,-0.153
6.29,-0.167
6.291,-0.178
6.292,-0.186
6.293,-0.197
6.294,-0.202
6.295,-0.209
6.296,-0.205
6.297,-0.2
6.298,-0.18
6.299,-0.153
6.3,-0.125
6.301,-0.094
6.302,-0.069
6.303,-0.041
6.304,-0.02
6.305,0
6.306,0.034
6.307,0.069
6.308,0.13
6.309,0.188
6.31,0.272
6.311,0.353
6.312,0.437
6.313,0.525
6.314,0.616
6.315,0.709
6.316,0.789
6.317,0.869
6.318,0.939
6.319,1.013
6.32,1.088
6.321,1.169
6.322,1.221
6.323,1.275
6.324,1.297
6.325,1.3
6.326,1.268
6.327,1.222
6.328,1.158
6.329,1.091
6.33,1.003
6.331,0.913
6.332,0.814
6.333,0.716
6.334,0.627
6.335,0.534
6.336,0.475
6.337,0.419
6.338,0.392
6.339,0.362
6.34,0.348
6.341,0.341
6.342,0.319
6.343,0.294
6.344,0.27
6.345,0.244
6.346,0.225
6.347,0.212
6.348,0.197
6.349,0.184
6.35,0.172
6.351,0.156
6.352,0.142
6.353,0.134
6.354,0.128
6.355,0.125
6.356,0.116
6.357,0.103
6.358,0.083
6.359,0.066
6.36,0.061
6.361,0.05
6.362,0.041
6.363,0.031
6.364,0.022
6.365,0.016
6.366,0.007
6.367,0
6.368,-0.011
6.369,-0.016
6.37,-0.024
6.371,-0.025
6.372,-0.031
6.373,-0.038
6.374,-0.039
6.375,-0.041
6.376,-0.044
6.377,-0.044
6.378,-0.046
6.379,-0.05
6.38,-0.05
6.381,-0.05
6.382,-0.053
6.383,-0.059
6.384,-0.061
6.385,-0.066
6.386,-0.068
6.387,-0.069
6.388,-0.069
6.389,-0.072
6.39,-0.073
6.391,-0.075
6.392,-0.072
6.393,-0.072
6.394,-0.071
6.395,-0.069
6.396,-0.072
6.397,-0.072
6.398,-0.073
6.399,-0.075
6.4,-0.075
6.401,-0.078
6.402,-0.078
6.403,-0.081
6.404,-0.082
6.405,-0.081
6.406,-0.084
6.407,-0.084
6.408,-0.084
6.409,-0.081
6.41,-0.08
6.411,-0.075
6.412,-0.079
6.413,-0.078
6.414,-0.074
6.415,-0.072
6.416,-0.072
6.417,-0.072
6.418,-0.072
6.419,-0.072
6.42,-0.072
6.421,-0.072
6.422,-0.07
6.423,-0.075
6.424,-0.072
6.425,-0.072
6.426,-0.073
6.427,-0.072
6.428,-0.073
6.429,-0.072
6.43,-0.068
6.431,-0.062
6.432,-0.059
6.433,-0.062
6.434,-0.062
6.435,-0.059
6.436,-0.054
6.437,-0.056
6.438,-0.056
6.439,-0.056
6.44,-0.055
6.441,-0.053
6.442,-0.054
6.443,-0.053
6.444,-0.052
6.445,-0.05
6.446,-0.05
6.447,-0.05
6.448,-0.045
6.449,-0.044
6.45,-0.046
6.451,-0.044
6.452,-0.041
6.453,-0.041
6.454,-0.038
6.455,-0.038
6.456,-0.034
6.457,-0.034
6.458,-0.032
6.459,-0.034
6.46,-0.031
6.461,-0.031
6.462,-0.031
6.463,-0.031
6.464,-0.028
6.465,-0.028
6.466,-0.029
6.467,-0.025
6.468,-0.028
6.469,-0.028
6.47,-0.024
6.471,-0.022
6.472,-0.02
6.473,-0.022
6.474,-0.019
6.475,-0.016
6.476,-0.014
6.477,-0.009
6.478,-0.009
6.479,-0.006
6.48,-0.003
6.481,-0.003
6.482,-0.006
6.483,-0.003
6.484,-0.002
6.485,0
6.486,0
6.487,0.003
6.488,0.005
6.489,0.003
6.49,0.006
6.491,0.006
6.492,0.006
6.493,0.009
6.494,0.014
6.495,0.016
6.496,0.02
6.497,0.022
6.498,0.024
6.499,0.028
6.5,0.025
6.501,0.025
6.502,0.025
6.503,0.028
6.504,0.033
6.505,0.038
6.506,0.041
6.507,0.044
6.508,0.044
6.509,0.044
6.51,0.048
6.511,0.056
6.512,0.061
6.513,0.062
6.514,0.062
6.515,0.066
6.516,0.069
6.517,0.069
6.518,0.075
6.519,0.084
6.52,0.086
6.521,0.088
6.522,0.089
6.523,0.094
6.524,0.098
6.525,0.1
6.526,0.109
6.527,0.113
6.528,0.117
6.529,0.122
6.53,0.121
6.531,0.125
6.532,0.131
6.533,0.137
6.534,0.145
6.535,0.15
6.536,0.153
6.537,0.159
6.538,0.163
6.539,0.169
6.54,0.169
6.541,0.175
6.542,0.184
6.543,0.191
6.544,0.2
6.545,0.206
6.546,0.209
6.547,0.216
6.548,0.22
6.549,0.228
6.55,0.231
6.551,0.238
6.552,0.245
6.553,0.256
6.554,0.261
6.555,0.266
6.556,0.267
6.557,0.269
6.558,0.276
6.559,0.284
6.56,0.291
6.561,0.297
6.562,0.299
6.563,0.303
6.564,0.309
6.565,0.319
6.566,0.327
6.567,0.331
6.568,0.333
6.569,0.341
6.57,0.346
6.571,0.347
6.572,0.351
6.573,0.356
6.574,0.358
6.575,0.359
6.576,0.362
6.577,0.366
6.578,0.373
6.579,0.378
6.58,0.381
6.581,0.381
6.582,0.383
6.583,0.384
6.584,0.384
6.585,0.384
6.586,0.386
6.587,0.388
6.588,0.382
6.589,0.384
6.59,0.382
6.591,0.381
6.592,0.375
6.593,0.372
6.594,0.37
6.595,0.366
6.596,0.359
6.597,0.353
6.598,0.349
6.599,0.341
6.6,0.338
6.601,0.328
6.602,0.323
6.603,0.316
6.604,0.308
6.605,0.3
6.606,0.291
6.607,0.281
6.608,0.272
6.609,0.266
6.61,0.255
6.611,0.244
6.612,0.234
6.613,0.231
6.614,0.222
6.615,0.216
6.616,0.208
6.617,0.197
6.618,0.186
6.619,0.181
6.62,0.174
6.621,0.166
6.622,0.156
6.623,0.147
6.624,0.139
6.625,0.128
6.626,0.122
6.627,0.116
6.628,0.103
6.629,0.097
6.63,0.094
6.631,0.091
6.632,0.086
6.633,0.081
6.634,0.074
6.635,0.066
6.636,0.062
6.637,0.059
6.638,0.053
6.639,0.044
6.64,0.041
6.641,0.034
6.642,0.029
6.643,0.028
6.644,0.025
6.645,0.022
6.646,0.017
6.647,0.013
6.648,0.011
6.649,0.009
6.65,0.009
6.651,0.003
6.652,0.003
6.653,0.003
6.654,0
6.655,0
6.656,-0.001
6.657,-0.009
6.658,-0.013
6.659,-0.013
6.66,-0.016
6.661,-0.016
6.662,-0.02
6.663,-0.025
6.664,-0.025
6.665,-0.025
6.666,-0.024
6.667,-0.025
6.668,-0.028
6.669,-0.028
6.67,-0.026
6.671,-0.031
6.672,-0.031
6.673,-0.034
6.674,-0.033
6.675,-0.034
6.676,-0.034
6.677,-0.034
6.678,-0.038
6.679,-0.038
6.68,-0.036
6.681,-0.034
6.682,-0.041
6.683,-0.044
6.684,-0.044
6.685,-0.044
6.686,-0.044
6.687,-0.044
6.688,-0.044
6.689,-0.044
6.69,-0.042
6.691,-0.044
6.692,-0.045
6.693,-0.044
6.694,-0.042
6.695,-0.044
6.696,-0.042
6.697,-0.044
6.698,-0.042
6.699,-0.044
6.7,-0.045
6.701,-0.047
6.702,-0.047
6.703,-0.05
6.704,-0.046
6.705,-0.044
6.706,-0.044
6.707,-0.044
6.708,-0.044
6.709,-0.044
6.71,-0.047
6.711,-0.047
6.712,-0.047
6.713,-0.05
6.714,-0.05
6.715,-0.05
6.716,-0.049
6.717,-0.05
6.718,-0.05
6.719,-0.053
6.72,-0.05
6.721,-0.05
6.722,-0.05
6.723,-0.05
6.724,-0.047
6.725,-0.044
6.726,-0.044
6.727,-0.047
6.728,-0.05
6.729,-0.05
6.73,-0.05
6.731,-0.05
6.732,-0.05
6.733,-0.053
6.734,-0.053
6.735,-0.053
6.736,-0.05
6.737,-0.05
6.738,-0.05
6.739,-0.05
6.74,-0.047
6.741,-0.05
6.742,-0.051
6.743,-0.047
6.744,-0.047
6.745,-0.047
6.746,-0.047
6.747,-0.047
6.748,-0.048
6.749,-0.05
6.75,-0.05
6.751,-0.047
6.752,-0.049
6.753,-0.05
6.754,-0.049
6.755,-0.041
6.756,-0.044
6.757,-0.044
6.758,-0.045
6.759,-0.047
6.76,-0.047
6.761,-0.047
6.762,-0.046
6.763,-0.047
6.764,-0.044
6.765,-0.044
6.766,-0.044
6.767,-0.044
6.768,-0.045
6.769,-0.047
6.77,-0.048
6.771,-0.047
6.772,-0.046
6.773,-0.044
6.774,-0.047
6.775,-0.044
6.776,-0.041
6.777,-0.041
6.778,-0.039
6.779,-0.044
6.78,-0.042
6.781,-0.044
6.782,-0.044
6.783,-0.044
6.784,-0.046
6.785,-0.047
6.786,-0.048
6.787,-0.05
6.788,-0.044
6.789,-0.047
6.79,-0.048
6.791,-0.05
6.792,-0.05
6.793,-0.05
6.794,-0.046
6.795,-0.047
6.796,-0.051
6.797,-0.05
6.798,-0.049
6.799,-0.047
6.8,-0.047
6.801,-0.047
6.802,-0.047
6.803,-0.047
6.804,-0.048
6.805,-0.047
6.806,-0.05
6.807,-0.05
6.808,-0.047
6.809,-0.038
6.81,-0.039
6.811,-0.041
6.812,-0.042
6.813,-0.044
6.814,-0.045
6.815,-0.044
6.816,-0.047
6.817,-0.047
6.818,-0.046
6.819,-0.047
6.82,-0.048
6.821,-0.047
6.822,-0.047
6.823,-0.047
6.824,-0.048
6.825,-0.05
6.826,-0.049
6.827,-0.05
6.828,-0.05
6.829,-0.05
6.83,-0.049
6.831,-0.047
6.832,-0.044
6.833,-0.047
6.834,-0.047
6.835,-0.047
6.836,-0.047
6.837,-0.047
6.838,-0.046
6.839,-0.047
6.84,-0.044
6.841,-0.044
6.842,-0.044
6.843,-0.044
6.844,-0.045
6.845,-0.044
6.846,-0.047
6.847,-0.047
6.848,-0.051
6.849,-0.05
6.85,-0.049
6.851,-0.05
6.852,-0.05
6.853,-0.05
6.854,-0.047
6.855,-0.041
6.856,-0.044
6.857,-0.047
6.858,-0.044
6.859,-0.044
6.86,-0.044
6.861,-0.047
6.862,-0.047
6.863,-0.047
6.864,-0.051
6.865,-0.05
6.866,-0.05
6.867,-0.05
6.868,-0.053
6.869,-0.053
6.87,-0.053
6.871,-0.053
6.872,-0.049
6.873,-0.05
6.874,-0.05
6.875,-0.05
6.876,-0.051
6.877,-0.053
6.878,-0.052
6.879,-0.05
6.88,-0.05
6.881,-0.05
6.882,-0.049
6.883,-0.05
6.884,-0.051
6.885,-0.053
6.886,-0.053
6.887,-0.05
6.888,-0.05
6.889,-0.053
6.89,-0.052
6.891,-0.053
6.892,-0.053
6.893,-0.056
6.894,-0.054
6.895,-0.056
6.896,-0.059
6.897,-0.056
6.898,-0.053
6.899,-0.053
6.9,-0.053
6.901,-0.053
6.902,-0.053
6.903,-0.053
6.904,-0.051
6.905,-0.053
6.906,-0.053
6.907,-0.053
6.908,-0.055
6.909,-0.053
6.91,-0.049
6.911,-0.05
6.912,-0.053
6.913,-0.053
6.914,-0.049
6.915,-0.044
6.916,-0.042
6.917,-0.044
6.918,-0.045
6.919,-0.047
6.92,-0.047
6.921,-0.05
6.922,-0.047
6.923,-0.05
6.924,-0.048
6.925,-0.05
6.926,-0.053
6.927,-0.05
6.928,-0.053
6.929,-0.053
6.93,-0.053
6.931,-0.053
6.932,-0.053
6.933,-0.05
6.934,-0.052
6.935,-0.047
6.936,-0.05
6.937,-0.05
6.938,-0.047
6.939,-0.047
6.94,-0.05
6.941,-0.05
6.942,-0.05
6.943,-0.05
6.944,-0.05
6.945,-0.047
6.946,-0.051
6.947,-0.05
6.948,-0.05
6.949,-0.05
6.95,-0.049
6.951,-0.047
6.952,-0.05
6.953,-0.05
6.954,-0.05
6.955,-0.05
6.956,-0.05
6.957,-0.05
6.958,-0.05
6.959,-0.05
6.96,-0.05
6.961,-0.047
6.962,-0.049
6.963,-0.05
6.964,-0.048
6.965,-0.047
6.966,-0.046
6.967,-0.047
6.968,-0.048
6.969,-0.05
6.97,-0.047
6.971,-0.047
6.972,-0.05
6.973,-0.05
6.974,-0.05
6.975,-0.044
6.976,-0.045
6.977,-0.044
6.978,-0.047
6.979,-0.047
6.98,-0.047
6.981,-0.047
6.982,-0.044
6.983,-0.044
6.984,-0.042
6.985,-0.041
6.986,-0.042
6.987,-0.044
6.988,-0.044
6.989,-0.041
6.99,-0.044
6.991,-0.044
6.992,-0.041
6.993,-0.038
6.994,-0.039
6.995,-0.041
6.996,-0.042
6.997,-0.044
6.998,-0.045
6.999,-0.041
7,-0.042
7.001,-0.041
7.002,-0.041
7.003,-0.044
7.004,-0.038
7.005,-0.038
7.006,-0.039
7.007,-0.041
7.008,-0.039
7.009,-0.041
7.01,-0.041
7.011,-0.041
7.012,-0.039
7.013,-0.038
7.014,-0.039
7.015,-0.041
7.016,-0.044
7.017,-0.044
7.018,-0.044
7.019,-0.044
7.02,-0.041
7.021,-0.038
7.022,-0.041
7.023,-0.044
7.024,-0.041
7.025,-0.044
7.026,-0.041
7.027,-0.038
7.028,-0.038
7.029,-0.038
7.03,-0.039
7.031,-0.041
7.032,-0.042
7.033,-0.044
7.034,-0.044
7.035,-0.047
7.036,-0.047
7.037,-0.047
7.038,-0.048
7.039,-0.047
7.04,-0.046
7.041,-0.047
7.042,-0.044
7.043,-0.041
7.044,-0.039
7.045,-0.044
7.046,-0.041
7.047,-0.041
7.048,-0.038
7.049,-0.041
7.05,-0.041
7.051,-0.038
7.052,-0.039
7.053,-0.034
7.054,-0.034
7.055,-0.038
7.056,-0.044
7.057,-0.044
7.058,-0.048
7.059,-0.047
7.06,-0.041
7.061,-0.038
7.062,-0.041
7.063,-0.041
7.064,-0.042
7.065,-0.041
7.066,-0.041
7.067,-0.041
7.068,-0.046
7.069,-0.041
7.07,-0.038
7.071,-0.041
7.072,-0.042
7.073,-0.047
7.074,-0.048
7.075,-0.05
7.076,-0.047
7.077,-0.047
7.078,-0.047
7.079,-0.047
7.08,-0.05
7.081,-0.047
7.082,-0.047
7.083,-0.044
7.084,-0.042
7.085,-0.044
7.086,-0.044
7.087,-0.041
7.088,-0.044
7.089,-0.044
7.09,-0.047
7.091,-0.047
7.092,-0.048
7.093,-0.05
7.094,-0.042
7.095,-0.047
7.096,-0.048
7.097,-0.05
7.098,-0.047
7.099,-0.044
7.1,-0.044
7.101,-0.044
7.102,-0.044
7.103,-0.044
7.104,-0.045
7.105,-0.047
7.106,-0.048
7.107,-0.05
7.108,-0.05
7.109,-0.05
7.11,-0.05
7.111,-0.05
7.112,-0.054
7.113,-0.053
7.114,-0.053
7.115,-0.05
7.116,-0.047
7.117,-0.047
7.118,-0.048
7.119,-0.047
7.12,-0.047
7.121,-0.047
7.122,-0.05
7.123,-0.05
7.124,-0.05
7.125,-0.05
7.126,-0.051
7.127,-0.05
7.128,-0.049
7.129,-0.05
7.13,-0.05
7.131,-0.05
7.132,-0.05
7.133,-0.05
7.134,-0.054
7.135,-0.053
7.136,-0.053
7.137,-0.053
7.138,-0.049
7.139,-0.05
7.14,-0.054
7.141,-0.053
7.142,-0.054
7.143,-0.056
7.144,-0.056
7.145,-0.056
7.146,-0.055
7.147,-0.056
7.148,-0.052
7.149,-0.05
7.15,-0.056
7.151,-0.053
7.152,-0.058
7.153,-0.056
7.154,-0.052
7.155,-0.05
7.156,-0.049
7.157,-0.05
7.158,-0.051
7.159,-0.053
7.16,-0.05
7.161,-0.053
7.162,-0.054
7.163,-0.056
7.164,-0.056
7.165,-0.056
7.166,-0.056
7.167,-0.056
7.168,-0.059
7.169,-0.056
7.17,-0.056
7.171,-0.056
7.172,-0.058
7.173,-0.059
7.174,-0.058
7.175,-0.056
7.176,-0.056
7.177,-0.053
7.178,-0.056
7.179,-0.056
7.18,-0.056
7.181,-0.053
7.182,-0.056
7.183,-0.056
7.184,-0.059
7.185,-0.062
7.186,-0.061
7.187,-0.059
7.188,-0.058
7.189,-0.056
7.19,-0.059
7.191,-0.059
7.192,-0.058
7.193,-0.062
7.194,-0.058
7.195,-0.062
7.196,-0.059
7.197,-0.056
7.198,-0.061
7.199,-0.059
7.2,-0.061
7.201,-0.062
7.202,-0.066
7.203,-0.066
7.204,-0.062
7.205,-0.066
7.206,-0.066
7.207,-0.066
7.208,-0.066
7.209,-0.066
7.21,-0.064
7.211,-0.062
7.212,-0.062
7.213,-0.062
7.214,-0.064
7.215,-0.066
7.216,-0.066
7.217,-0.069
7.218,-0.066
7.219,-0.069
7.22,-0.067
7.221,-0.069
7.222,-0.068
7.223,-0.069
7.224,-0.069
7.225,-0.069
7.226,-0.064
7.227,-0.069
7.228,-0.069
7.229,-0.069
7.23,-0.068
7.231,-0.069
7.232,-0.069
7.233,-0.069
7.234,-0.068
7.235,-0.066
7.236,-0.067
7.237,-0.066
7.238,-0.067
7.239,-0.072
7.24,-0.073
7.241,-0.075
7.242,-0.074
7.243,-0.072
7.244,-0.072
7.245,-0.069
7.246,-0.072
7.247,-0.069
7.248,-0.068
7.249,-0.066
7.25,-0.069
7.251,-0.069
7.252,-0.069
7.253,-0.069
7.254,-0.069
7.255,-0.069
7.256,-0.069
7.257,-0.069
7.258,-0.07
7.259,-0.072
7.26,-0.072
7.261,-0.072
7.262,-0.075
7.263,-0.078
7.264,-0.077
7.265,-0.075
7.266,-0.072
7.267,-0.075
7.268,-0.075
7.269,-0.075
7.27,-0.075
7.271,-0.075
7.272,-0.075
7.273,-0.075
7.274,-0.075
7.275,-0.075
7.276,-0.078
7.277,-0.081
7.278,-0.081
7.279,-0.081
7.28,-0.078
7.281,-0.078
7.282,-0.075
7.283,-0.072
7.284,-0.075
7.285,-0.075
7.286,-0.076
7.287,-0.075
7.288,-0.072
7.289,-0.072
7.29,-0.072
7.291,-0.072
7.292,-0.068
7.293,-0.062
7.294,-0.056
7.295,-0.056
7.296,-0.052
7.297,-0.044
7.298,-0.038
7.299,-0.034
7.3,-0.031
7.301,-0.031
7.302,-0.024
7.303,-0.019
7.304,-0.008
7.305,-0.003
7.306,0
7.307,0.003
7.308,0.009
7.309,0.013
7.31,0.014
7.311,0.013
7.312,0.02
7.313,0.019
7.314,0.017
7.315,0.016
7.316,0.017
7.317,0.016
7.318,0.011
7.319,0.013
7.32,0.019
7.321,0.022
7.322,0.025
7.323,0.031
7.324,0.036
7.325,0.047
7.326,0.053
7.327,0.053
7.328,0.059
7.329,0.059
7.33,0.066
7.331,0.072
7.332,0.084
7.333,0.091
7.334,0.094
7.335,0.1
7.336,0.103
7.337,0.109
7.338,0.108
7.339,0.109
7.34,0.109
7.341,0.109
7.342,0.113
7.343,0.109
7.344,0.111
7.345,0.106
7.346,0.103
7.347,0.1
7.348,0.097
7.349,0.091
7.35,0.086
7.351,0.078
7.352,0.07
7.353,0.066
7.354,0.059
7.355,0.053
7.356,0.05
7.357,0.047
7.358,0.045
7.359,0.044
7.36,0.038
7.361,0.031
7.362,0.033
7.363,0.031
7.364,0.024
7.365,0.022
7.366,0.019
7.367,0.013
7.368,0.008
7.369,0
7.37,-0.006
7.371,-0.016
7.372,-0.022
7.373,-0.031
7.374,-0.044
7.375,-0.053
7.376,-0.058
7.377,-0.062
7.378,-0.066
7.379,-0.066
7.38,-0.069
7.381,-0.069
7.382,-0.069
7.383,-0.066
7.384,-0.072
7.385,-0.075
7.386,-0.077
7.387,-0.075
7.388,-0.077
7.389,-0.075
7.39,-0.076
7.391,-0.081
7.392,-0.084
7.393,-0.088
7.394,-0.092
7.395,-0.097
7.396,-0.1
7.397,-0.1
7.398,-0.103
7.399,-0.103
7.4,-0.103
7.401,-0.106
7.402,-0.103
7.403,-0.106
7.404,-0.105
7.405,-0.106
7.406,-0.106
7.407,-0.109
7.408,-0.109
7.409,-0.109
7.41,-0.109
7.411,-0.113
7.412,-0.117
7.413,-0.119
7.414,-0.122
7.415,-0.122
7.416,-0.122
7.417,-0.125
7.418,-0.128
7.419,-0.128
7.42,-0.125
7.421,-0.125
7.422,-0.125
7.423,-0.125
7.424,-0.128
7.425,-0.125
7.426,-0.125
7.427,-0.125
7.428,-0.126
7.429,-0.131
7.43,-0.131
7.431,-0.128
7.432,-0.125
7.433,-0.122
7.434,-0.123
7.435,-0.125
7.436,-0.126
7.437,-0.125
7.438,-0.122
7.439,-0.122
7.44,-0.125
7.441,-0.122
7.442,-0.123
7.443,-0.125
7.444,-0.127
7.445,-0.128
7.446,-0.128
7.447,-0.131
7.448,-0.139
7.449,-0.141
7.45,-0.145
7.451,-0.159
7.452,-0.169
7.453,-0.175
7.454,-0.183
7.455,-0.188
7.456,-0.194
7.457,-0.188
7.458,-0.183
7.459,-0.163
7.46,-0.134
7.461,-0.106
7.462,-0.078
7.463,-0.053
7.464,-0.028
7.465,-0.006
7.466,0.02
7.467,0.053
7.468,0.091
7.469,0.159
7.47,0.223
7.471,0.313
7.472,0.394
7.473,0.475
7.474,0.563
7.475,0.653
7.476,0.739
7.477,0.822
7.478,0.906
7.479,0.969
7.48,1.042
7.481,1.125
7.482,1.206
7.483,1.256
7.484,1.302
7.485,1.316
7.486,1.313
7.487,1.275
7.488,1.228
7.489,1.159
7.49,1.088
7.491,0.994
7.492,0.9
7.493,0.794
7.494,0.695
7.495,0.613
7.496,0.532
7.497,0.478
7.498,0.42
7.499,0.4
7.5,0.376
7.501,0.366
7.502,0.35
7.503,0.328
7.504,0.309
7.505,0.281
7.506,0.253
7.507,0.238
7.508,0.222
7.509,0.2
7.51,0.184
7.511,0.172
7.512,0.159
7.513,0.147
7.514,0.141
7.515,0.134
7.516,0.125
7.517,0.116
7.518,0.106
7.519,0.091
7.52,0.078
7.521,0.072
7.522,0.059
7.523,0.05
7.524,0.039
7.525,0.028
7.526,0.021
7.527,0.009
7.528,0.001
7.529,-0.006
7.53,-0.009
7.531,-0.019
7.532,-0.021
7.533,-0.022
7.534,-0.024
7.535,-0.025
7.536,-0.028
7.537,-0.031
7.538,-0.032
7.539,-0.038
7.54,-0.047
7.541,-0.05
7.542,-0.049
7.543,-0.05
7.544,-0.056
7.545,-0.056
7.546,-0.058
7.547,-0.059
7.548,-0.061
7.549,-0.059
7.55,-0.062
7.551,-0.062
7.552,-0.066
7.553,-0.066
7.554,-0.066
7.555,-0.066
7.556,-0.064
7.557,-0.066
7.558,-0.066
7.559,-0.066
7.56,-0.064
7.561,-0.062
7.562,-0.067
7.563,-0.069
7.564,-0.071
7.565,-0.069
7.566,-0.066
7.567,-0.069
7.568,-0.069
7.569,-0.069
7.57,-0.067
7.571,-0.069
7.572,-0.066
7.573,-0.069
7.574,-0.069
7.575,-0.069
7.576,-0.068
7.577,-0.066
7.578,-0.066
7.579,-0.066
7.58,-0.062
7.581,-0.059
7.582,-0.059
7.583,-0.056
7.584,-0.062
7.585,-0.062
7.586,-0.061
7.587,-0.059
7.588,-0.056
7.589,-0.056
7.59,-0.054
7.591,-0.056
7.592,-0.056
7.593,-0.053
7.594,-0.055
7.595,-0.053
7.596,-0.053
7.597,-0.05
7.598,-0.047
7.599,-0.044
7.6,-0.044
7.601,-0.044
7.602,-0.045
7.603,-0.047
7.604,-0.045
7.605,-0.047
7.606,-0.047
7.607,-0.047
7.608,-0.047
7.609,-0.041
7.61,-0.036
7.611,-0.038
7.612,-0.036
7.613,-0.031
7.614,-0.032
7.615,-0.031
7.616,-0.032
7.617,-0.031
7.618,-0.032
7.619,-0.031
7.62,-0.031
7.621,-0.028
7.622,-0.028
7.623,-0.028
7.624,-0.025
7.625,-0.019
7.626,-0.019
7.627,-0.019
7.628,-0.014
7.629,-0.019
7.63,-0.019
7.631,-0.016
7.632,-0.016
7.633,-0.013
7.634,-0.013
7.635,-0.013
7.636,-0.009
7.637,-0.006
7.638,-0.004
7.639,-0.006
7.64,-0.006
7.641,-0.006
7.642,-0.003
7.643,0
7.644,0.005
7.645,0.003
7.646,0.003
7.647,0.003
7.648,0.009
7.649,0.016
7.65,0.014
7.651,0.016
7.652,0.016
7.653,0.016
7.654,0.017
7.655,0.019
7.656,0.02
7.657,0.025
7.658,0.024
7.659,0.025
7.66,0.031
7.661,0.028
7.662,0.031
7.663,0.034
7.664,0.038
7.665,0.041
7.666,0.043
7.667,0.044
7.668,0.046
7.669,0.047
7.67,0.053
7.671,0.056
7.672,0.058
7.673,0.059
7.674,0.058
7.675,0.059
7.676,0.066
7.677,0.069
7.678,0.07
7.679,0.075
7.68,0.08
7.681,0.081
7.682,0.088
7.683,0.094
7.684,0.097
7.685,0.097
7.686,0.097
7.687,0.106
7.688,0.113
7.689,0.119
7.69,0.121
7.691,0.119
7.692,0.128
7.693,0.137
7.694,0.144
7.695,0.15
7.696,0.152
7.697,0.153
7.698,0.158
7.699,0.159
7.7,0.163
7.701,0.159
7.702,0.169
7.703,0.181
7.704,0.188
7.705,0.194
7.706,0.198
7.707,0.206
7.708,0.217
7.709,0.222
7.71,0.228
7.711,0.231
7.712,0.238
7.713,0.244
7.714,0.252
7.715,0.256
7.716,0.263
7.717,0.266
7.718,0.27
7.719,0.278
7.72,0.283
7.721,0.287
7.722,0.295
7.723,0.3
7.724,0.307
7.725,0.313
7.726,0.316
7.727,0.322
7.728,0.328
7.729,0.328
7.73,0.334
7.731,0.341
7.732,0.345
7.733,0.35
7.734,0.353
7.735,0.356
7.736,0.361
7.737,0.366
7.738,0.366
7.739,0.366
7.74,0.366
7.741,0.369
7.742,0.37
7.743,0.375
7.744,0.377
7.745,0.375
7.746,0.375
7.747,0.375
7.748,0.376
7.749,0.372
7.75,0.371
7.751,0.366
7.752,0.364
7.753,0.362
7.754,0.366
7.755,0.366
7.756,0.356
7.757,0.347
7.758,0.339
7.759,0.334
7.76,0.327
7.761,0.319
7.762,0.309
7.763,0.306
7.764,0.296
7.765,0.287
7.766,0.28
7.767,0.269
7.768,0.261
7.769,0.253
7.77,0.248
7.771,0.241
7.772,0.231
7.773,0.219
7.774,0.209
7.775,0.197
7.776,0.191
7.777,0.184
7.778,0.176
7.779,0.166
7.78,0.159
7.781,0.153
7.782,0.147
7.783,0.137
7.784,0.127
7.785,0.119
7.786,0.109
7.787,0.103
7.788,0.098
7.789,0.088
7.79,0.078
7.791,0.072
7.792,0.072
7.793,0.069
7.794,0.064
7.795,0.059
7.796,0.052
7.797,0.044
7.798,0.039
7.799,0.038
7.8,0.03
7.801,0.025
7.802,0.02
7.803,0.016
7.804,0.011
7.805,0.006
7.806,0.002
7.807,-0.003
7.808,-0.005
7.809,-0.006
7.81,-0.008
7.811,-0.009
7.812,-0.02
7.813,-0.022
7.814,-0.022
7.815,-0.025
7.816,-0.024
7.817,-0.022
7.818,-0.027
7.819,-0.028
7.82,-0.028
7.821,-0.031
7.822,-0.032
7.823,-0.038
7.824,-0.042
7.825,-0.044
7.826,-0.044
7.827,-0.044
7.828,-0.046
7.829,-0.047
7.83,-0.046
7.831,-0.041
7.832,-0.042
7.833,-0.041
7.834,-0.045
7.835,-0.047
7.836,-0.05
7.837,-0.05
7.838,-0.05
7.839,-0.053
7.84,-0.056
7.841,-0.059
7.842,-0.059
7.843,-0.062
7.844,-0.061
7.845,-0.059
7.846,-0.058
7.847,-0.056
7.848,-0.056
7.849,-0.056
7.85,-0.059
7.851,-0.062
7.852,-0.066
7.853,-0.066
7.854,-0.062
7.855,-0.062
7.856,-0.064
7.857,-0.062
7.858,-0.067
7.859,-0.066
7.86,-0.066
7.861,-0.066
7.862,-0.064
7.863,-0.062
7.864,-0.067
7.865,-0.066
7.866,-0.066
7.867,-0.066
7.868,-0.067
7.869,-0.069
7.87,-0.068
7.871,-0.069
7.872,-0.068
7.873,-0.066
7.874,-0.068
7.875,-0.062
7.876,-0.059
7.877,-0.059
7.878,-0.064
7.879,-0.066
7.88,-0.07
7.881,-0.069
7.882,-0.069
7.883,-0.069
7.884,-0.068
7.885,-0.066
7.886,-0.067
7.887,-0.066
7.888,-0.064
7.889,-0.066
7.89,-0.066
7.891,-0.066
7.892,-0.066
7.893,-0.066
7.894,-0.068
7.895,-0.066
7.896,-0.067
7.897,-0.066
7.898,-0.066
7.899,-0.066
7.9,-0.067
7.901,-0.066
7.902,-0.068
7.903,-0.066
7.904,-0.059
7.905,-0.062
7.906,-0.067
7.907,-0.069
7.908,-0.068
7.909,-0.066
7.91,-0.067
7.911,-0.069
7.912,-0.064
7.913,-0.066
7.914,-0.069
7.915,-0.069
7.916,-0.062
7.917,-0.066
7.918,-0.066
7.919,-0.066
7.92,-0.066
7.921,-0.066
7.922,-0.066
7.923,-0.066
7.924,-0.069
7.925,-0.066
7.926,-0.067
7.927,-0.069
7.928,-0.069
7.929,-0.069
7.93,-0.069
7.931,-0.069
7.932,-0.066
7.933,-0.066
7.934,-0.066
7.935,-0.069
7.936,-0.066
7.937,-0.066
7.938,-0.07
7.939,-0.069
7.94,-0.071
7.941,-0.069
7.942,-0.073
7.943,-0.072
7.944,-0.068
7.945,-0.069
7.946,-0.072
7.947,-0.072
7.948,-0.072
7.949,-0.066
7.95,-0.068
7.951,-0.066
7.952,-0.067
7.953,-0.069
7.954,-0.069
7.955,-0.066
7.956,-0.068
7.957,-0.069
7.958,-0.067
7.959,-0.069
7.96,-0.07
7.961,-0.072
7.962,-0.072
7.963,-0.072
7.964,-0.071
7.965,-0.069
7.966,-0.066
7.967,-0.069
7.968,-0.069
7.969,-0.072
7.97,-0.07
7.971,-0.072
7.972,-0.069
7.973,-0.066
7.974,-0.067
7.975,-0.069
7.976,-0.066
7.977,-0.069
7.978,-0.068
7.979,-0.066
7.98,-0.069
7.981,-0.069
7.982,-0.067
7.983,-0.069
7.984,-0.069
7.985,-0.069
7.986,-0.069
7.987,-0.069
7.988,-0.072
7.989,-0.072
7.99,-0.072
7.991,-0.072
7.992,-0.072
7.993,-0.069
7.994,-0.072
7.995,-0.072
7.996,-0.072
7.997,-0.072
7.998,-0.069
7.999,-0.066
8,-0.07
8.001,-0.069
8.002,-0.069
8.003,-0.069
8.004,-0.069
8.005,-0.069
8.006,-0.066
8.007,-0.069
8.008,-0.069
8.009,-0.072
8.01,-0.07
8.011,-0.072
8.012,-0.075
8.013,-0.075
8.014,-0.075
8.015,-0.075
8.016,-0.071
8.017,-0.072
8.018,-0.076
8.019,-0.075
8.02,-0.075
8.021,-0.075
8.022,-0.078
8.023,-0.078
8.024,-0.078
8.025,-0.081
8.026,-0.079
8.027,-0.081
8.028,-0.08
8.029,-0.081
8.03,-0.08
8.031,-0.078
8.032,-0.078
8.033,-0.075
8.034,-0.079
8.035,-0.081
8.036,-0.081
8.037,-0.081
8.038,-0.081
8.039,-0.081
8.04,-0.082
8.041,-0.084
8.042,-0.083
8.043,-0.081
8.044,-0.084
8.045,-0.084
8.046,-0.084
8.047,-0.084
8.048,-0.081
8.049,-0.081
8.05,-0.086
8.051,-0.088
8.052,-0.089
8.053,-0.088
8.054,-0.091
8.055,-0.088
8.056,-0.086
8.057,-0.088
8.058,-0.084
8.059,-0.084
8.06,-0.088
8.061,-0.088
8.062,-0.088
8.063,-0.088
8.064,-0.089
8.065,-0.088
8.066,-0.088
8.067,-0.088
8.068,-0.086
8.069,-0.088
8.07,-0.089
8.071,-0.088
8.072,-0.091
8.073,-0.091
8.074,-0.089
8.075,-0.091
8.076,-0.089
8.077,-0.088
8.078,-0.091
8.079,-0.091
8.08,-0.092
8.081,-0.091
8.082,-0.092
8.083,-0.091
8.084,-0.095
8.085,-0.094
8.086,-0.091
8.087,-0.091
8.088,-0.086
8.089,-0.088
8.09,-0.088
8.091,-0.088
8.092,-0.089
8.093,-0.091
8.094,-0.088
8.095,-0.091
8.096,-0.088
8.097,-0.091
8.098,-0.091
8.099,-0.088
8.1,-0.088
8.101,-0.091
8.102,-0.091
8.103,-0.091
8.104,-0.091
8.105,-0.091
8.106,-0.089
8.107,-0.094
8.108,-0.091
8.109,-0.091
8.11,-0.094
8.111,-0.097
8.112,-0.094
8.113,-0.094
8.114,-0.094
8.115,-0.094
8.116,-0.094
8.117,-0.094
8.118,-0.094
8.119,-0.094
8.12,-0.092
8.121,-0.091
8.122,-0.088
8.123,-0.091
8.124,-0.097
8.125,-0.097
8.126,-0.094
8.127,-0.094
8.128,-0.096
8.129,-0.094
8.13,-0.097
8.131,-0.097
8.132,-0.096
8.133,-0.097
8.134,-0.096
8.135,-0.097
8.136,-0.095
8.137,-0.097
8.138,-0.092
8.139,-0.094
8.14,-0.095
8.141,-0.097
8.142,-0.096
8.143,-0.094
8.144,-0.097
8.145,-0.097
8.146,-0.097
8.147,-0.097
8.148,-0.097
8.149,-0.097
8.15,-0.094
8.151,-0.097
8.152,-0.097
8.153,-0.097
8.154,-0.096
8.155,-0.094
8.156,-0.095
8.157,-0.097
8.158,-0.097
8.159,-0.097
8.16,-0.089
8.161,-0.094
8.162,-0.098
8.163,-0.097
8.164,-0.098
8.165,-0.094
8.166,-0.092
8.167,-0.094
8.168,-0.097
8.169,-0.094
8.17,-0.094
8.171,-0.094
8.172,-0.094
8.173,-0.094
8.174,-0.092
8.175,-0.094
8.176,-0.098
8.177,-0.097
8.178,-0.092
8.179,-0.094
8.18,-0.094
8.181,-0.094
8.182,-0.091
8.183,-0.088
8.184,-0.089
8.185,-0.088
8.186,-0.089
8.187,-0.088
8.188,-0.089
8.189,-0.091
8.19,-0.094
8.191,-0.097
8.192,-0.094
8.193,-0.091
8.194,-0.091
8.195,-0.091
8.196,-0.091
8.197,-0.091
8.198,-0.091
8.199,-0.091
8.2,-0.091
8.201,-0.091
8.202,-0.091
8.203,-0.091
8.204,-0.091
8.205,-0.091
8.206,-0.091
8.207,-0.091
8.208,-0.091
8.209,-0.091
8.21,-0.091
8.211,-0.091
8.212,-0.091
8.213,-0.091
8.214,-0.089
8.215,-0.088
8.216,-0.088
8.217,-0.088
8.218,-0.089
8.219,-0.091
8.22,-0.091
8.221,-0.091
8.222,-0.092
8.223,-0.094
8.224,-0.094
8.225,-0.094
8.226,-0.095
8.227,-0.094
8.228,-0.089
8.229,-0.088
8.23,-0.088
8.231,-0.088
8.232,-0.086
8.233,-0.088
8.234,-0.092
8.235,-0.091
8.236,-0.092
8.237,-0.091
8.238,-0.091
8.239,-0.091
8.24,-0.089
8.241,-0.091
8.242,-0.091
8.243,-0.091
8.244,-0.091
8.245,-0.091
8.246,-0.091
8.247,-0.091
8.248,-0.092
8.249,-0.091
8.25,-0.088
8.251,-0.091
8.252,-0.095
8.253,-0.094
8.254,-0.095
8.255,-0.094
8.256,-0.086
8.257,-0.091
8.258,-0.094
8.259,-0.094
8.26,-0.092
8.261,-0.094
8.262,-0.094
8.263,-0.094
8.264,-0.092
8.265,-0.091
8.266,-0.092
8.267,-0.094
8.268,-0.092
8.269,-0.094
8.27,-0.094
8.271,-0.094
8.272,-0.095
8.273,-0.094
8.274,-0.092
8.275,-0.094
8.276,-0.094
8.277,-0.094
8.278,-0.092
8.279,-0.097
8.28,-0.094
8.281,-0.094
8.282,-0.091
8.283,-0.094
8.284,-0.094
8.285,-0.091
8.286,-0.095
8.287,-0.094
8.288,-0.091
8.289,-0.091
8.29,-0.092
8.291,-0.088
8.292,-0.091
8.293,-0.088
8.294,-0.084
8.295,-0.084
8.296,-0.088
8.297,-0.088
8.298,-0.088
8.299,-0.084
8.3,-0.083
8.301,-0.081
8.302,-0.091
8.303,-0.091
8.304,-0.088
8.305,-0.091
8.306,-0.088
8.307,-0.088
8.308,-0.088
8.309,-0.088
8.31,-0.086
8.311,-0.088
8.312,-0.086
8.313,-0.084
8.314,-0.088
8.315,-0.084
8.316,-0.089
8.317,-0.091
8.318,-0.089
8.319,-0.091
8.32,-0.091
8.321,-0.088
8.322,-0.089
8.323,-0.088
8.324,-0.091
8.325,-0.091
8.326,-0.091
8.327,-0.091
8.328,-0.083
8.329,-0.088
8.33,-0.089
8.331,-0.091
8.332,-0.091
8.333,-0.091
8.334,-0.091
8.335,-0.091
8.336,-0.091
8.337,-0.091
8.338,-0.091
8.339,-0.091
8.34,-0.094
8.341,-0.097
8.342,-0.096
8.343,-0.094
8.344,-0.091
8.345,-0.088
8.346,-0.088
8.347,-0.081
8.348,-0.082
8.349,-0.081
8.35,-0.082
8.351,-0.088
8.352,-0.089
8.353,-0.088
8.354,-0.088
8.355,-0.088
8.356,-0.089
8.357,-0.088
8.358,-0.089
8.359,-0.091
8.36,-0.092
8.361,-0.091
8.362,-0.089
8.363,-0.091
8.364,-0.089
8.365,-0.088
8.366,-0.088
8.367,-0.088
8.368,-0.091
8.369,-0.088
8.37,-0.088
8.371,-0.088
8.372,-0.083
8.373,-0.084
8.374,-0.091
8.375,-0.091
8.376,-0.089
8.377,-0.088
8.378,-0.088
8.379,-0.088
8.38,-0.088
8.381,-0.091
8.382,-0.088
8.383,-0.088
8.384,-0.094
8.385,-0.091
8.386,-0.094
8.387,-0.091
8.388,-0.088
8.389,-0.088
8.39,-0.088
8.391,-0.091
8.392,-0.091
8.393,-0.091
8.394,-0.088
8.395,-0.091
8.396,-0.091
8.397,-0.091
8.398,-0.089
8.399,-0.088
8.4,-0.088
8.401,-0.088
8.402,-0.092
8.403,-0.091
8.404,-0.091
8.405,-0.091
8.406,-0.092
8.407,-0.094
8.408,-0.094
8.409,-0.094
8.41,-0.094
8.411,-0.091
8.412,-0.092
8.413,-0.091
8.414,-0.089
8.415,-0.084
8.416,-0.088
8.417,-0.088
8.418,-0.089
8.419,-0.091
8.42,-0.089
8.421,-0.088
8.422,-0.088
8.423,-0.088
8.424,-0.091
8.425,-0.091
8.426,-0.088
8.427,-0.091
8.428,-0.084
8.429,-0.088
8.43,-0.088
8.431,-0.088
8.432,-0.091
8.433,-0.088
8.434,-0.086
8.435,-0.084
8.436,-0.088
8.437,-0.088
8.438,-0.084
8.439,-0.088
8.44,-0.088
8.441,-0.088
8.442,-0.089
8.443,-0.091
8.444,-0.091
8.445,-0.091
8.446,-0.089
8.447,-0.088
8.448,-0.084
8.449,-0.081
8.45,-0.082
8.451,-0.088
8.452,-0.086
8.453,-0.091
8.454,-0.088
8.455,-0.088
8.456,-0.086
8.457,-0.088
8.458,-0.089
8.459,-0.091
8.46,-0.084
8.461,-0.088
8.462,-0.084
8.463,-0.081
8.464,-0.078
8.465,-0.078
8.466,-0.079
8.467,-0.081
8.468,-0.084
8.469,-0.088
8.47,-0.091
8.471,-0.091
8.472,-0.086
8.473,-0.084
8.474,-0.084
8.475,-0.084
8.476,-0.084
8.477,-0.084
8.478,-0.086
8.479,-0.084
8.48,-0.088
8.481,-0.084
8.482,-0.083
8.483,-0.081
8.484,-0.084
8.485,-0.084
8.486,-0.084
8.487,-0.084
8.488,-0.084
8.489,-0.084
8.49,-0.086
8.491,-0.088
8.492,-0.086
8.493,-0.084
8.494,-0.084
8.495,-0.084
8.496,-0.086
8.497,-0.088
8.498,-0.084
8.499,-0.081
8.5,-0.078
8.501,-0.081
8.502,-0.082
8.503,-0.084
8.504,-0.084
8.505,-0.084
8.506,-0.084
8.507,-0.084
8.508,-0.083
8.509,-0.081
8.51,-0.082
8.511,-0.084
8.512,-0.086
8.513,-0.088
8.514,-0.081
8.515,-0.078
8.516,-0.077
8.517,-0.075
8.518,-0.078
8.519,-0.078
8.52,-0.078
8.521,-0.075
8.522,-0.072
8.523,-0.072
8.524,-0.073
8.525,-0.075
8.526,-0.073
8.527,-0.072
8.528,-0.066
8.529,-0.066
8.53,-0.064
8.531,-0.059
8.532,-0.052
8.533,-0.047
8.534,-0.039
8.535,-0.034
8.536,-0.028
8.537,-0.025
8.538,-0.017
8.539,-0.016
8.54,-0.013
8.541,-0.009
8.542,0.001
8.543,0.009
8.544,0.013
8.545,0.013
8.546,0.02
8.547,0.019
8.548,0.019
8.549,0.019
8.55,0.019
8.551,0.016
8.552,0.009
8.553,0.009
8.554,0.011
8.555,0.009
8.556,0.014
8.557,0.022
8.558,0.024
8.559,0.031
8.56,0.044
8.561,0.05
8.562,0.058
8.563,0.059
8.564,0.062
8.565,0.066
8.566,0.075
8.567,0.078
8.568,0.081
8.569,0.088
8.57,0.089
8.571,0.094
8.572,0.096
8.573,0.1
8.574,0.099
8.575,0.097
8.576,0.103
8.577,0.103
8.578,0.108
8.579,0.106
8.58,0.104
8.581,0.103
8.582,0.104
8.583,0.103
8.584,0.096
8.585,0.084
8.586,0.074
8.587,0.066
8.588,0.058
8.589,0.05
8.59,0.048
8.591,0.047
8.592,0.044
8.593,0.041
8.594,0.038
8.595,0.034
8.596,0.036
8.597,0.034
8.598,0.029
8.599,0.031
8.6,0.027
8.601,0.019
8.602,0.017
8.603,0.013
8.604,0.007
8.605,0
8.606,-0.011
8.607,-0.025
8.608,-0.034
8.609,-0.041
8.61,-0.044
8.611,-0.047
8.612,-0.058
8.613,-0.066
8.614,-0.07
8.615,-0.072
8.616,-0.073
8.617,-0.072
8.618,-0.074
8.619,-0.072
8.62,-0.074
8.621,-0.072
8.622,-0.076
8.623,-0.078
8.624,-0.078
8.625,-0.081
8.626,-0.081
8.627,-0.081
8.628,-0.086
8.629,-0.091
8.63,-0.094
8.631,-0.094
8.632,-0.098
8.633,-0.1
8.634,-0.101
8.635,-0.106
8.636,-0.103
8.637,-0.106
8.638,-0.105
8.639,-0.106
8.64,-0.106
8.641,-0.109
8.642,-0.109
8.643,-0.109
8.644,-0.108
8.645,-0.109
8.646,-0.111
8.647,-0.109
8.648,-0.111
8.649,-0.109
8.65,-0.114
8.651,-0.122
8.652,-0.125
8.653,-0.125
8.654,-0.123
8.655,-0.125
8.656,-0.125
8.657,-0.125
8.658,-0.129
8.659,-0.128
8.66,-0.127
8.661,-0.125
8.662,-0.124
8.663,-0.125
8.664,-0.126
8.665,-0.125
8.666,-0.125
8.667,-0.125
8.668,-0.125
8.669,-0.125
8.67,-0.125
8.671,-0.122
8.672,-0.121
8.673,-0.122
8.674,-0.125
8.675,-0.122
8.676,-0.122
8.677,-0.122
8.678,-0.124
8.679,-0.125
8.68,-0.126
8.681,-0.131
8.682,-0.136
8.683,-0.134
8.684,-0.136
8.685,-0.147
8.686,-0.156
8.687,-0.163
8.688,-0.172
8.689,-0.178
8.69,-0.191
8.691,-0.191
8.692,-0.192
8.693,-0.178
8.694,-0.156
8.695,-0.134
8.696,-0.106
8.697,-0.081
8.698,-0.05
8.699,-0.022
8.7,0
8.701,0.028
8.702,0.055
8.703,0.113
8.704,0.166
8.705,0.244
8.706,0.325
8.707,0.406
8.708,0.489
8.709,0.575
8.71,0.67
8.711,0.763
8.712,0.851
8.713,0.919
8.714,0.983
8.715,1.056
8.716,1.145
8.717,1.203
8.718,1.273
8.719,1.313
8.72,1.329
8.721,1.313
8.722,1.276
8.723,1.219
8.724,1.157
8.725,1.075
8.726,0.988
8.727,0.887
8.728,0.781
8.729,0.691
8.73,0.591
8.731,0.516
8.732,0.447
8.733,0.416
8.734,0.386
8.735,0.369
8.736,0.362
8.737,0.35
8.738,0.331
8.739,0.303
8.74,0.269
8.741,0.247
8.742,0.238
8.743,0.222
8.744,0.205
8.745,0.191
8.746,0.175
8.747,0.159
8.748,0.149
8.749,0.137
8.75,0.133
8.751,0.128
8.752,0.122
8.753,0.109
8.754,0.097
8.755,0.091
8.756,0.075
8.757,0.062
8.758,0.053
8.759,0.044
8.76,0.036
8.761,0.025
8.762,0.016
8.763,0.006
8.764,0.003
8.765,-0.006
8.766,-0.009
8.767,-0.013
8.768,-0.016
8.769,-0.019
8.77,-0.023
8.771,-0.028
8.772,-0.027
8.773,-0.028
8.774,-0.034
8.775,-0.034
8.776,-0.034
8.777,-0.038
8.778,-0.047
8.779,-0.05
8.78,-0.052
8.781,-0.053
8.782,-0.056
8.783,-0.056
8.784,-0.061
8.785,-0.062
8.786,-0.061
8.787,-0.056
8.788,-0.056
8.789,-0.056
8.79,-0.056
8.791,-0.059
8.792,-0.061
8.793,-0.062
8.794,-0.062
8.795,-0.062
8.796,-0.066
8.797,-0.066
8.798,-0.069
8.799,-0.069
8.8,-0.066
8.801,-0.069
8.802,-0.069
8.803,-0.069
8.804,-0.067
8.805,-0.069
8.806,-0.064
8.807,-0.066
8.808,-0.062
8.809,-0.059
8.81,-0.061
8.811,-0.062
8.812,-0.062
8.813,-0.062
8.814,-0.062
8.815,-0.062
8.816,-0.061
8.817,-0.056
8.818,-0.059
8.819,-0.056
8.82,-0.056
8.821,-0.056
8.822,-0.054
8.823,-0.056
8.824,-0.052
8.825,-0.05
8.826,-0.051
8.827,-0.05
8.828,-0.053
8.829,-0.053
8.83,-0.054
8.831,-0.053
8.832,-0.049
8.833,-0.044
8.834,-0.045
8.835,-0.047
8.836,-0.044
8.837,-0.041
8.838,-0.038
8.839,-0.038
8.84,-0.038
8.841,-0.038
8.842,-0.041
8.843,-0.038
8.844,-0.034
8.845,-0.038
8.846,-0.038
8.847,-0.034
8.848,-0.036
8.849,-0.034
8.85,-0.033
8.851,-0.028
8.852,-0.029
8.853,-0.028
8.854,-0.028
8.855,-0.025
