'Elapsed time','II'
'seconds','mV'
0.000,-0.042
0.001,0.075
0.002,0.075
0.003,0.075
0.004,0.072
0.005,0.069
0.006,0.067
0.007,0.066
0.008,0.061
0.009,0.056
0.010,0.046
0.011,0.038
0.012,0.033
0.013,0.025
0.014,0.016
0.015,0.009
0.016,0.009
0.017,0.006
0.018,0.003
0.019,0.003
0.020,0.004
0.021,0.000
0.022,0.003
0.023,0.000
0.024,0.001
0.025,-0.003
0.026,-0.007
0.027,-0.012
0.028,-0.025
0.029,-0.031
0.030,-0.033
0.031,-0.041
0.032,-0.057
0.033,-0.069
0.034,-0.081
0.035,-0.084
0.036,-0.089
0.037,-0.091
0.038,-0.100
0.039,-0.100
0.040,-0.097
0.041,-0.094
0.042,-0.095
0.043,-0.100
0.044,-0.102
0.045,-0.103
0.046,-0.104
0.047,-0.106
0.048,-0.111
0.049,-0.116
0.050,-0.117
0.051,-0.116
0.052,-0.119
0.053,-0.119
0.054,-0.126
0.055,-0.125
0.056,-0.128
0.057,-0.128
0.058,-0.127
0.059,-0.128
0.060,-0.129
0.061,-0.134
0.062,-0.133
0.063,-0.131
0.064,-0.136
0.065,-0.137
0.066,-0.141
0.067,-0.144
0.068,-0.142
0.069,-0.144
0.070,-0.144
0.071,-0.144
0.072,-0.146
0.073,-0.147
0.074,-0.147
0.075,-0.147
0.076,-0.148
0.077,-0.150
0.078,-0.149
0.079,-0.144
0.080,-0.142
0.081,-0.144
0.082,-0.144
0.083,-0.144
0.084,-0.145
0.085,-0.147
0.086,-0.144
0.087,-0.147
0.088,-0.150
0.089,-0.150
0.090,-0.146
0.091,-0.144
0.092,-0.141
0.093,-0.141
0.094,-0.141
0.095,-0.141
0.096,-0.144
0.097,-0.144
0.098,-0.145
0.099,-0.153
0.100,-0.155
0.101,-0.153
0.102,-0.156
0.103,-0.162
0.104,-0.172
0.105,-0.181
0.106,-0.198
0.107,-0.212
0.108,-0.225
0.109,-0.234
0.110,-0.241
0.111,-0.237
0.112,-0.222
0.113,-0.197
0.114,-0.172
0.115,-0.137
0.116,-0.105
0.117,-0.066
0.118,-0.022
0.119,0.009
0.120,0.048
0.121,0.088
0.122,0.133
0.123,0.200
0.124,0.272
0.125,0.366
0.126,0.458
0.127,0.550
0.128,0.650
0.129,0.759
0.130,0.875
0.131,0.978
0.132,1.072
0.133,1.141
0.134,1.211
0.135,1.300
0.136,1.388
0.137,1.463
0.138,1.523
0.139,1.550
0.140,1.573
0.141,1.525
0.142,1.469
0.143,1.388
0.144,1.306
0.145,1.203
0.146,1.102
0.147,0.978
0.148,0.844
0.149,0.734
0.150,0.636
0.151,0.556
0.152,0.489
0.153,0.444
0.154,0.396
0.155,0.363
0.156,0.334
0.157,0.312
0.158,0.286
0.159,0.253
0.160,0.219
0.161,0.209
0.162,0.203
0.163,0.188
0.164,0.173
0.165,0.163
0.166,0.153
0.167,0.150
0.168,0.147
0.169,0.144
0.170,0.138
0.171,0.128
0.172,0.118
0.173,0.103
0.174,0.094
0.175,0.078
0.176,0.061
0.177,0.041
0.178,0.027
0.179,0.019
0.180,0.014
0.181,0.009
0.182,-0.001
0.183,-0.012
0.184,-0.014
0.185,-0.016
0.186,-0.024
0.187,-0.025
0.188,-0.025
0.189,-0.034
0.190,-0.034
0.191,-0.037
0.192,-0.039
0.193,-0.044
0.194,-0.048
0.195,-0.053
0.196,-0.059
0.197,-0.059
0.198,-0.066
0.199,-0.066
0.200,-0.067
0.201,-0.066
0.202,-0.066
0.203,-0.069
0.204,-0.072
0.205,-0.072
0.206,-0.071
0.207,-0.069
0.208,-0.069
0.209,-0.069
0.210,-0.069
0.211,-0.069
0.212,-0.070
0.213,-0.069
0.214,-0.067
0.215,-0.069
0.216,-0.072
0.217,-0.072
0.218,-0.071
0.219,-0.069
0.220,-0.069
0.221,-0.069
0.222,-0.069
0.223,-0.069
0.224,-0.069
0.225,-0.069
0.226,-0.067
0.227,-0.069
0.228,-0.064
0.229,-0.056
0.230,-0.055
0.231,-0.053
0.232,-0.053
0.233,-0.053
0.234,-0.056
0.235,-0.056
0.236,-0.053
0.237,-0.050
0.238,-0.053
0.239,-0.050
0.240,-0.051
0.241,-0.050
0.242,-0.050
0.243,-0.050
0.244,-0.053
0.245,-0.053
0.246,-0.053
0.247,-0.050
0.248,-0.050
0.249,-0.050
0.250,-0.053
0.251,-0.050
0.252,-0.050
0.253,-0.047
0.254,-0.050
0.255,-0.050
0.256,-0.047
0.257,-0.044
0.258,-0.039
0.259,-0.037
0.260,-0.034
0.261,-0.034
0.262,-0.036
0.263,-0.034
0.264,-0.034
0.265,-0.034
0.266,-0.034
0.267,-0.034
0.268,-0.034
0.269,-0.031
0.270,-0.036
0.271,-0.034
0.272,-0.031
0.273,-0.031
0.274,-0.028
0.275,-0.025
0.276,-0.025
0.277,-0.025
0.278,-0.017
0.279,-0.012
0.280,-0.011
0.281,-0.009
0.282,-0.019
0.283,-0.028
0.284,-0.025
0.285,-0.022
0.286,-0.017
0.287,-0.012
0.288,-0.009
0.289,-0.006
0.290,-0.002
0.291,0.000
0.292,-0.009
0.293,-0.012
0.294,-0.011
0.295,-0.012
0.296,-0.008
0.297,-0.009
0.298,-0.011
0.299,-0.009
0.300,-0.002
0.301,0.003
0.302,0.002
0.303,0.003
0.304,0.003
0.305,0.003
0.306,0.005
0.307,0.006
0.308,0.011
0.309,0.013
0.310,0.011
0.311,0.013
0.312,0.014
0.313,0.019
0.314,0.023
0.315,0.025
0.316,0.027
0.317,0.028
0.318,0.028
0.319,0.028
0.320,0.031
0.321,0.031
0.322,0.033
0.323,0.041
0.324,0.039
0.325,0.041
0.326,0.041
0.327,0.041
0.328,0.048
0.329,0.053
0.330,0.053
0.331,0.059
0.332,0.064
0.333,0.072
0.334,0.076
0.335,0.081
0.336,0.081
0.337,0.084
0.338,0.091
0.339,0.097
0.340,0.102
0.341,0.106
0.342,0.111
0.343,0.109
0.344,0.117
0.345,0.122
0.346,0.130
0.347,0.128
0.348,0.134
0.349,0.138
0.350,0.150
0.351,0.159
0.352,0.166
0.353,0.172
0.354,0.175
0.355,0.178
0.356,0.184
0.357,0.191
0.358,0.196
0.359,0.200
0.360,0.203
0.361,0.203
0.362,0.211
0.363,0.219
0.364,0.225
0.365,0.231
0.366,0.238
0.367,0.247
0.368,0.258
0.369,0.266
0.370,0.272
0.371,0.278
0.372,0.281
0.373,0.288
0.374,0.294
0.375,0.294
0.376,0.297
0.377,0.303
0.378,0.305
0.379,0.309
0.380,0.316
0.381,0.322
0.382,0.327
0.383,0.328
0.384,0.334
0.385,0.344
0.386,0.346
0.387,0.347
0.388,0.353
0.389,0.356
0.390,0.359
0.391,0.366
0.392,0.366
0.393,0.366
0.394,0.370
0.395,0.372
0.396,0.376
0.397,0.375
0.398,0.375
0.399,0.375
0.400,0.372
0.401,0.372
0.402,0.368
0.403,0.366
0.404,0.366
0.405,0.363
0.406,0.356
0.407,0.350
0.408,0.344
0.409,0.338
0.410,0.336
0.411,0.328
0.412,0.317
0.413,0.312
0.414,0.302
0.415,0.294
0.416,0.283
0.417,0.272
0.418,0.269
0.419,0.259
0.420,0.250
0.421,0.238
0.422,0.233
0.423,0.228
0.424,0.219
0.425,0.209
0.426,0.204
0.427,0.194
0.428,0.188
0.429,0.178
0.430,0.173
0.431,0.166
0.432,0.147
0.433,0.134
0.434,0.129
0.435,0.125
0.436,0.120
0.437,0.112
0.438,0.108
0.439,0.100
0.440,0.097
0.441,0.094
0.442,0.086
0.443,0.081
0.444,0.069
0.445,0.059
0.446,0.058
0.447,0.053
0.448,0.050
0.449,0.047
0.450,0.039
0.451,0.034
0.452,0.033
0.453,0.031
0.454,0.025
0.455,0.022
0.456,0.016
0.457,0.013
0.458,0.014
0.459,0.009
0.460,0.002
0.461,-0.003
0.462,-0.003
0.463,-0.006
0.464,-0.011
0.465,-0.009
0.466,-0.012
0.467,-0.012
0.468,-0.012
0.469,-0.016
0.470,-0.016
0.471,-0.016
0.472,-0.022
0.473,-0.028
0.474,-0.025
0.475,-0.025
0.476,-0.029
0.477,-0.031
0.478,-0.032
0.479,-0.034
0.480,-0.033
0.481,-0.034
0.482,-0.037
0.483,-0.037
0.484,-0.041
0.485,-0.044
0.486,-0.042
0.487,-0.044
0.488,-0.041
0.489,-0.044
0.490,-0.041
0.491,-0.037
0.492,-0.044
0.493,-0.047
0.494,-0.047
0.495,-0.047
0.496,-0.041
0.497,-0.037
0.498,-0.037
0.499,-0.041
0.500,-0.044
0.501,-0.047
0.502,-0.047
0.503,-0.047
0.504,-0.047
0.505,-0.047
0.506,-0.046
0.507,-0.044
0.508,-0.047
0.509,-0.047
0.510,-0.044
0.511,-0.047
0.512,-0.048
0.513,-0.047
0.514,-0.047
0.515,-0.047
0.516,-0.047
0.517,-0.050
0.518,-0.047
0.519,-0.047
0.520,-0.047
0.521,-0.047
0.522,-0.047
0.523,-0.047
0.524,-0.047
0.525,-0.044
0.526,-0.042
0.527,-0.044
0.528,-0.045
0.529,-0.047
0.530,-0.044
0.531,-0.047
0.532,-0.047
0.533,-0.047
0.534,-0.046
0.535,-0.044
0.536,-0.044
0.537,-0.044
0.538,-0.047
0.539,-0.047
0.540,-0.051
0.541,-0.050
0.542,-0.050
0.543,-0.053
0.544,-0.049
0.545,-0.044
0.546,-0.042
0.547,-0.041
0.548,-0.039
0.549,-0.041
0.550,-0.042
0.551,-0.044
0.552,-0.044
0.553,-0.041
0.554,-0.042
0.555,-0.044
0.556,-0.045
0.557,-0.047
0.558,-0.047
0.559,-0.047
0.560,-0.046
0.561,-0.044
0.562,-0.039
0.563,-0.037
0.564,-0.039
0.565,-0.037
0.566,-0.042
0.567,-0.044
0.568,-0.042
0.569,-0.037
0.570,-0.041
0.571,-0.037
0.572,-0.041
0.573,-0.041
0.574,-0.039
0.575,-0.037
0.576,-0.041
0.577,-0.041
0.578,-0.042
0.579,-0.044
0.580,-0.041
0.581,-0.037
0.582,-0.039
0.583,-0.041
0.584,-0.039
0.585,-0.041
0.586,-0.039
0.587,-0.037
0.588,-0.044
0.589,-0.047
0.590,-0.044
0.591,-0.047
0.592,-0.048
0.593,-0.050
0.594,-0.051
0.595,-0.053
0.596,-0.053
0.597,-0.056
0.598,-0.053
0.599,-0.053
0.600,-0.052
0.601,-0.050
0.602,-0.050
0.603,-0.050
0.604,-0.050
0.605,-0.053
0.606,-0.052
0.607,-0.050
0.608,-0.050
0.609,-0.050
0.610,-0.054
0.611,-0.053
0.612,-0.053
0.613,-0.053
0.614,-0.054
0.615,-0.056
0.616,-0.053
0.617,-0.056
0.618,-0.057
0.619,-0.056
0.620,-0.056
0.621,-0.056
0.622,-0.058
0.623,-0.056
0.624,-0.056
0.625,-0.053
0.626,-0.057
0.627,-0.059
0.628,-0.061
0.629,-0.062
0.630,-0.059
0.631,-0.062
0.632,-0.062
0.633,-0.062
0.634,-0.061
0.635,-0.059
0.636,-0.064
0.637,-0.066
0.638,-0.069
0.639,-0.069
0.640,-0.066
0.641,-0.066
0.642,-0.067
0.643,-0.069
0.644,-0.072
0.645,-0.069
0.646,-0.067
0.647,-0.066
0.648,-0.066
0.649,-0.066
0.650,-0.069
0.651,-0.069
0.652,-0.067
0.653,-0.066
0.654,-0.069
0.655,-0.069
0.656,-0.067
0.657,-0.069
0.658,-0.067
0.659,-0.069
0.660,-0.067
0.661,-0.069
0.662,-0.066
0.663,-0.066
0.664,-0.069
0.665,-0.069
0.666,-0.070
0.667,-0.072
0.668,-0.073
0.669,-0.075
0.670,-0.074
0.671,-0.075
0.672,-0.073
0.673,-0.075
0.674,-0.075
0.675,-0.075
0.676,-0.071
0.677,-0.072
0.678,-0.073
0.679,-0.072
0.680,-0.074
0.681,-0.072
0.682,-0.073
0.683,-0.078
0.684,-0.077
0.685,-0.072
0.686,-0.072
0.687,-0.072
0.688,-0.072
0.689,-0.072
0.690,-0.076
0.691,-0.075
0.692,-0.075
0.693,-0.075
0.694,-0.072
0.695,-0.072
0.696,-0.075
0.697,-0.078
0.698,-0.078
0.699,-0.078
0.700,-0.079
0.701,-0.081
0.702,-0.081
0.703,-0.081
0.704,-0.081
0.705,-0.081
0.706,-0.078
0.707,-0.075
0.708,-0.078
0.709,-0.078
0.710,-0.078
0.711,-0.078
0.712,-0.075
0.713,-0.078
0.714,-0.076
0.715,-0.081
0.716,-0.082
0.717,-0.084
0.718,-0.082
0.719,-0.087
0.720,-0.087
0.721,-0.087
0.722,-0.087
0.723,-0.084
0.724,-0.087
0.725,-0.084
0.726,-0.082
0.727,-0.084
0.728,-0.084
0.729,-0.084
0.730,-0.084
0.731,-0.084
0.732,-0.087
0.733,-0.087
0.734,-0.091
0.735,-0.087
0.736,-0.087
0.737,-0.091
0.738,-0.091
0.739,-0.091
0.740,-0.089
0.741,-0.087
0.742,-0.087
0.743,-0.087
0.744,-0.089
0.745,-0.091
0.746,-0.086
0.747,-0.087
0.748,-0.087
0.749,-0.087
0.750,-0.091
0.751,-0.087
0.752,-0.089
0.753,-0.094
0.754,-0.092
0.755,-0.094
0.756,-0.091
0.757,-0.091
0.758,-0.084
0.759,-0.084
0.760,-0.092
0.761,-0.094
0.762,-0.097
0.763,-0.094
0.764,-0.091
0.765,-0.091
0.766,-0.094
0.767,-0.094
0.768,-0.094
0.769,-0.094
0.770,-0.087
0.771,-0.091
0.772,-0.092
0.773,-0.091
0.774,-0.091
0.775,-0.091
0.776,-0.091
0.777,-0.091
0.778,-0.095
0.779,-0.097
0.780,-0.095
0.781,-0.097
0.782,-0.096
0.783,-0.094
0.784,-0.095
0.785,-0.097
0.786,-0.097
0.787,-0.097
0.788,-0.100
0.789,-0.100
0.790,-0.096
0.791,-0.091
0.792,-0.094
0.793,-0.094
0.794,-0.094
0.795,-0.097
0.796,-0.094
0.797,-0.097
0.798,-0.098
0.799,-0.100
0.800,-0.101
0.801,-0.100
0.802,-0.100
0.803,-0.100
0.804,-0.099
0.805,-0.097
0.806,-0.099
0.807,-0.097
0.808,-0.098
0.809,-0.097
0.810,-0.100
0.811,-0.100
0.812,-0.100
0.813,-0.097
0.814,-0.098
0.815,-0.100
0.816,-0.100
0.817,-0.103
0.818,-0.103
0.819,-0.103
0.820,-0.102
0.821,-0.106
0.822,-0.107
0.823,-0.106
0.824,-0.102
0.825,-0.097
0.826,-0.100
0.827,-0.100
0.828,-0.100
0.829,-0.100
0.830,-0.098
0.831,-0.100
0.832,-0.103
0.833,-0.106
0.834,-0.106
0.835,-0.106
0.836,-0.104
0.837,-0.109
0.838,-0.106
0.839,-0.106
0.840,-0.105
0.841,-0.103
0.842,-0.104
0.843,-0.103
0.844,-0.106
0.845,-0.103
0.846,-0.106
0.847,-0.106
0.848,-0.107
0.849,-0.106
0.850,-0.102
0.851,-0.106
0.852,-0.104
0.853,-0.109
0.854,-0.111
0.855,-0.112
0.856,-0.108
0.857,-0.106
0.858,-0.105
0.859,-0.103
0.860,-0.103
0.861,-0.103
0.862,-0.105
0.863,-0.103
0.864,-0.104
0.865,-0.106
0.866,-0.107
0.867,-0.106
0.868,-0.111
0.869,-0.112
0.870,-0.109
0.871,-0.109
0.872,-0.109
0.873,-0.109
0.874,-0.108
0.875,-0.106
0.876,-0.106
0.877,-0.109
0.878,-0.111
0.879,-0.109
0.880,-0.105
0.881,-0.103
0.882,-0.103
0.883,-0.103
0.884,-0.101
0.885,-0.103
0.886,-0.104
0.887,-0.109
0.888,-0.109
0.889,-0.109
0.890,-0.109
0.891,-0.109
0.892,-0.109
0.893,-0.109
0.894,-0.112
0.895,-0.109
0.896,-0.106
0.897,-0.103
0.898,-0.104
0.899,-0.106
0.900,-0.107
0.901,-0.109
0.902,-0.109
0.903,-0.106
0.904,-0.111
0.905,-0.116
0.906,-0.117
0.907,-0.116
0.908,-0.114
0.909,-0.112
0.910,-0.111
0.911,-0.109
0.912,-0.109
0.913,-0.109
0.914,-0.106
0.915,-0.106
0.916,-0.109
0.917,-0.109
0.918,-0.109
0.919,-0.109
0.920,-0.109
0.921,-0.106
0.922,-0.109
0.923,-0.109
0.924,-0.109
0.925,-0.109
0.926,-0.112
0.927,-0.116
0.928,-0.116
0.929,-0.112
0.930,-0.108
0.931,-0.106
0.932,-0.111
0.933,-0.112
0.934,-0.109
0.935,-0.106
0.936,-0.106
0.937,-0.106
0.938,-0.109
0.939,-0.109
0.940,-0.107
0.941,-0.106
0.942,-0.109
0.943,-0.109
0.944,-0.109
0.945,-0.109
0.946,-0.108
0.947,-0.106
0.948,-0.109
0.949,-0.109
0.950,-0.111
0.951,-0.112
0.952,-0.109
0.953,-0.112
0.954,-0.112
0.955,-0.112
0.956,-0.109
0.957,-0.109
0.958,-0.111
0.959,-0.109
0.960,-0.112
0.961,-0.109
0.962,-0.111
0.963,-0.109
0.964,-0.109
0.965,-0.112
0.966,-0.106
0.967,-0.109
0.968,-0.114
0.969,-0.116
0.970,-0.112
0.971,-0.112
0.972,-0.111
0.973,-0.109
0.974,-0.112
0.975,-0.116
0.976,-0.111
0.977,-0.112
0.978,-0.111
0.979,-0.109
0.980,-0.111
0.981,-0.116
0.982,-0.119
0.983,-0.119
0.984,-0.117
0.985,-0.116
0.986,-0.116
0.987,-0.116
0.988,-0.116
0.989,-0.116
0.990,-0.116
0.991,-0.116
0.992,-0.112
0.993,-0.109
0.994,-0.111
0.995,-0.109
0.996,-0.106
0.997,-0.106
0.998,-0.107
0.999,-0.109
1.000,-0.112
1.001,-0.112
1.002,-0.111
1.003,-0.109
1.004,-0.112
1.005,-0.112
1.006,-0.112
1.007,-0.109
1.008,-0.109
1.009,-0.106
1.010,-0.114
1.011,-0.112
1.012,-0.108
1.013,-0.103
1.014,-0.106
1.015,-0.106
1.016,-0.109
1.017,-0.112
1.018,-0.109
1.019,-0.109
1.020,-0.111
1.021,-0.109
1.022,-0.109
1.023,-0.109
1.024,-0.106
1.025,-0.109
1.026,-0.107
1.027,-0.109
1.028,-0.109
1.029,-0.106
1.030,-0.102
1.031,-0.100
1.032,-0.098
1.033,-0.100
1.034,-0.099
1.035,-0.094
1.036,-0.094
1.037,-0.091
1.038,-0.089
1.039,-0.084
1.040,-0.077
1.041,-0.069
1.042,-0.064
1.043,-0.062
1.044,-0.057
1.045,-0.053
1.046,-0.050
1.047,-0.047
1.048,-0.041
1.049,-0.037
1.050,-0.030
1.051,-0.022
1.052,-0.019
1.053,-0.019
1.054,-0.016
1.055,-0.012
1.056,-0.012
1.057,-0.012
1.058,-0.011
1.059,-0.012
1.060,-0.014
1.061,-0.016
1.062,-0.008
1.063,0.000
1.064,0.000
1.065,0.003
1.066,0.009
1.067,0.016
1.068,0.022
1.069,0.028
1.070,0.030
1.071,0.028
1.072,0.036
1.073,0.047
1.074,0.058
1.075,0.063
1.076,0.069
1.077,0.072
1.078,0.078
1.079,0.081
1.080,0.086
1.081,0.084
1.082,0.086
1.083,0.084
1.084,0.086
1.085,0.084
1.086,0.078
1.087,0.075
1.088,0.076
1.089,0.075
1.090,0.075
1.091,0.072
1.092,0.067
1.093,0.059
1.094,0.053
1.095,0.050
1.096,0.047
1.097,0.041
1.098,0.031
1.099,0.028
1.100,0.021
1.101,0.013
1.102,0.013
1.103,0.013
1.104,0.006
1.105,0.009
1.106,0.006
1.107,0.006
1.108,0.003
1.109,0.003
1.110,0.004
1.111,-0.003
1.112,-0.011
1.113,-0.016
1.114,-0.025
1.115,-0.037
1.116,-0.047
1.117,-0.062
1.118,-0.064
1.119,-0.069
1.120,-0.073
1.121,-0.084
1.122,-0.084
1.123,-0.084
1.124,-0.084
1.125,-0.084
1.126,-0.086
1.127,-0.087
1.128,-0.091
1.129,-0.091
1.130,-0.094
1.131,-0.100
1.132,-0.102
1.133,-0.103
1.134,-0.103
1.135,-0.106
1.136,-0.103
1.137,-0.106
1.138,-0.104
1.139,-0.109
1.140,-0.109
1.141,-0.109
1.142,-0.116
1.143,-0.119
1.144,-0.122
1.145,-0.122
1.146,-0.119
1.147,-0.119
1.148,-0.119
1.149,-0.122
1.150,-0.125
1.151,-0.125
1.152,-0.128
1.153,-0.128
1.154,-0.128
1.155,-0.131
1.156,-0.136
1.157,-0.137
1.158,-0.139
1.159,-0.141
1.160,-0.142
1.161,-0.144
1.162,-0.139
1.163,-0.137
1.164,-0.141
1.165,-0.141
1.166,-0.141
1.167,-0.141
1.168,-0.142
1.169,-0.141
1.170,-0.142
1.171,-0.144
1.172,-0.145
1.173,-0.144
1.174,-0.144
1.175,-0.141
1.176,-0.141
1.177,-0.144
1.178,-0.146
1.179,-0.144
1.180,-0.139
1.181,-0.137
1.182,-0.141
1.183,-0.141
1.184,-0.141
1.185,-0.144
1.186,-0.151
1.187,-0.162
1.188,-0.172
1.189,-0.187
1.190,-0.199
1.191,-0.209
1.192,-0.223
1.193,-0.234
1.194,-0.232
1.195,-0.222
1.196,-0.199
1.197,-0.172
1.198,-0.139
1.199,-0.109
1.200,-0.073
1.201,-0.034
1.202,-0.007
1.203,0.025
1.204,0.053
1.205,0.091
1.206,0.153
1.207,0.225
1.208,0.326
1.209,0.428
1.210,0.521
1.211,0.616
1.212,0.726
1.213,0.841
1.214,0.942
1.215,1.044
1.216,1.123
1.217,1.197
1.218,1.286
1.219,1.375
1.220,1.459
1.221,1.528
1.222,1.557
1.223,1.581
1.224,1.528
1.225,1.478
1.226,1.406
1.227,1.334
1.228,1.242
1.229,1.147
1.230,1.036
1.231,0.922
1.232,0.808
1.233,0.691
1.234,0.603
1.235,0.528
1.236,0.478
1.237,0.434
1.238,0.411
1.239,0.388
1.240,0.363
1.241,0.331
1.242,0.291
1.243,0.247
1.244,0.233
1.245,0.222
1.246,0.207
1.247,0.197
1.248,0.186
1.249,0.175
1.250,0.166
1.251,0.153
1.252,0.139
1.253,0.128
1.254,0.116
1.255,0.103
1.256,0.094
1.257,0.084
1.258,0.069
1.259,0.059
1.260,0.044
1.261,0.031
1.262,0.024
1.263,0.013
1.264,0.003
1.265,-0.006
1.266,-0.017
1.267,-0.025
1.268,-0.028
1.269,-0.034
1.270,-0.034
1.271,-0.031
1.272,-0.044
1.273,-0.047
1.274,-0.050
1.275,-0.050
1.276,-0.053
1.277,-0.056
1.278,-0.058
1.279,-0.062
1.280,-0.062
1.281,-0.069
1.282,-0.070
1.283,-0.075
1.284,-0.078
1.285,-0.081
1.286,-0.083
1.287,-0.084
1.288,-0.084
1.289,-0.084
1.290,-0.084
1.291,-0.084
1.292,-0.084
1.293,-0.084
1.294,-0.083
1.295,-0.081
1.296,-0.077
1.297,-0.075
1.298,-0.078
1.299,-0.081
1.300,-0.081
1.301,-0.081
1.302,-0.080
1.303,-0.078
1.304,-0.079
1.305,-0.081
1.306,-0.082
1.307,-0.084
1.308,-0.084
1.309,-0.081
1.310,-0.078
1.311,-0.075
1.312,-0.072
1.313,-0.072
1.314,-0.072
1.315,-0.072
1.316,-0.073
1.317,-0.075
1.318,-0.073
1.319,-0.075
1.320,-0.075
1.321,-0.078
1.322,-0.075
1.323,-0.075
1.324,-0.072
1.325,-0.072
1.326,-0.073
1.327,-0.075
1.328,-0.072
1.329,-0.072
1.330,-0.064
1.331,-0.059
1.332,-0.058
1.333,-0.059
1.334,-0.057
1.335,-0.059
1.336,-0.056
1.337,-0.059
1.338,-0.061
1.339,-0.062
1.340,-0.062
1.341,-0.059
1.342,-0.059
1.343,-0.056
1.344,-0.057
1.345,-0.059
1.346,-0.055
1.347,-0.053
1.348,-0.053
1.349,-0.053
1.350,-0.053
1.351,-0.053
1.352,-0.050
1.353,-0.053
1.354,-0.053
1.355,-0.053
1.356,-0.053
1.357,-0.053
1.358,-0.052
1.359,-0.050
1.360,-0.051
1.361,-0.050
1.362,-0.047
1.363,-0.044
1.364,-0.044
1.365,-0.044
1.366,-0.048
1.367,-0.050
1.368,-0.044
1.369,-0.041
1.370,-0.039
1.371,-0.037
1.372,-0.039
1.373,-0.037
1.374,-0.034
1.375,-0.034
1.376,-0.034
1.377,-0.034
1.378,-0.034
1.379,-0.031
1.380,-0.033
1.381,-0.031
1.382,-0.031
1.383,-0.031
1.384,-0.030
1.385,-0.028
1.386,-0.026
1.387,-0.028
1.388,-0.025
1.389,-0.019
1.390,-0.017
1.391,-0.016
1.392,-0.016
1.393,-0.016
1.394,-0.012
1.395,-0.012
1.396,-0.009
1.397,-0.006
1.398,-0.007
1.399,-0.006
1.400,0.000
1.401,0.003
1.402,0.002
1.403,0.006
1.404,0.008
1.405,0.006
1.406,0.014
1.407,0.016
1.408,0.022
1.409,0.028
1.410,0.030
1.411,0.031
1.412,0.034
1.413,0.038
1.414,0.043
1.415,0.044
1.416,0.047
1.417,0.047
1.418,0.051
1.419,0.056
1.420,0.061
1.421,0.063
1.422,0.066
1.423,0.072
1.424,0.078
1.425,0.084
1.426,0.084
1.427,0.091
1.428,0.094
1.429,0.103
1.430,0.107
1.431,0.119
1.432,0.119
1.433,0.122
1.434,0.128
1.435,0.138
1.436,0.141
1.437,0.144
1.438,0.149
1.439,0.153
1.440,0.161
1.441,0.169
1.442,0.176
1.443,0.184
1.444,0.186
1.445,0.191
1.446,0.198
1.447,0.206
1.448,0.214
1.449,0.219
1.450,0.224
1.451,0.231
1.452,0.238
1.453,0.244
1.454,0.249
1.455,0.250
1.456,0.258
1.457,0.269
1.458,0.275
1.459,0.281
1.460,0.284
1.461,0.284
1.462,0.291
1.463,0.297
1.464,0.303
1.465,0.309
1.466,0.312
1.467,0.316
1.468,0.322
1.469,0.325
1.470,0.327
1.471,0.328
1.472,0.329
1.473,0.334
1.474,0.342
1.475,0.347
1.476,0.347
1.477,0.347
1.478,0.347
1.479,0.350
1.480,0.348
1.481,0.350
1.482,0.350
1.483,0.347
1.484,0.348
1.485,0.347
1.486,0.346
1.487,0.344
1.488,0.341
1.489,0.338
1.490,0.338
1.491,0.334
1.492,0.327
1.493,0.322
1.494,0.311
1.495,0.300
1.496,0.300
1.497,0.294
1.498,0.288
1.499,0.278
1.500,0.263
1.501,0.253
1.502,0.247
1.503,0.241
1.504,0.228
1.505,0.222
1.506,0.216
1.507,0.206
1.508,0.197
1.509,0.191
1.510,0.178
1.511,0.172
1.512,0.164
1.513,0.159
1.514,0.153
1.515,0.144
1.516,0.134
1.517,0.125
1.518,0.119
1.519,0.112
1.520,0.103
1.521,0.100
1.522,0.094
1.523,0.088
1.524,0.083
1.525,0.078
1.526,0.072
1.527,0.059
1.528,0.054
1.529,0.053
1.530,0.047
1.531,0.041
1.532,0.034
1.533,0.028
1.534,0.024
1.535,0.019
1.536,0.016
1.537,0.009
1.538,0.006
1.539,0.003
1.540,0.002
1.541,0.000
1.542,-0.003
1.543,-0.006
1.544,-0.011
1.545,-0.012
1.546,-0.016
1.547,-0.022
1.548,-0.019
1.549,-0.022
1.550,-0.025
1.551,-0.025
1.552,-0.031
1.553,-0.034
1.554,-0.037
1.555,-0.044
1.556,-0.046
1.557,-0.044
1.558,-0.044
1.559,-0.044
1.560,-0.044
1.561,-0.044
1.562,-0.044
1.563,-0.044
1.564,-0.046
1.565,-0.047
1.566,-0.048
1.567,-0.050
1.568,-0.050
1.569,-0.050
1.570,-0.053
1.571,-0.050
1.572,-0.053
1.573,-0.053
1.574,-0.052
1.575,-0.053
1.576,-0.057
1.577,-0.062
1.578,-0.064
1.579,-0.062
1.580,-0.059
1.581,-0.056
1.582,-0.059
1.583,-0.059
1.584,-0.058
1.585,-0.056
1.586,-0.056
1.587,-0.056
1.588,-0.056
1.589,-0.056
1.590,-0.055
1.591,-0.056
1.592,-0.059
1.593,-0.059
1.594,-0.064
1.595,-0.066
1.596,-0.064
1.597,-0.066
1.598,-0.064
1.599,-0.062
1.600,-0.064
1.601,-0.059
1.602,-0.059
1.603,-0.059
1.604,-0.062
1.605,-0.066
1.606,-0.064
1.607,-0.062
1.608,-0.058
1.609,-0.056
1.610,-0.058
1.611,-0.056
1.612,-0.056
1.613,-0.053
1.614,-0.056
1.615,-0.056
1.616,-0.059
1.617,-0.062
1.618,-0.062
1.619,-0.062
1.620,-0.062
1.621,-0.062
1.622,-0.059
1.623,-0.062
1.624,-0.058
1.625,-0.056
1.626,-0.059
1.627,-0.059
1.628,-0.059
1.629,-0.056
1.630,-0.052
1.631,-0.050
1.632,-0.053
1.633,-0.053
1.634,-0.054
1.635,-0.056
1.636,-0.053
1.637,-0.053
1.638,-0.053
1.639,-0.053
1.640,-0.052
1.641,-0.050
1.642,-0.050
1.643,-0.050
1.644,-0.051
1.645,-0.050
1.646,-0.049
1.647,-0.050
1.648,-0.049
1.649,-0.050
1.650,-0.051
1.651,-0.053
1.652,-0.050
1.653,-0.053
1.654,-0.051
1.655,-0.056
1.656,-0.056
1.657,-0.056
1.658,-0.055
1.659,-0.056
1.660,-0.056
1.661,-0.056
1.662,-0.056
1.663,-0.056
1.664,-0.056
1.665,-0.056
1.666,-0.057
1.667,-0.056
1.668,-0.056
1.669,-0.056
1.670,-0.056
1.671,-0.059
1.672,-0.058
1.673,-0.053
1.674,-0.053
1.675,-0.050
1.676,-0.050
1.677,-0.050
1.678,-0.050
1.679,-0.050
1.680,-0.054
1.681,-0.053
1.682,-0.054
1.683,-0.056
1.684,-0.056
1.685,-0.056
1.686,-0.056
1.687,-0.056
1.688,-0.061
1.689,-0.062
1.690,-0.064
1.691,-0.066
1.692,-0.064
1.693,-0.066
1.694,-0.064
1.695,-0.066
1.696,-0.066
1.697,-0.066
1.698,-0.064
1.699,-0.062
1.700,-0.069
1.701,-0.069
1.702,-0.067
1.703,-0.069
1.704,-0.067
1.705,-0.069
1.706,-0.069
1.707,-0.069
1.708,-0.066
1.709,-0.069
1.710,-0.069
1.711,-0.069
1.712,-0.069
1.713,-0.066
1.714,-0.067
1.715,-0.066
1.716,-0.066
1.717,-0.066
1.718,-0.064
1.719,-0.066
1.720,-0.066
1.721,-0.069
1.722,-0.070
1.723,-0.069
1.724,-0.069
1.725,-0.069
1.726,-0.069
1.727,-0.072
1.728,-0.070
1.729,-0.072
1.730,-0.072
1.731,-0.072
1.732,-0.072
1.733,-0.075
1.734,-0.075
1.735,-0.075
1.736,-0.074
1.737,-0.075
1.738,-0.076
1.739,-0.075
1.740,-0.074
1.741,-0.069
1.742,-0.069
1.743,-0.069
1.744,-0.073
1.745,-0.072
1.746,-0.069
1.747,-0.069
1.748,-0.070
1.749,-0.072
1.750,-0.072
1.751,-0.072
1.752,-0.071
1.753,-0.069
1.754,-0.073
1.755,-0.072
1.756,-0.073
1.757,-0.075
1.758,-0.074
1.759,-0.069
1.760,-0.073
1.761,-0.075
1.762,-0.069
1.763,-0.069
1.764,-0.069
1.765,-0.069
1.766,-0.073
1.767,-0.075
1.768,-0.072
1.769,-0.072
1.770,-0.073
1.771,-0.075
1.772,-0.074
1.773,-0.075
1.774,-0.071
1.775,-0.069
1.776,-0.069
1.777,-0.069
1.778,-0.073
1.779,-0.075
1.780,-0.075
1.781,-0.075
1.782,-0.075
1.783,-0.075
1.784,-0.075
1.785,-0.075
1.786,-0.075
1.787,-0.075
1.788,-0.075
1.789,-0.075
1.790,-0.074
1.791,-0.075
1.792,-0.076
1.793,-0.078
1.794,-0.078
1.795,-0.075
1.796,-0.078
1.797,-0.075
1.798,-0.078
1.799,-0.078
1.800,-0.078
1.801,-0.075
1.802,-0.078
1.803,-0.078
1.804,-0.077
1.805,-0.078
1.806,-0.077
1.807,-0.078
1.808,-0.075
1.809,-0.072
1.810,-0.072
1.811,-0.072
1.812,-0.073
1.813,-0.075
1.814,-0.074
1.815,-0.075
1.816,-0.079
1.817,-0.084
1.818,-0.075
1.819,-0.072
1.820,-0.076
1.821,-0.078
1.822,-0.081
1.823,-0.084
1.824,-0.083
1.825,-0.084
1.826,-0.086
1.827,-0.084
1.828,-0.089
1.829,-0.087
1.830,-0.084
1.831,-0.081
1.832,-0.080
1.833,-0.081
1.834,-0.079
1.835,-0.081
1.836,-0.083
1.837,-0.081
1.838,-0.086
1.839,-0.084
1.840,-0.084
1.841,-0.081
1.842,-0.081
1.843,-0.081
1.844,-0.077
1.845,-0.078
1.846,-0.078
1.847,-0.078
1.848,-0.079
1.849,-0.084
1.850,-0.084
1.851,-0.084
1.852,-0.083
1.853,-0.075
1.854,-0.075
1.855,-0.075
1.856,-0.076
1.857,-0.078
1.858,-0.078
1.859,-0.078
1.860,-0.078
1.861,-0.081
1.862,-0.084
1.863,-0.084
1.864,-0.083
1.865,-0.081
1.866,-0.081
1.867,-0.081
1.868,-0.080
1.869,-0.078
1.870,-0.078
1.871,-0.081
1.872,-0.082
1.873,-0.081
1.874,-0.077
1.875,-0.078
1.876,-0.077
1.877,-0.075
1.878,-0.079
1.879,-0.078
1.880,-0.081
1.881,-0.081
1.882,-0.082
1.883,-0.084
1.884,-0.081
1.885,-0.081
1.886,-0.082
1.887,-0.084
1.888,-0.083
1.889,-0.084
1.890,-0.083
1.891,-0.081
1.892,-0.077
1.893,-0.078
1.894,-0.078
1.895,-0.078
1.896,-0.078
1.897,-0.081
1.898,-0.081
1.899,-0.081
1.900,-0.084
1.901,-0.084
1.902,-0.081
1.903,-0.078
1.904,-0.084
1.905,-0.084
1.906,-0.082
1.907,-0.084
1.908,-0.083
1.909,-0.084
1.910,-0.084
1.911,-0.084
1.912,-0.086
1.913,-0.084
1.914,-0.086
1.915,-0.087
1.916,-0.087
1.917,-0.087
1.918,-0.087
1.919,-0.084
1.920,-0.086
1.921,-0.081
1.922,-0.080
1.923,-0.078
1.924,-0.077
1.925,-0.075
1.926,-0.079
1.927,-0.081
1.928,-0.086
1.929,-0.084
1.930,-0.083
1.931,-0.081
1.932,-0.081
1.933,-0.081
1.934,-0.081
1.935,-0.081
1.936,-0.086
1.937,-0.087
1.938,-0.087
1.939,-0.087
1.940,-0.087
1.941,-0.087
1.942,-0.089
1.943,-0.087
1.944,-0.089
1.945,-0.091
1.946,-0.086
1.947,-0.084
1.948,-0.087
1.949,-0.087
1.950,-0.089
1.951,-0.091
1.952,-0.086
1.953,-0.084
1.954,-0.087
1.955,-0.087
1.956,-0.086
1.957,-0.087
1.958,-0.086
1.959,-0.087
1.960,-0.089
1.961,-0.091
1.962,-0.092
1.963,-0.091
1.964,-0.087
1.965,-0.084
1.966,-0.089
1.967,-0.087
1.968,-0.087
1.969,-0.087
1.970,-0.087
1.971,-0.087
1.972,-0.086
1.973,-0.084
1.974,-0.086
1.975,-0.087
1.976,-0.086
1.977,-0.087
1.978,-0.084
1.979,-0.087
1.980,-0.087
1.981,-0.087
1.982,-0.084
1.983,-0.081
1.984,-0.086
1.985,-0.081
1.986,-0.086
1.987,-0.087
1.988,-0.091
1.989,-0.091
1.990,-0.089
1.991,-0.087
1.992,-0.089
1.993,-0.091
1.994,-0.089
1.995,-0.091
1.996,-0.087
1.997,-0.084
1.998,-0.087
1.999,-0.091
2.000,-0.086
2.001,-0.087
2.002,-0.087
2.003,-0.084
2.004,-0.084
2.005,-0.084
2.006,-0.083
2.007,-0.081
2.008,-0.081
2.009,-0.081
2.010,-0.084
2.011,-0.084
2.012,-0.081
2.013,-0.081
2.014,-0.086
2.015,-0.087
2.016,-0.089
2.017,-0.087
2.018,-0.086
2.019,-0.084
2.020,-0.086
2.021,-0.084
2.022,-0.086
2.023,-0.087
2.024,-0.087
2.025,-0.087
2.026,-0.087
2.027,-0.091
2.028,-0.087
2.029,-0.087
2.030,-0.087
2.031,-0.087
2.032,-0.087
2.033,-0.087
2.034,-0.087
2.035,-0.087
2.036,-0.084
2.037,-0.087
2.038,-0.089
2.039,-0.087
2.040,-0.083
2.041,-0.081
2.042,-0.081
2.043,-0.081
2.044,-0.082
2.045,-0.084
2.046,-0.084
2.047,-0.081
2.048,-0.080
2.049,-0.081
2.050,-0.081
2.051,-0.081
2.052,-0.080
2.053,-0.078
2.054,-0.075
2.055,-0.078
2.056,-0.078
2.057,-0.078
2.058,-0.078
2.059,-0.078
2.060,-0.081
2.061,-0.084
2.062,-0.080
2.063,-0.078
2.064,-0.078
2.065,-0.078
2.066,-0.082
2.067,-0.084
2.068,-0.081
2.069,-0.081
2.070,-0.080
2.071,-0.081
2.072,-0.081
2.073,-0.078
2.074,-0.075
2.075,-0.078
2.076,-0.079
2.077,-0.081
2.078,-0.082
2.079,-0.084
2.080,-0.081
2.081,-0.081
2.082,-0.081
2.083,-0.081
2.084,-0.082
2.085,-0.081
2.086,-0.084
2.087,-0.084
2.088,-0.086
2.089,-0.084
2.090,-0.083
2.091,-0.081
2.092,-0.079
2.093,-0.084
2.094,-0.077
2.095,-0.075
2.096,-0.074
2.097,-0.072
2.098,-0.076
2.099,-0.072
2.100,-0.076
2.101,-0.081
2.102,-0.081
2.103,-0.078
2.104,-0.078
2.105,-0.078
2.106,-0.078
2.107,-0.081
2.108,-0.083
2.109,-0.075
2.110,-0.075
2.111,-0.075
2.112,-0.075
2.113,-0.075
2.114,-0.081
2.115,-0.084
2.116,-0.081
2.117,-0.081
2.118,-0.081
2.119,-0.081
2.120,-0.081
2.121,-0.081
2.122,-0.080
2.123,-0.078
2.124,-0.078
2.125,-0.078
2.126,-0.081
2.127,-0.084
2.128,-0.080
2.129,-0.078
2.130,-0.075
2.131,-0.069
2.132,-0.070
2.133,-0.072
2.134,-0.069
2.135,-0.069
2.136,-0.072
2.137,-0.078
2.138,-0.081
2.139,-0.084
2.140,-0.081
2.141,-0.084
2.142,-0.084
2.143,-0.091
2.144,-0.091
2.145,-0.091
2.146,-0.084
2.147,-0.084
2.148,-0.084
2.149,-0.084
2.150,-0.084
2.151,-0.081
2.152,-0.080
2.153,-0.081
2.154,-0.081
2.155,-0.081
2.156,-0.082
2.157,-0.081
2.158,-0.083
2.159,-0.078
2.160,-0.077
2.161,-0.075
2.162,-0.075
2.163,-0.075
2.164,-0.075
2.165,-0.072
2.166,-0.071
2.167,-0.069
2.168,-0.064
2.169,-0.059
2.170,-0.054
2.171,-0.053
2.172,-0.047
2.173,-0.041
2.174,-0.031
2.175,-0.025
2.176,-0.025
2.177,-0.019
2.178,-0.014
2.179,-0.012
2.180,-0.009
2.181,0.000
2.182,0.003
2.183,0.006
2.184,0.013
2.185,0.013
2.186,0.011
2.187,0.016
2.188,0.018
2.189,0.016
2.190,0.019
2.191,0.022
2.192,0.019
2.193,0.019
2.194,0.019
2.195,0.025
2.196,0.033
2.197,0.038
2.198,0.043
2.199,0.047
2.200,0.052
2.201,0.056
2.202,0.064
2.203,0.069
2.204,0.066
2.205,0.069
2.206,0.077
2.207,0.084
2.208,0.088
2.209,0.097
2.210,0.103
2.211,0.106
2.212,0.105
2.213,0.109
2.214,0.111
2.215,0.112
2.216,0.106
2.217,0.103
2.218,0.101
2.219,0.100
2.220,0.100
2.221,0.100
2.222,0.101
2.223,0.103
2.224,0.098
2.225,0.094
2.226,0.083
2.227,0.075
2.228,0.075
2.229,0.072
2.230,0.064
2.231,0.059
2.232,0.055
2.233,0.047
2.234,0.044
2.235,0.044
2.236,0.047
2.237,0.044
2.238,0.044
2.239,0.038
2.240,0.039
2.241,0.034
2.242,0.030
2.243,0.025
2.244,0.014
2.245,0.009
2.246,0.013
2.247,0.009
2.248,-0.006
2.249,-0.016
2.250,-0.029
2.251,-0.034
2.252,-0.044
2.253,-0.050
2.254,-0.061
2.255,-0.062
2.256,-0.062
2.257,-0.062
2.258,-0.061
2.259,-0.062
2.260,-0.066
2.261,-0.069
2.262,-0.067
2.263,-0.066
2.264,-0.066
2.265,-0.066
2.266,-0.073
2.267,-0.078
2.268,-0.081
2.269,-0.081
2.270,-0.087
2.271,-0.084
2.272,-0.087
2.273,-0.087
2.274,-0.086
2.275,-0.087
2.276,-0.087
2.277,-0.091
2.278,-0.094
2.279,-0.097
2.280,-0.099
2.281,-0.097
2.282,-0.100
2.283,-0.103
2.284,-0.102
2.285,-0.103
2.286,-0.104
2.287,-0.106
2.288,-0.111
2.289,-0.116
2.290,-0.116
2.291,-0.116
2.292,-0.116
2.293,-0.116
2.294,-0.116
2.295,-0.112
2.296,-0.109
2.297,-0.109
2.298,-0.109
2.299,-0.109
2.300,-0.111
2.301,-0.112
2.302,-0.111
2.303,-0.116
2.304,-0.119
2.305,-0.119
2.306,-0.116
2.307,-0.116
2.308,-0.111
2.309,-0.109
2.310,-0.116
2.311,-0.122
2.312,-0.122
2.313,-0.119
2.314,-0.117
2.315,-0.122
2.316,-0.128
2.317,-0.131
2.318,-0.130
2.319,-0.131
2.320,-0.144
2.321,-0.156
2.322,-0.169
2.323,-0.178
2.324,-0.187
2.325,-0.194
2.326,-0.201
2.327,-0.200
2.328,-0.189
2.329,-0.169
2.330,-0.147
2.331,-0.116
2.332,-0.087
2.333,-0.053
2.334,-0.008
2.335,0.025
2.336,0.058
2.337,0.091
2.338,0.131
2.339,0.194
2.340,0.272
2.341,0.372
2.342,0.469
2.343,0.566
2.344,0.661
2.345,0.766
2.346,0.883
2.347,0.988
2.348,1.089
2.349,1.166
2.350,1.242
2.351,1.338
2.352,1.425
2.353,1.500
2.354,1.564
2.355,1.594
2.356,1.606
2.357,1.547
2.358,1.497
2.359,1.422
2.360,1.348
2.361,1.253
2.362,1.159
2.363,1.044
2.364,0.914
2.365,0.809
2.366,0.708
2.367,0.625
2.368,0.561
2.369,0.519
2.370,0.481
2.371,0.459
2.372,0.427
2.373,0.400
2.374,0.364
2.375,0.322
2.376,0.278
2.377,0.259
2.378,0.246
2.379,0.222
2.380,0.207
2.381,0.197
2.382,0.183
2.383,0.175
2.384,0.167
2.385,0.159
2.386,0.152
2.387,0.141
2.388,0.127
2.389,0.109
2.390,0.101
2.391,0.088
2.392,0.075
2.393,0.059
2.394,0.046
2.395,0.038
2.396,0.029
2.397,0.022
2.398,0.011
2.399,0.000
2.400,-0.007
2.401,-0.016
2.402,-0.025
2.403,-0.028
2.404,-0.027
2.405,-0.034
2.406,-0.033
2.407,-0.034
2.408,-0.033
2.409,-0.034
2.410,-0.039
2.411,-0.044
2.412,-0.049
2.413,-0.047
2.414,-0.053
2.415,-0.053
2.416,-0.059
2.417,-0.062
2.418,-0.061
2.419,-0.062
2.420,-0.066
2.421,-0.066
2.422,-0.067
2.423,-0.069
2.424,-0.069
2.425,-0.069
2.426,-0.069
2.427,-0.069
2.428,-0.067
2.429,-0.062
2.430,-0.059
2.431,-0.059
2.432,-0.064
2.433,-0.066
2.434,-0.069
2.435,-0.072
2.436,-0.073
2.437,-0.075
2.438,-0.074
2.439,-0.072
2.440,-0.072
2.441,-0.072
2.442,-0.067
2.443,-0.066
2.444,-0.067
2.445,-0.066
2.446,-0.062
2.447,-0.059
2.448,-0.062
2.449,-0.066
2.450,-0.067
2.451,-0.066
2.452,-0.066
2.453,-0.066
2.454,-0.070
2.455,-0.069
2.456,-0.069
2.457,-0.066
2.458,-0.061
2.459,-0.056
2.460,-0.057
2.461,-0.056
2.462,-0.057
2.463,-0.056
2.464,-0.055
2.465,-0.053
2.466,-0.057
2.467,-0.056
2.468,-0.056
2.469,-0.053
2.470,-0.056
2.471,-0.056
2.472,-0.057
2.473,-0.059
2.474,-0.053
2.475,-0.050
2.476,-0.048
2.477,-0.050
2.478,-0.049
2.479,-0.044
2.480,-0.045
2.481,-0.047
2.482,-0.048
2.483,-0.050
2.484,-0.047
2.485,-0.041
2.486,-0.044
2.487,-0.041
2.488,-0.039
2.489,-0.041
2.490,-0.039
2.491,-0.037
2.492,-0.037
2.493,-0.037
2.494,-0.036
2.495,-0.037
2.496,-0.037
2.497,-0.037
2.498,-0.037
2.499,-0.037
2.500,-0.036
2.501,-0.034
2.502,-0.034
2.503,-0.034
2.504,-0.033
2.505,-0.031
2.506,-0.024
2.507,-0.019
2.508,-0.023
2.509,-0.022
2.510,-0.023
2.511,-0.028
2.512,-0.025
2.513,-0.028
2.514,-0.029
2.515,-0.028
2.516,-0.026
2.517,-0.028
2.518,-0.028
2.519,-0.025
2.520,-0.022
2.521,-0.019
2.522,-0.017
2.523,-0.016
2.524,-0.012
2.525,-0.012
2.526,-0.014
2.527,-0.012
2.528,-0.011
2.529,-0.006
2.530,-0.002
2.531,0.000
2.532,0.002
2.533,0.003
2.534,0.003
2.535,0.003
2.536,0.011
2.537,0.016
2.538,0.014
2.539,0.019
2.540,0.019
2.541,0.022
2.542,0.024
2.543,0.025
2.544,0.027
2.545,0.025
2.546,0.024
2.547,0.028
2.548,0.034
2.549,0.044
2.550,0.046
2.551,0.047
2.552,0.053
2.553,0.063
2.554,0.064
2.555,0.066
2.556,0.072
2.557,0.078
2.558,0.083
2.559,0.081
2.560,0.086
2.561,0.088
2.562,0.098
2.563,0.100
2.564,0.105
2.565,0.106
2.566,0.114
2.567,0.119
2.568,0.126
2.569,0.134
2.570,0.139
2.571,0.144
2.572,0.150
2.573,0.156
2.574,0.166
2.575,0.175
2.576,0.178
2.577,0.178
2.578,0.184
2.579,0.191
2.580,0.197
2.581,0.203
2.582,0.205
2.583,0.209
2.584,0.219
2.585,0.225
2.586,0.231
2.587,0.238
2.588,0.239
2.589,0.244
2.590,0.258
2.591,0.266
2.592,0.266
2.593,0.269
2.594,0.273
2.595,0.281
2.596,0.286
2.597,0.291
2.598,0.300
2.599,0.306
2.600,0.306
2.601,0.309
2.602,0.312
2.603,0.316
2.604,0.319
2.605,0.319
2.606,0.322
2.607,0.328
2.608,0.333
2.609,0.338
2.610,0.341
2.611,0.341
2.612,0.343
2.613,0.338
2.614,0.336
2.615,0.334
2.616,0.333
2.617,0.334
2.618,0.331
2.619,0.331
2.620,0.333
2.621,0.331
2.622,0.328
2.623,0.325
2.624,0.320
2.625,0.316
2.626,0.316
2.627,0.309
2.628,0.299
2.629,0.294
2.630,0.286
2.631,0.281
2.632,0.269
2.633,0.256
2.634,0.252
2.635,0.241
2.636,0.231
2.637,0.219
2.638,0.211
2.639,0.203
2.640,0.197
2.641,0.191
2.642,0.183
2.643,0.169
2.644,0.161
2.645,0.150
2.646,0.145
2.647,0.138
2.648,0.125
2.649,0.119
2.650,0.111
2.651,0.103
2.652,0.098
2.653,0.091
2.654,0.088
2.655,0.081
2.656,0.074
2.657,0.066
2.658,0.059
2.659,0.056
2.660,0.047
2.661,0.041
2.662,0.038
2.663,0.031
2.664,0.024
2.665,0.016
2.666,0.008
2.667,0.003
2.668,0.004
2.669,0.006
2.670,0.000
2.671,-0.003
2.672,-0.009
2.673,-0.012
2.674,-0.009
2.675,-0.012
2.676,-0.022
2.677,-0.028
2.678,-0.028
2.679,-0.031
2.680,-0.037
2.681,-0.037
2.682,-0.044
2.683,-0.047
2.684,-0.047
2.685,-0.050
2.686,-0.051
2.687,-0.053
2.688,-0.057
2.689,-0.062
2.690,-0.059
2.691,-0.059
2.692,-0.062
2.693,-0.062
2.694,-0.062
2.695,-0.062
2.696,-0.061
2.697,-0.062
2.698,-0.066
2.699,-0.066
2.700,-0.067
2.701,-0.069
2.702,-0.069
2.703,-0.072
2.704,-0.069
2.705,-0.072
2.706,-0.072
2.707,-0.072
2.708,-0.074
2.709,-0.072
2.710,-0.073
2.711,-0.075
2.712,-0.073
2.713,-0.075
2.714,-0.074
2.715,-0.075
2.716,-0.076
2.717,-0.078
2.718,-0.079
2.719,-0.081
2.720,-0.081
2.721,-0.081
2.722,-0.080
2.723,-0.078
2.724,-0.080
2.725,-0.078
2.726,-0.076
2.727,-0.081
2.728,-0.082
2.729,-0.081
2.730,-0.080
2.731,-0.078
2.732,-0.079
2.733,-0.084
2.734,-0.081
2.735,-0.081
2.736,-0.081
2.737,-0.081
2.738,-0.080
2.739,-0.078
2.740,-0.079
2.741,-0.078
2.742,-0.078
2.743,-0.081
2.744,-0.082
2.745,-0.084
2.746,-0.081
2.747,-0.084
2.748,-0.086
2.749,-0.087
2.750,-0.087
2.751,-0.087
2.752,-0.084
2.753,-0.081
2.754,-0.082
2.755,-0.081
2.756,-0.084
2.757,-0.081
2.758,-0.078
2.759,-0.078
2.760,-0.078
2.761,-0.078
2.762,-0.078
2.763,-0.078
2.764,-0.077
2.765,-0.078
2.766,-0.079
2.767,-0.081
2.768,-0.082
2.769,-0.081
2.770,-0.080
2.771,-0.078
2.772,-0.077
2.773,-0.075
2.774,-0.074
2.775,-0.072
2.776,-0.073
2.777,-0.075
2.778,-0.072
2.779,-0.072
2.780,-0.074
2.781,-0.072
2.782,-0.078
2.783,-0.081
2.784,-0.082
2.785,-0.081
2.786,-0.086
2.787,-0.084
2.788,-0.086
2.789,-0.084
2.790,-0.081
2.791,-0.078
2.792,-0.081
2.793,-0.081
2.794,-0.082
2.795,-0.084
2.796,-0.083
2.797,-0.081
2.798,-0.084
2.799,-0.087
2.800,-0.086
2.801,-0.087
2.802,-0.086
2.803,-0.084
2.804,-0.087
2.805,-0.087
2.806,-0.084
2.807,-0.087
2.808,-0.087
2.809,-0.087
2.810,-0.087
2.811,-0.087
2.812,-0.087
2.813,-0.091
2.814,-0.089
2.815,-0.091
2.816,-0.089
2.817,-0.087
2.818,-0.086
2.819,-0.084
2.820,-0.084
2.821,-0.087
2.822,-0.089
2.823,-0.091
2.824,-0.089
2.825,-0.087
2.826,-0.092
2.827,-0.091
2.828,-0.089
2.829,-0.087
2.830,-0.087
2.831,-0.087
2.832,-0.087
2.833,-0.094
2.834,-0.097
2.835,-0.097
2.836,-0.096
2.837,-0.094
2.838,-0.098
2.839,-0.100
2.840,-0.099
2.841,-0.094
2.842,-0.096
2.843,-0.094
2.844,-0.095
2.845,-0.097
2.846,-0.091
2.847,-0.091
2.848,-0.091
2.849,-0.091
2.850,-0.094
2.851,-0.097
2.852,-0.101
2.853,-0.103
2.854,-0.106
2.855,-0.106
2.856,-0.104
2.857,-0.106
2.858,-0.105
2.859,-0.103
2.860,-0.106
2.861,-0.103
2.862,-0.103
2.863,-0.103
2.864,-0.103
2.865,-0.103
2.866,-0.105
2.867,-0.103
2.868,-0.103
2.869,-0.103
2.870,-0.106
2.871,-0.106
2.872,-0.104
2.873,-0.106
2.874,-0.104
2.875,-0.106
2.876,-0.106
2.877,-0.109
2.878,-0.106
2.879,-0.106
2.880,-0.108
2.881,-0.106
2.882,-0.105
2.883,-0.103
2.884,-0.103
2.885,-0.103
2.886,-0.103
2.887,-0.106
2.888,-0.104
2.889,-0.106
2.890,-0.106
2.891,-0.106
2.892,-0.103
2.893,-0.106
2.894,-0.107
2.895,-0.106
2.896,-0.109
2.897,-0.109
2.898,-0.108
2.899,-0.109
2.900,-0.109
2.901,-0.106
2.902,-0.106
2.903,-0.106
2.904,-0.106
2.905,-0.106
2.906,-0.111
2.907,-0.109
2.908,-0.109
2.909,-0.109
2.910,-0.108
2.911,-0.109
2.912,-0.111
2.913,-0.112
2.914,-0.112
2.915,-0.112
2.916,-0.112
2.917,-0.112
2.918,-0.111
2.919,-0.109
2.920,-0.106
2.921,-0.103
2.922,-0.107
2.923,-0.112
2.924,-0.116
2.925,-0.116
2.926,-0.117
2.927,-0.119
2.928,-0.112
2.929,-0.112
2.930,-0.108
2.931,-0.109
2.932,-0.109
2.933,-0.109
2.934,-0.106
2.935,-0.109
2.936,-0.109
2.937,-0.109
2.938,-0.111
2.939,-0.109
2.940,-0.112
2.941,-0.109
2.942,-0.106
2.943,-0.106
2.944,-0.111
2.945,-0.116
2.946,-0.117
2.947,-0.119
2.948,-0.121
2.949,-0.119
2.950,-0.122
2.951,-0.119
2.952,-0.114
2.953,-0.112
2.954,-0.114
2.955,-0.116
2.956,-0.114
2.957,-0.112
2.958,-0.114
2.959,-0.116
2.960,-0.117
2.961,-0.119
2.962,-0.114
2.963,-0.116
2.964,-0.119
2.965,-0.122
2.966,-0.124
2.967,-0.119
2.968,-0.112
2.969,-0.109
2.970,-0.109
2.971,-0.112
2.972,-0.111
2.973,-0.112
2.974,-0.108
2.975,-0.109
2.976,-0.117
2.977,-0.119
2.978,-0.122
2.979,-0.119
2.980,-0.114
2.981,-0.112
2.982,-0.119
2.983,-0.122
2.984,-0.122
2.985,-0.122
2.986,-0.112
2.987,-0.112
2.988,-0.116
2.989,-0.116
2.990,-0.116
2.991,-0.116
2.992,-0.117
2.993,-0.119
2.994,-0.122
2.995,-0.122
2.996,-0.120
2.997,-0.122
2.998,-0.122
2.999,-0.122
3.000,-0.122
3.001,-0.122
3.002,-0.121
3.003,-0.119
3.004,-0.122
3.005,-0.122
3.006,-0.120
3.007,-0.119
3.008,-0.122
3.009,-0.122
3.010,-0.122
3.011,-0.125
3.012,-0.121
3.013,-0.122
3.014,-0.123
3.015,-0.125
3.016,-0.126
3.017,-0.125
3.018,-0.124
3.019,-0.122
3.020,-0.122
3.021,-0.122
3.022,-0.125
3.023,-0.125
3.024,-0.125
3.025,-0.122
3.026,-0.125
3.027,-0.125
3.028,-0.124
3.029,-0.119
3.030,-0.117
3.031,-0.116
3.032,-0.114
3.033,-0.116
3.034,-0.117
3.035,-0.119
3.036,-0.116
3.037,-0.119
3.038,-0.122
3.039,-0.122
3.040,-0.121
3.041,-0.119
3.042,-0.123
3.043,-0.125
3.044,-0.125
3.045,-0.125
3.046,-0.122
3.047,-0.122
3.048,-0.122
3.049,-0.122
3.050,-0.123
3.051,-0.125
3.052,-0.119
3.053,-0.119
3.054,-0.117
3.055,-0.119
3.056,-0.120
3.057,-0.122
3.058,-0.117
3.059,-0.112
3.060,-0.120
3.061,-0.122
3.062,-0.122
3.063,-0.122
3.064,-0.122
3.065,-0.122
3.066,-0.121
3.067,-0.119
3.068,-0.121
3.069,-0.119
3.070,-0.119
3.071,-0.119
3.072,-0.120
3.073,-0.122
3.074,-0.122
3.075,-0.119
3.076,-0.121
3.077,-0.122
3.078,-0.120
3.079,-0.122
3.080,-0.125
3.081,-0.125
3.082,-0.125
3.083,-0.125
3.084,-0.119
3.085,-0.116
3.086,-0.119
3.087,-0.119
3.088,-0.119
3.089,-0.122
3.090,-0.119
3.091,-0.119
3.092,-0.119
3.093,-0.119
3.094,-0.120
3.095,-0.119
3.096,-0.119
3.097,-0.119
3.098,-0.123
3.099,-0.122
3.100,-0.121
3.101,-0.119
3.102,-0.117
3.103,-0.116
3.104,-0.116
3.105,-0.116
3.106,-0.116
3.107,-0.116
3.108,-0.114
3.109,-0.116
3.110,-0.114
3.111,-0.119
3.112,-0.119
3.113,-0.119
3.114,-0.116
3.115,-0.112
3.116,-0.120
3.117,-0.119
3.118,-0.121
3.119,-0.119
3.120,-0.119
3.121,-0.116
3.122,-0.116
3.123,-0.116
3.124,-0.116
3.125,-0.116
3.126,-0.114
3.127,-0.116
3.128,-0.116
3.129,-0.116
3.130,-0.116
3.131,-0.116
3.132,-0.114
3.133,-0.119
3.134,-0.117
3.135,-0.112
3.136,-0.114
3.137,-0.116
3.138,-0.117
3.139,-0.119
3.140,-0.117
3.141,-0.116
3.142,-0.119
3.143,-0.119
3.144,-0.116
3.145,-0.116
3.146,-0.119
3.147,-0.119
3.148,-0.120
3.149,-0.119
3.150,-0.116
3.151,-0.112
3.152,-0.114
3.153,-0.112
3.154,-0.112
3.155,-0.112
3.156,-0.112
3.157,-0.112
3.158,-0.111
3.159,-0.112
3.160,-0.109
3.161,-0.109
3.162,-0.109
3.163,-0.109
3.164,-0.111
3.165,-0.112
3.166,-0.112
3.167,-0.112
3.168,-0.106
3.169,-0.106
3.170,-0.109
3.171,-0.109
3.172,-0.106
3.173,-0.106
3.174,-0.106
3.175,-0.106
3.176,-0.106
3.177,-0.106
3.178,-0.107
3.179,-0.106
3.180,-0.103
3.181,-0.103
3.182,-0.106
3.183,-0.109
3.184,-0.111
3.185,-0.112
3.186,-0.108
3.187,-0.109
3.188,-0.109
3.189,-0.109
3.190,-0.109
3.191,-0.109
3.192,-0.111
3.193,-0.112
3.194,-0.109
3.195,-0.109
3.196,-0.109
3.197,-0.109
3.198,-0.112
3.199,-0.112
3.200,-0.109
3.201,-0.109
3.202,-0.108
3.203,-0.109
3.204,-0.111
3.205,-0.109
3.206,-0.105
3.207,-0.106
3.208,-0.105
3.209,-0.103
3.210,-0.104
3.211,-0.106
3.212,-0.103
3.213,-0.103
3.214,-0.103
3.215,-0.103
3.216,-0.103
3.217,-0.100
3.218,-0.103
3.219,-0.103
3.220,-0.104
3.221,-0.103
3.222,-0.104
3.223,-0.106
3.224,-0.100
3.225,-0.100
3.226,-0.097
3.227,-0.100
3.228,-0.100
3.229,-0.100
3.230,-0.103
3.231,-0.097
3.232,-0.100
3.233,-0.103
3.234,-0.104
3.235,-0.103
3.236,-0.102
3.237,-0.100
3.238,-0.097
3.239,-0.097
3.240,-0.101
3.241,-0.097
3.242,-0.098
3.243,-0.100
3.244,-0.099
3.245,-0.097
3.246,-0.099
3.247,-0.097
3.248,-0.095
3.249,-0.097
3.250,-0.096
3.251,-0.094
3.252,-0.095
3.253,-0.097
3.254,-0.097
3.255,-0.097
3.256,-0.097
3.257,-0.097
3.258,-0.096
3.259,-0.094
3.260,-0.092
3.261,-0.094
3.262,-0.097
3.263,-0.097
3.264,-0.098
3.265,-0.100
3.266,-0.098
3.267,-0.100
3.268,-0.096
3.269,-0.094
3.270,-0.092
3.271,-0.091
3.272,-0.087
3.273,-0.091
3.274,-0.089
3.275,-0.094
3.276,-0.094
3.277,-0.094
3.278,-0.089
3.279,-0.091
3.280,-0.091
3.281,-0.091
3.282,-0.094
3.283,-0.094
3.284,-0.089
3.285,-0.087
3.286,-0.089
3.287,-0.091
3.288,-0.092
3.289,-0.091
3.290,-0.091
3.291,-0.084
3.292,-0.086
3.293,-0.087
3.294,-0.084
3.295,-0.081
3.296,-0.080
3.297,-0.075
3.298,-0.076
3.299,-0.078
3.300,-0.075
3.301,-0.072
3.302,-0.062
3.303,-0.056
3.304,-0.053
3.305,-0.050
3.306,-0.042
3.307,-0.037
3.308,-0.039
3.309,-0.034
3.310,-0.027
3.311,-0.022
3.312,-0.017
3.313,-0.006
3.314,0.000
3.315,0.006
3.316,0.011
3.317,0.009
3.318,0.005
3.319,0.006
3.320,0.009
3.321,0.009
3.322,0.009
3.323,0.009
3.324,0.007
3.325,0.009
3.326,0.008
3.327,0.013
3.328,0.020
3.329,0.025
3.330,0.033
3.331,0.041
3.332,0.046
3.333,0.050
3.334,0.058
3.335,0.063
3.336,0.063
3.337,0.069
3.338,0.077
3.339,0.084
3.340,0.089
3.341,0.100
3.342,0.105
3.343,0.106
3.344,0.107
3.345,0.116
3.346,0.117
3.347,0.119
3.348,0.116
3.349,0.116
3.350,0.114
3.351,0.112
3.352,0.114
3.353,0.116
3.354,0.111
3.355,0.106
3.356,0.100
3.357,0.094
3.358,0.084
3.359,0.078
3.360,0.075
3.361,0.069
3.362,0.059
3.363,0.053
3.364,0.054
3.365,0.053
3.366,0.046
3.367,0.041
3.368,0.045
3.369,0.044
3.370,0.044
3.371,0.038
3.372,0.038
3.373,0.031
3.374,0.028
3.375,0.025
3.376,0.013
3.377,0.006
3.378,0.003
3.379,-0.006
3.380,-0.016
3.381,-0.019
3.382,-0.030
3.383,-0.031
3.384,-0.039
3.385,-0.044
3.386,-0.056
3.387,-0.059
3.388,-0.061
3.389,-0.062
3.390,-0.059
3.391,-0.059
3.392,-0.061
3.393,-0.062
3.394,-0.062
3.395,-0.062
3.396,-0.064
3.397,-0.066
3.398,-0.069
3.399,-0.069
3.400,-0.073
3.401,-0.075
3.402,-0.080
3.403,-0.075
3.404,-0.079
3.405,-0.081
3.406,-0.081
3.407,-0.084
3.408,-0.083
3.409,-0.084
3.410,-0.084
3.411,-0.084
3.412,-0.086
3.413,-0.084
3.414,-0.089
3.415,-0.094
3.416,-0.094
3.417,-0.097
3.418,-0.097
3.419,-0.097
3.420,-0.103
3.421,-0.109
3.422,-0.111
3.423,-0.112
3.424,-0.111
3.425,-0.109
3.426,-0.111
3.427,-0.109
3.428,-0.108
3.429,-0.109
3.430,-0.109
3.431,-0.109
3.432,-0.108
3.433,-0.106
3.434,-0.102
3.435,-0.103
3.436,-0.107
3.437,-0.109
3.438,-0.107
3.439,-0.109
3.440,-0.105
3.441,-0.103
3.442,-0.105
3.443,-0.106
3.444,-0.109
3.445,-0.109
3.446,-0.105
3.447,-0.106
3.448,-0.109
3.449,-0.109
3.450,-0.112
3.451,-0.119
3.452,-0.128
3.453,-0.137
3.454,-0.153
3.455,-0.166
3.456,-0.178
3.457,-0.187
3.458,-0.195
3.459,-0.194
3.460,-0.184
3.461,-0.166
3.462,-0.141
3.463,-0.106
3.464,-0.076
3.465,-0.041
3.466,-0.006
3.467,0.016
3.468,0.049
3.469,0.081
3.470,0.126
3.471,0.194
3.472,0.269
3.473,0.366
3.474,0.464
3.475,0.563
3.476,0.663
3.477,0.772
3.478,0.888
3.479,0.991
3.480,1.095
3.481,1.175
3.482,1.245
3.483,1.334
3.484,1.423
3.485,1.500
3.486,1.563
3.487,1.591
3.488,1.611
3.489,1.559
3.490,1.514
3.491,1.444
3.492,1.376
3.493,1.288
3.494,1.188
3.495,1.066
3.496,0.945
3.497,0.850
3.498,0.744
3.499,0.656
3.500,0.583
3.501,0.531
3.502,0.491
3.503,0.466
3.504,0.431
3.505,0.403
3.506,0.372
3.507,0.334
3.508,0.297
3.509,0.284
3.510,0.274
3.511,0.253
3.512,0.236
3.513,0.222
3.514,0.205
3.515,0.194
3.516,0.183
3.517,0.172
3.518,0.164
3.519,0.153
3.520,0.144
3.521,0.131
3.522,0.120
3.523,0.103
3.524,0.094
3.525,0.081
3.526,0.068
3.527,0.059
3.528,0.053
3.529,0.047
3.530,0.038
3.531,0.028
3.532,0.022
3.533,0.016
3.534,0.003
3.535,-0.003
3.536,-0.004
3.537,-0.016
3.538,-0.017
3.539,-0.022
3.540,-0.021
3.541,-0.022
3.542,-0.024
3.543,-0.025
3.544,-0.030
3.545,-0.028
3.546,-0.034
3.547,-0.034
3.548,-0.039
3.549,-0.041
3.550,-0.041
3.551,-0.044
3.552,-0.047
3.553,-0.047
3.554,-0.048
3.555,-0.050
3.556,-0.050
3.557,-0.050
3.558,-0.047
3.559,-0.044
3.560,-0.045
3.561,-0.044
3.562,-0.042
3.563,-0.044
3.564,-0.048
3.565,-0.050
3.566,-0.054
3.567,-0.059
3.568,-0.058
3.569,-0.056
3.570,-0.055
3.571,-0.053
3.572,-0.053
3.573,-0.053
3.574,-0.050
3.575,-0.050
3.576,-0.051
3.577,-0.050
3.578,-0.047
3.579,-0.044
3.580,-0.042
3.581,-0.041
3.582,-0.042
3.583,-0.041
3.584,-0.039
3.585,-0.037
3.586,-0.041
3.587,-0.037
3.588,-0.037
3.589,-0.034
3.590,-0.031
3.591,-0.028
3.592,-0.029
3.593,-0.028
3.594,-0.029
3.595,-0.028
3.596,-0.027
3.597,-0.025
3.598,-0.029
3.599,-0.028
3.600,-0.029
3.601,-0.028
3.602,-0.030
3.603,-0.028
3.604,-0.029
3.605,-0.031
3.606,-0.027
3.607,-0.025
3.608,-0.023
3.609,-0.025
3.610,-0.026
3.611,-0.025
3.612,-0.025
3.613,-0.025
3.614,-0.025
3.615,-0.025
3.616,-0.025
3.617,-0.022
3.618,-0.022
3.619,-0.016
3.620,-0.016
3.621,-0.019
3.622,-0.019
3.623,-0.019
3.624,-0.017
3.625,-0.016
3.626,-0.014
3.627,-0.016
3.628,-0.012
3.629,-0.009
3.630,-0.009
3.631,-0.009
3.632,-0.006
3.633,-0.003
3.634,-0.004
3.635,-0.006
3.636,-0.007
3.637,-0.009
3.638,-0.006
3.639,-0.006
3.640,-0.006
3.641,0.000
3.642,0.000
3.643,-0.003
3.644,0.000
3.645,-0.003
3.646,-0.003
3.647,0.000
3.648,0.003
3.649,0.003
3.650,0.004
3.651,0.009
3.652,0.009
3.653,0.009
3.654,0.011
3.655,0.013
3.656,0.019
3.657,0.022
3.658,0.022
3.659,0.025
3.660,0.022
3.661,0.022
3.662,0.026
3.663,0.028
3.664,0.034
3.665,0.041
3.666,0.038
3.667,0.034
3.668,0.039
3.669,0.041
3.670,0.039
3.671,0.044
3.672,0.047
3.673,0.053
3.674,0.056
3.675,0.059
3.676,0.059
3.677,0.056
3.678,0.056
3.679,0.063
3.680,0.066
3.681,0.072
3.682,0.075
3.683,0.078
3.684,0.083
3.685,0.091
3.686,0.095
3.687,0.100
3.688,0.103
3.689,0.106
3.690,0.116
3.691,0.119
3.692,0.124
3.693,0.125
3.694,0.133
3.695,0.131
3.696,0.138
3.697,0.141
3.698,0.147
3.699,0.150
3.700,0.156
3.701,0.163
3.702,0.169
3.703,0.175
3.704,0.183
3.705,0.191
3.706,0.196
3.707,0.200
3.708,0.211
3.709,0.219
3.710,0.224
3.711,0.228
3.712,0.234
3.713,0.241
3.714,0.243
3.715,0.247
3.716,0.255
3.717,0.259
3.718,0.272
3.719,0.284
3.720,0.286
3.721,0.291
3.722,0.299
3.723,0.300
3.724,0.304
3.725,0.312
3.726,0.312
3.727,0.316
3.728,0.323
3.729,0.331
3.730,0.338
3.731,0.341
3.732,0.343
3.733,0.347
3.734,0.353
3.735,0.359
3.736,0.363
3.737,0.363
3.738,0.361
3.739,0.363
3.740,0.364
3.741,0.366
3.742,0.369
3.743,0.369
3.744,0.372
3.745,0.369
3.746,0.373
3.747,0.378
3.748,0.376
3.749,0.378
3.750,0.374
3.751,0.372
3.752,0.375
3.753,0.375
3.754,0.368
3.755,0.359
3.756,0.356
3.757,0.353
3.758,0.350
3.759,0.341
3.760,0.325
3.761,0.316
3.762,0.309
3.763,0.306
3.764,0.298
3.765,0.291
3.766,0.284
3.767,0.272
3.768,0.267
3.769,0.259
3.770,0.253
3.771,0.247
3.772,0.236
3.773,0.225
3.774,0.218
3.775,0.203
3.776,0.196
3.777,0.184
3.778,0.178
3.779,0.169
3.780,0.158
3.781,0.153
3.782,0.143
3.783,0.131
3.784,0.129
3.785,0.125
3.786,0.122
3.787,0.116
3.788,0.108
3.789,0.100
3.790,0.095
3.791,0.094
3.792,0.088
3.793,0.084
3.794,0.078
3.795,0.069
3.796,0.059
3.797,0.050
3.798,0.041
3.799,0.034
3.800,0.031
3.801,0.028
3.802,0.021
3.803,0.016
3.804,0.013
3.805,0.013
3.806,0.016
3.807,0.013
3.808,0.007
3.809,0.006
3.810,0.003
3.811,-0.003
3.812,-0.008
3.813,-0.006
3.814,-0.011
3.815,-0.012
3.816,-0.012
3.817,-0.016
3.818,-0.017
3.819,-0.019
3.820,-0.023
3.821,-0.028
3.822,-0.029
3.823,-0.034
3.824,-0.037
3.825,-0.037
3.826,-0.037
3.827,-0.037
3.828,-0.039
3.829,-0.044
3.830,-0.047
3.831,-0.047
3.832,-0.047
3.833,-0.047
3.834,-0.046
3.835,-0.047
3.836,-0.044
3.837,-0.047
3.838,-0.050
3.839,-0.053
3.840,-0.056
3.841,-0.056
3.842,-0.056
3.843,-0.056
3.844,-0.053
3.845,-0.053
3.846,-0.052
3.847,-0.053
3.848,-0.053
3.849,-0.053
3.850,-0.057
3.851,-0.062
3.852,-0.062
3.853,-0.062
3.854,-0.062
3.855,-0.062
3.856,-0.064
3.857,-0.062
3.858,-0.056
3.859,-0.056
3.860,-0.057
3.861,-0.056
3.862,-0.056
3.863,-0.056
3.864,-0.055
3.865,-0.056
3.866,-0.054
3.867,-0.056
3.868,-0.056
3.869,-0.056
3.870,-0.059
3.871,-0.062
3.872,-0.064
3.873,-0.062
3.874,-0.062
3.875,-0.066
3.876,-0.062
3.877,-0.059
3.878,-0.055
3.879,-0.056
3.880,-0.057
3.881,-0.059
3.882,-0.059
3.883,-0.059
3.884,-0.058
3.885,-0.056
3.886,-0.055
3.887,-0.050
3.888,-0.053
3.889,-0.050
3.890,-0.050
3.891,-0.053
3.892,-0.052
3.893,-0.050
3.894,-0.048
3.895,-0.047
3.896,-0.047
3.897,-0.050
3.898,-0.051
3.899,-0.053
3.900,-0.053
3.901,-0.050
3.902,-0.050
3.903,-0.050
3.904,-0.050
3.905,-0.050
3.906,-0.050
3.907,-0.050
3.908,-0.050
3.909,-0.050
3.910,-0.048
3.911,-0.050
3.912,-0.052
3.913,-0.050
3.914,-0.053
3.915,-0.053
3.916,-0.053
3.917,-0.050
3.918,-0.054
3.919,-0.053
3.920,-0.055
3.921,-0.053
3.922,-0.053
3.923,-0.053
3.924,-0.055
3.925,-0.053
3.926,-0.054
3.927,-0.056
3.928,-0.056
3.929,-0.056
3.930,-0.055
3.931,-0.053
3.932,-0.051
3.933,-0.053
3.934,-0.052
3.935,-0.050
3.936,-0.053
3.937,-0.053
3.938,-0.050
3.939,-0.053
3.940,-0.053
3.941,-0.053
3.942,-0.056
3.943,-0.059
3.944,-0.058
3.945,-0.059
3.946,-0.055
3.947,-0.053
3.948,-0.054
3.949,-0.056
3.950,-0.057
3.951,-0.059
3.952,-0.059
3.953,-0.062
3.954,-0.061
3.955,-0.059
3.956,-0.058
3.957,-0.056
3.958,-0.058
3.959,-0.053
3.960,-0.053
3.961,-0.053
3.962,-0.053
3.963,-0.053
3.964,-0.052
3.965,-0.056
3.966,-0.061
3.967,-0.062
3.968,-0.062
3.969,-0.062
3.970,-0.066
3.971,-0.066
3.972,-0.067
3.973,-0.066
3.974,-0.062
3.975,-0.056
3.976,-0.059
3.977,-0.062
3.978,-0.059
3.979,-0.062
3.980,-0.062
3.981,-0.062
3.982,-0.061
3.983,-0.059
3.984,-0.061
3.985,-0.059
3.986,-0.062
3.987,-0.062
3.988,-0.059
3.989,-0.059
3.990,-0.059
3.991,-0.059
3.992,-0.061
3.993,-0.056
3.994,-0.057
3.995,-0.059
3.996,-0.059
3.997,-0.059
3.998,-0.062
3.999,-0.062
4.000,-0.064
4.001,-0.066
4.002,-0.069
4.003,-0.069
4.004,-0.064
4.005,-0.062
4.006,-0.061
4.007,-0.062
4.008,-0.058
4.009,-0.056
4.010,-0.054
4.011,-0.056
4.012,-0.062
4.013,-0.066
4.014,-0.066
4.015,-0.066
4.016,-0.066
4.017,-0.066
4.018,-0.066
4.019,-0.069
4.020,-0.067
4.021,-0.069
4.022,-0.069
4.023,-0.069
4.024,-0.059
4.025,-0.056
4.026,-0.059
4.027,-0.059
4.028,-0.061
4.029,-0.059
4.030,-0.058
4.031,-0.059
4.032,-0.064
4.033,-0.066
4.034,-0.067
4.035,-0.069
4.036,-0.067
4.037,-0.066
4.038,-0.070
4.039,-0.069
4.040,-0.067
4.041,-0.066
4.042,-0.067
4.043,-0.072
4.044,-0.071
4.045,-0.069
4.046,-0.069
4.047,-0.069
4.048,-0.069
4.049,-0.069
4.050,-0.069
4.051,-0.069
4.052,-0.070
4.053,-0.072
4.054,-0.071
4.055,-0.069
4.056,-0.071
4.057,-0.069
4.058,-0.069
4.059,-0.069
4.060,-0.066
4.061,-0.069
4.062,-0.066
4.063,-0.069
4.064,-0.070
4.065,-0.072
4.066,-0.067
4.067,-0.069
4.068,-0.069
4.069,-0.069
4.070,-0.075
4.071,-0.078
4.072,-0.081
4.073,-0.078
4.074,-0.074
4.075,-0.072
4.076,-0.072
4.077,-0.072
4.078,-0.072
4.079,-0.072
4.080,-0.075
4.081,-0.075
4.082,-0.078
4.083,-0.075
4.084,-0.072
4.085,-0.072
4.086,-0.072
4.087,-0.072
4.088,-0.076
4.089,-0.081
4.090,-0.083
4.091,-0.084
4.092,-0.084
4.093,-0.084
4.094,-0.075
4.095,-0.072
4.096,-0.072
4.097,-0.072
4.098,-0.075
4.099,-0.072
4.100,-0.071
4.101,-0.072
4.102,-0.072
4.103,-0.075
4.104,-0.073
4.105,-0.075
4.106,-0.071
4.107,-0.072
4.108,-0.075
4.109,-0.072
4.110,-0.076
4.111,-0.075
4.112,-0.069
4.113,-0.066
4.114,-0.069
4.115,-0.069
4.116,-0.073
4.117,-0.078
4.118,-0.072
4.119,-0.075
4.120,-0.078
4.121,-0.078
4.122,-0.079
4.123,-0.081
4.124,-0.078
4.125,-0.075
4.126,-0.081
4.127,-0.084
4.128,-0.082
4.129,-0.084
4.130,-0.080
4.131,-0.075
4.132,-0.074
4.133,-0.072
4.134,-0.072
4.135,-0.072
4.136,-0.078
4.137,-0.081
4.138,-0.081
4.139,-0.081
4.140,-0.080
4.141,-0.075
4.142,-0.076
4.143,-0.081
4.144,-0.078
4.145,-0.081
4.146,-0.081
4.147,-0.081
4.148,-0.082
4.149,-0.081
4.150,-0.082
4.151,-0.084
4.152,-0.084
4.153,-0.084
4.154,-0.087
4.155,-0.087
4.156,-0.087
4.157,-0.084
4.158,-0.086
4.159,-0.084
4.160,-0.087
4.161,-0.087
4.162,-0.087
4.163,-0.087
4.164,-0.087
4.165,-0.091
4.166,-0.089
4.167,-0.087
4.168,-0.084
4.169,-0.087
4.170,-0.089
4.171,-0.087
4.172,-0.086
4.173,-0.084
4.174,-0.084
4.175,-0.081
4.176,-0.082
4.177,-0.084
4.178,-0.081
4.179,-0.081
4.180,-0.080
4.181,-0.078
4.182,-0.078
4.183,-0.078
4.184,-0.075
4.185,-0.078
4.186,-0.079
4.187,-0.084
4.188,-0.083
4.189,-0.081
4.190,-0.080
4.191,-0.075
4.192,-0.080
4.193,-0.075
4.194,-0.081
4.195,-0.084
4.196,-0.084
4.197,-0.081
4.198,-0.082
4.199,-0.084
4.200,-0.091
4.201,-0.097
4.202,-0.091
4.203,-0.087
4.204,-0.087
4.205,-0.087
4.206,-0.089
4.207,-0.091
4.208,-0.084
4.209,-0.084
4.210,-0.087
4.211,-0.087
4.212,-0.084
4.213,-0.081
4.214,-0.081
4.215,-0.081
4.216,-0.084
4.217,-0.087
4.218,-0.091
4.219,-0.091
4.220,-0.087
4.221,-0.087
4.222,-0.089
4.223,-0.087
4.224,-0.089
4.225,-0.087
4.226,-0.087
4.227,-0.087
4.228,-0.091
4.229,-0.091
4.230,-0.089
4.231,-0.087
4.232,-0.089
4.233,-0.091
4.234,-0.089
4.235,-0.091
4.236,-0.089
4.237,-0.091
4.238,-0.092
4.239,-0.094
4.240,-0.094
4.241,-0.094
4.242,-0.092
4.243,-0.091
4.244,-0.086
4.245,-0.087
4.246,-0.091
4.247,-0.091
4.248,-0.089
4.249,-0.091
4.250,-0.094
4.251,-0.097
4.252,-0.096
4.253,-0.094
4.254,-0.095
4.255,-0.094
4.256,-0.091
4.257,-0.091
4.258,-0.089
4.259,-0.087
4.260,-0.089
4.261,-0.091
4.262,-0.091
4.263,-0.097
4.264,-0.096
4.265,-0.094
4.266,-0.094
4.267,-0.094
4.268,-0.094
4.269,-0.094
4.270,-0.092
4.271,-0.094
4.272,-0.097
4.273,-0.100
4.274,-0.097
4.275,-0.091
4.276,-0.089
4.277,-0.091
4.278,-0.089
4.279,-0.091
4.280,-0.092
4.281,-0.091
4.282,-0.086
4.283,-0.087
4.284,-0.092
4.285,-0.097
4.286,-0.098
4.287,-0.100
4.288,-0.099
4.289,-0.100
4.290,-0.099
4.291,-0.097
4.292,-0.097
4.293,-0.094
4.294,-0.100
4.295,-0.103
4.296,-0.104
4.297,-0.103
4.298,-0.100
4.299,-0.097
4.300,-0.094
4.301,-0.097
4.302,-0.092
4.303,-0.094
4.304,-0.094
4.305,-0.094
4.306,-0.097
4.307,-0.091
4.308,-0.092
4.309,-0.094
4.310,-0.097
4.311,-0.097
4.312,-0.096
4.313,-0.094
4.314,-0.095
4.315,-0.100
4.316,-0.106
4.317,-0.103
4.318,-0.097
4.319,-0.091
4.320,-0.091
4.321,-0.091
4.322,-0.094
4.323,-0.094
4.324,-0.092
4.325,-0.094
4.326,-0.095
4.327,-0.097
4.328,-0.094
4.329,-0.091
4.330,-0.092
4.331,-0.094
4.332,-0.097
4.333,-0.100
4.334,-0.100
4.335,-0.100
4.336,-0.096
4.337,-0.094
4.338,-0.098
4.339,-0.100
4.340,-0.099
4.341,-0.097
4.342,-0.092
4.343,-0.091
4.344,-0.092
4.345,-0.097
4.346,-0.097
4.347,-0.097
4.348,-0.094
4.349,-0.097
4.350,-0.097
4.351,-0.103
4.352,-0.103
4.353,-0.103
4.354,-0.100
4.355,-0.103
4.356,-0.099
4.357,-0.094
4.358,-0.094
4.359,-0.091
4.360,-0.092
4.361,-0.097
4.362,-0.097
4.363,-0.097
4.364,-0.097
4.365,-0.094
4.366,-0.098
4.367,-0.097
4.368,-0.097
4.369,-0.097
4.370,-0.094
4.371,-0.091
4.372,-0.091
4.373,-0.087
4.374,-0.084
4.375,-0.081
4.376,-0.079
4.377,-0.078
4.378,-0.073
4.379,-0.072
4.380,-0.064
4.381,-0.056
4.382,-0.050
4.383,-0.047
4.384,-0.050
4.385,-0.047
4.386,-0.041
4.387,-0.037
4.388,-0.034
4.389,-0.025
4.390,-0.016
4.391,-0.006
4.392,0.000
4.393,0.000
4.394,-0.004
4.395,-0.003
4.396,-0.001
4.397,-0.003
4.398,-0.002
4.399,0.000
4.400,-0.002
4.401,0.000
4.402,-0.003
4.403,0.000
4.404,0.005
4.405,0.006
4.406,0.016
4.407,0.025
4.408,0.033
4.409,0.041
4.410,0.048
4.411,0.053
4.412,0.052
4.413,0.056
4.414,0.067
4.415,0.078
4.416,0.080
4.417,0.088
4.418,0.100
4.419,0.109
4.420,0.105
4.421,0.106
4.422,0.103
4.423,0.100
4.424,0.098
4.425,0.100
4.426,0.097
4.427,0.094
4.428,0.089
4.429,0.084
4.430,0.084
4.431,0.084
4.432,0.075
4.433,0.066
4.434,0.058
4.435,0.053
4.436,0.053
4.437,0.050
4.438,0.039
4.439,0.031
4.440,0.033
4.441,0.031
4.442,0.027
4.443,0.025
4.444,0.026
4.445,0.022
4.446,0.025
4.447,0.022
4.448,0.022
4.449,0.016
4.450,0.011
4.451,0.006
4.452,-0.007
4.453,-0.016
4.454,-0.019
4.455,-0.028
4.456,-0.037
4.457,-0.041
4.458,-0.053
4.459,-0.056
4.460,-0.062
4.461,-0.066
4.462,-0.075
4.463,-0.075
4.464,-0.078
4.465,-0.081
4.466,-0.080
4.467,-0.081
4.468,-0.083
4.469,-0.084
4.470,-0.083
4.471,-0.081
4.472,-0.084
4.473,-0.087
4.474,-0.089
4.475,-0.087
4.476,-0.095
4.477,-0.100
4.478,-0.106
4.479,-0.103
4.480,-0.106
4.481,-0.106
4.482,-0.106
4.483,-0.109
4.484,-0.109
4.485,-0.112
4.486,-0.116
4.487,-0.119
4.488,-0.123
4.489,-0.125
4.490,-0.127
4.491,-0.128
4.492,-0.127
4.493,-0.128
4.494,-0.132
4.495,-0.137
4.496,-0.139
4.497,-0.141
4.498,-0.142
4.499,-0.144
4.500,-0.141
4.501,-0.137
4.502,-0.136
4.503,-0.131
4.504,-0.131
4.505,-0.134
4.506,-0.134
4.507,-0.134
4.508,-0.134
4.509,-0.134
4.510,-0.130
4.511,-0.131
4.512,-0.136
4.513,-0.137
4.514,-0.137
4.515,-0.141
4.516,-0.137
4.517,-0.137
4.518,-0.139
4.519,-0.141
4.520,-0.142
4.521,-0.141
4.522,-0.137
4.523,-0.141
4.524,-0.145
4.525,-0.147
4.526,-0.153
4.527,-0.162
4.528,-0.172
4.529,-0.181
4.530,-0.198
4.531,-0.212
4.532,-0.224
4.533,-0.231
4.534,-0.239
4.535,-0.237
4.536,-0.225
4.537,-0.203
4.538,-0.177
4.539,-0.141
4.540,-0.105
4.541,-0.062
4.542,-0.023
4.543,0.003
4.544,0.034
4.545,0.066
4.546,0.117
4.547,0.191
4.548,0.261
4.549,0.353
4.550,0.449
4.551,0.544
4.552,0.647
4.553,0.759
4.554,0.871
4.555,0.969
4.556,1.061
4.557,1.128
4.558,1.193
4.559,1.275
4.560,1.356
4.561,1.425
4.562,1.480
4.563,1.500
4.564,1.528
4.565,1.484
4.566,1.434
4.567,1.359
4.568,1.280
4.569,1.178
4.570,1.075
4.571,0.950
4.572,0.822
4.573,0.719
4.574,0.625
4.575,0.550
4.576,0.474
4.577,0.419
4.578,0.369
4.579,0.334
4.580,0.308
4.581,0.288
4.582,0.266
4.583,0.238
4.584,0.207
4.585,0.203
4.586,0.198
4.587,0.184
4.588,0.168
4.589,0.153
4.590,0.144
4.591,0.141
4.592,0.134
4.593,0.128
4.594,0.123
4.595,0.116
4.596,0.103
4.597,0.088
4.598,0.072
4.599,0.050
4.600,0.038
4.601,0.022
4.602,0.013
4.603,0.009
4.604,0.001
4.605,-0.006
4.606,-0.016
4.607,-0.025
4.608,-0.031
4.609,-0.037
4.610,-0.050
4.611,-0.056
4.612,-0.055
4.613,-0.062
4.614,-0.064
4.615,-0.069
4.616,-0.073
4.617,-0.081
4.618,-0.081
4.619,-0.081
4.620,-0.086
4.621,-0.084
4.622,-0.089
4.623,-0.087
4.624,-0.091
4.625,-0.091
4.626,-0.089
4.627,-0.091
4.628,-0.095
4.629,-0.097
4.630,-0.098
4.631,-0.100
4.632,-0.100
4.633,-0.100
4.634,-0.100
4.635,-0.100
4.636,-0.100
4.637,-0.097
4.638,-0.096
4.639,-0.097
4.640,-0.100
4.641,-0.100
4.642,-0.100
4.643,-0.100
4.644,-0.101
4.645,-0.103
4.646,-0.104
4.647,-0.106
4.648,-0.107
4.649,-0.109
4.650,-0.106
4.651,-0.106
4.652,-0.106
4.653,-0.103
4.654,-0.103
4.655,-0.103
4.656,-0.099
4.657,-0.094
4.658,-0.094
4.659,-0.091
4.660,-0.092
4.661,-0.094
4.662,-0.097
4.663,-0.094
4.664,-0.095
4.665,-0.094
4.666,-0.094
4.667,-0.094
4.668,-0.092
4.669,-0.087
4.670,-0.089
4.671,-0.087
4.672,-0.086
4.673,-0.084
4.674,-0.086
4.675,-0.081
4.676,-0.082
4.677,-0.081
4.678,-0.084
4.679,-0.084
4.680,-0.084
4.681,-0.084
4.682,-0.081
4.683,-0.081
4.684,-0.075
4.685,-0.072
4.686,-0.073
4.687,-0.072
4.688,-0.072
4.689,-0.072
4.690,-0.072
4.691,-0.072
4.692,-0.071
4.693,-0.066
4.694,-0.070
4.695,-0.069
4.696,-0.067
4.697,-0.069
4.698,-0.069
4.699,-0.069
4.700,-0.069
4.701,-0.069
4.702,-0.066
4.703,-0.066
4.704,-0.066
4.705,-0.066
4.706,-0.062
4.707,-0.059
4.708,-0.057
4.709,-0.056
4.710,-0.057
4.711,-0.059
4.712,-0.061
4.713,-0.062
4.714,-0.058
4.715,-0.056
4.716,-0.059
4.717,-0.056
4.718,-0.053
4.719,-0.053
4.720,-0.050
4.721,-0.053
4.722,-0.054
4.723,-0.053
4.724,-0.047
4.725,-0.044
4.726,-0.044
4.727,-0.041
4.728,-0.039
4.729,-0.037
4.730,-0.036
4.731,-0.034
4.732,-0.032
4.733,-0.034
4.734,-0.033
4.735,-0.028
4.736,-0.031
4.737,-0.031
4.738,-0.029
4.739,-0.031
4.740,-0.025
4.741,-0.019
4.742,-0.019
4.743,-0.019
4.744,-0.011
4.745,-0.006
4.746,-0.005
4.747,0.003
4.748,0.000
4.749,0.000
4.750,0.000
4.751,0.000
4.752,0.006
4.753,0.009
4.754,0.009
4.755,0.016
4.756,0.020
4.757,0.028
4.758,0.034
4.759,0.041
4.760,0.039
4.761,0.041
4.762,0.044
4.763,0.047
4.764,0.052
4.765,0.056
4.766,0.061
4.767,0.059
4.768,0.069
4.769,0.075
4.770,0.081
4.771,0.078
4.772,0.086
4.773,0.091
4.774,0.101
4.775,0.109
4.776,0.112
4.777,0.116
4.778,0.121
4.779,0.125
4.780,0.131
4.781,0.138
4.782,0.144
4.783,0.150
4.784,0.158
4.785,0.163
4.786,0.168
4.787,0.172
4.788,0.178
4.789,0.184
4.790,0.189
4.791,0.197
4.792,0.206
4.793,0.212
4.794,0.218
4.795,0.222
4.796,0.225
4.797,0.231
4.798,0.241
4.799,0.244
4.800,0.247
4.801,0.253
4.802,0.258
4.803,0.266
4.804,0.271
4.805,0.275
4.806,0.281
4.807,0.284
4.808,0.286
4.809,0.291
4.810,0.295
4.811,0.300
4.812,0.308
4.813,0.312
4.814,0.311
4.815,0.312
4.816,0.316
4.817,0.319
4.818,0.325
4.819,0.328
4.820,0.331
4.821,0.328
4.822,0.328
4.823,0.328
4.824,0.326
4.825,0.328
4.826,0.322
4.827,0.319
4.828,0.319
4.829,0.316
4.830,0.314
4.831,0.312
4.832,0.303
4.833,0.294
4.834,0.291
4.835,0.281
4.836,0.271
4.837,0.266
4.838,0.255
4.839,0.247
4.840,0.241
4.841,0.234
4.842,0.233
4.843,0.225
4.844,0.216
4.845,0.203
4.846,0.196
4.847,0.188
4.848,0.177
4.849,0.166
4.850,0.159
4.851,0.147
4.852,0.142
4.853,0.134
4.854,0.128
4.855,0.119
4.856,0.109
4.857,0.106
4.858,0.099
4.859,0.091
4.860,0.083
4.861,0.072
4.862,0.070
4.863,0.066
4.864,0.058
4.865,0.050
4.866,0.043
4.867,0.038
4.868,0.031
4.869,0.028
4.870,0.024
4.871,0.016
4.872,0.011
4.873,0.006
4.874,0.001
4.875,0.000
4.876,-0.007
4.877,-0.016
4.878,-0.017
4.879,-0.016
4.880,-0.022
4.881,-0.025
4.882,-0.025
4.883,-0.031
4.884,-0.036
4.885,-0.037
4.886,-0.037
4.887,-0.041
4.888,-0.047
4.889,-0.047
4.890,-0.054
4.891,-0.059
4.892,-0.059
4.893,-0.062
4.894,-0.064
4.895,-0.066
4.896,-0.067
4.897,-0.069
4.898,-0.067
4.899,-0.069
4.900,-0.073
4.901,-0.075
4.902,-0.075
4.903,-0.075
4.904,-0.074
4.905,-0.075
4.906,-0.078
4.907,-0.078
4.908,-0.078
4.909,-0.078
4.910,-0.081
4.911,-0.087
4.912,-0.084
4.913,-0.087
4.914,-0.086
4.915,-0.084
4.916,-0.087
4.917,-0.087
4.918,-0.084
4.919,-0.081
4.920,-0.078
4.921,-0.078
4.922,-0.078
4.923,-0.081
4.924,-0.081
4.925,-0.081
4.926,-0.082
4.927,-0.084
4.928,-0.084
4.929,-0.084
4.930,-0.083
4.931,-0.081
4.932,-0.084
4.933,-0.084
4.934,-0.081
4.935,-0.084
4.936,-0.087
4.937,-0.087
4.938,-0.087
4.939,-0.087
4.940,-0.084
4.941,-0.084
4.942,-0.082
4.943,-0.084
4.944,-0.084
4.945,-0.084
4.946,-0.084
4.947,-0.084
4.948,-0.086
4.949,-0.084
4.950,-0.083
4.951,-0.084
4.952,-0.086
4.953,-0.087
4.954,-0.084
4.955,-0.087
4.956,-0.087
4.957,-0.087
4.958,-0.087
4.959,-0.087
4.960,-0.087
4.961,-0.087
4.962,-0.087
4.963,-0.084
4.964,-0.089
4.965,-0.087
4.966,-0.086
4.967,-0.087
4.968,-0.087
4.969,-0.087
4.970,-0.084
4.971,-0.081
4.972,-0.080
4.973,-0.081
4.974,-0.082
4.975,-0.084
4.976,-0.086
4.977,-0.084
4.978,-0.084
4.979,-0.084
4.980,-0.081
4.981,-0.078
4.982,-0.078
4.983,-0.078
4.984,-0.078
4.985,-0.078
4.986,-0.079
4.987,-0.084
4.988,-0.083
4.989,-0.078
4.990,-0.077
4.991,-0.072
4.992,-0.073
4.993,-0.072
4.994,-0.075
4.995,-0.072
4.996,-0.075
4.997,-0.075
4.998,-0.075
4.999,-0.075
5.000,-0.079
5.001,-0.081
5.002,-0.081
5.003,-0.081
5.004,-0.081
5.005,-0.081
5.006,-0.080
5.007,-0.078
5.008,-0.074
5.009,-0.072
5.010,-0.072
5.011,-0.072
5.012,-0.075
5.013,-0.075
5.014,-0.072
5.015,-0.075
5.016,-0.078
5.017,-0.081
5.018,-0.080
5.019,-0.078
5.020,-0.077
5.021,-0.078
5.022,-0.076
5.023,-0.078
5.024,-0.074
5.025,-0.069
5.026,-0.070
5.027,-0.072
5.028,-0.072
5.029,-0.075
5.030,-0.075
5.031,-0.075
5.032,-0.075
5.033,-0.075
5.034,-0.079
5.035,-0.078
5.036,-0.078
5.037,-0.078
5.038,-0.079
5.039,-0.081
5.040,-0.078
5.041,-0.081
5.042,-0.082
5.043,-0.081
5.044,-0.078
5.045,-0.075
5.046,-0.078
5.047,-0.078
5.048,-0.081
5.049,-0.081
5.050,-0.084
5.051,-0.084
5.052,-0.083
5.053,-0.081
5.054,-0.078
5.055,-0.081
5.056,-0.082
5.057,-0.084
5.058,-0.083
5.059,-0.081
5.060,-0.084
5.061,-0.084
5.062,-0.087
5.063,-0.087
5.064,-0.084
5.065,-0.084
5.066,-0.086
5.067,-0.087
5.068,-0.087
5.069,-0.081
5.070,-0.080
5.071,-0.078
5.072,-0.077
5.073,-0.075
5.074,-0.078
5.075,-0.078
5.076,-0.079
5.077,-0.081
5.078,-0.084
5.079,-0.084
5.080,-0.080
5.081,-0.078
5.082,-0.078
5.083,-0.081
5.084,-0.080
5.085,-0.081
5.086,-0.081
5.087,-0.084
5.088,-0.086
5.089,-0.084
5.090,-0.086
5.091,-0.087
5.092,-0.087
5.093,-0.087
5.094,-0.086
5.095,-0.087
5.096,-0.083
5.097,-0.081
5.098,-0.082
5.099,-0.084
5.100,-0.081
5.101,-0.084
5.102,-0.086
5.103,-0.084
5.104,-0.086
5.105,-0.084
5.106,-0.084
5.107,-0.087
5.108,-0.086
5.109,-0.081
5.110,-0.081
5.111,-0.081
5.112,-0.081
5.113,-0.081
5.114,-0.086
5.115,-0.084
5.116,-0.084
5.117,-0.084
5.118,-0.084
5.119,-0.087
5.120,-0.087
5.121,-0.087
5.122,-0.084
5.123,-0.081
5.124,-0.080
5.125,-0.078
5.126,-0.079
5.127,-0.081
5.128,-0.081
5.129,-0.081
5.130,-0.080
5.131,-0.078
5.132,-0.082
5.133,-0.084
5.134,-0.084
5.135,-0.084
5.136,-0.081
5.137,-0.084
5.138,-0.081
5.139,-0.084
5.140,-0.081
5.141,-0.078
5.142,-0.078
5.143,-0.084
5.144,-0.084
5.145,-0.084
5.146,-0.086
5.147,-0.084
5.148,-0.089
5.149,-0.087
5.150,-0.086
5.151,-0.087
5.152,-0.087
5.153,-0.087
5.154,-0.086
5.155,-0.084
5.156,-0.083
5.157,-0.078
5.158,-0.078
5.159,-0.072
5.160,-0.076
5.161,-0.084
5.162,-0.084
5.163,-0.084
5.164,-0.084
5.165,-0.084
5.166,-0.086
5.167,-0.087
5.168,-0.089
5.169,-0.091
5.170,-0.086
5.171,-0.087
5.172,-0.084
5.173,-0.081
5.174,-0.081
5.175,-0.075
5.176,-0.078
5.177,-0.084
5.178,-0.086
5.179,-0.091
5.180,-0.089
5.181,-0.091
5.182,-0.086
5.183,-0.087
5.184,-0.091
5.185,-0.087
5.186,-0.091
5.187,-0.087
5.188,-0.084
5.189,-0.084
5.190,-0.087
5.191,-0.087
5.192,-0.089
5.193,-0.091
5.194,-0.084
5.195,-0.087
5.196,-0.087
5.197,-0.084
5.198,-0.086
5.199,-0.087
5.200,-0.087
5.201,-0.087
5.202,-0.091
5.203,-0.091
5.204,-0.087
5.205,-0.087
5.206,-0.087
5.207,-0.087
5.208,-0.086
5.209,-0.084
5.210,-0.084
5.211,-0.084
5.212,-0.087
5.213,-0.087
5.214,-0.086
5.215,-0.084
5.216,-0.087
5.217,-0.087
5.218,-0.087
5.219,-0.091
5.220,-0.087
5.221,-0.091
5.222,-0.091
5.223,-0.091
5.224,-0.091
5.225,-0.087
5.226,-0.087
5.227,-0.087
5.228,-0.086
5.229,-0.084
5.230,-0.087
5.231,-0.087
5.232,-0.087
5.233,-0.084
5.234,-0.089
5.235,-0.091
5.236,-0.094
5.237,-0.094
5.238,-0.092
5.239,-0.091
5.240,-0.087
5.241,-0.087
5.242,-0.087
5.243,-0.087
5.244,-0.086
5.245,-0.091
5.246,-0.091
5.247,-0.087
5.248,-0.087
5.249,-0.087
5.250,-0.091
5.251,-0.091
5.252,-0.091
5.253,-0.091
5.254,-0.087
5.255,-0.087
5.256,-0.087
5.257,-0.087
5.258,-0.087
5.259,-0.087
5.260,-0.086
5.261,-0.091
5.262,-0.087
5.263,-0.087
5.264,-0.089
5.265,-0.091
5.266,-0.092
5.267,-0.091
5.268,-0.092
5.269,-0.094
5.270,-0.094
5.271,-0.094
5.272,-0.092
5.273,-0.091
5.274,-0.094
5.275,-0.094
5.276,-0.089
5.277,-0.087
5.278,-0.091
5.279,-0.091
5.280,-0.092
5.281,-0.091
5.282,-0.091
5.283,-0.091
5.284,-0.091
5.285,-0.087
5.286,-0.087
5.287,-0.087
5.288,-0.087
5.289,-0.087
5.290,-0.087
5.291,-0.091
5.292,-0.089
5.293,-0.091
5.294,-0.091
5.295,-0.091
5.296,-0.092
5.297,-0.094
5.298,-0.094
5.299,-0.094
5.300,-0.089
5.301,-0.091
5.302,-0.092
5.303,-0.091
5.304,-0.087
5.305,-0.087
5.306,-0.089
5.307,-0.091
5.308,-0.091
5.309,-0.091
5.310,-0.092
5.311,-0.091
5.312,-0.089
5.313,-0.091
5.314,-0.091
5.315,-0.091
5.316,-0.094
5.317,-0.097
5.318,-0.091
5.319,-0.091
5.320,-0.091
5.321,-0.091
5.322,-0.092
5.323,-0.094
5.324,-0.091
5.325,-0.087
5.326,-0.086
5.327,-0.087
5.328,-0.091
5.329,-0.094
5.330,-0.095
5.331,-0.094
5.332,-0.094
5.333,-0.097
5.334,-0.094
5.335,-0.094
5.336,-0.095
5.337,-0.094
5.338,-0.091
5.339,-0.094
5.340,-0.094
5.341,-0.094
5.342,-0.092
5.343,-0.091
5.344,-0.091
5.345,-0.094
5.346,-0.097
5.347,-0.100
5.348,-0.097
5.349,-0.091
5.350,-0.092
5.351,-0.091
5.352,-0.091
5.353,-0.087
5.354,-0.087
5.355,-0.087
5.356,-0.086
5.357,-0.091
5.358,-0.087
5.359,-0.091
5.360,-0.091
5.361,-0.091
5.362,-0.095
5.363,-0.091
5.364,-0.092
5.365,-0.094
5.366,-0.098
5.367,-0.100
5.368,-0.097
5.369,-0.094
5.370,-0.091
5.371,-0.091
5.372,-0.097
5.373,-0.094
5.374,-0.089
5.375,-0.084
5.376,-0.086
5.377,-0.087
5.378,-0.092
5.379,-0.094
5.380,-0.091
5.381,-0.091
5.382,-0.091
5.383,-0.091
5.384,-0.092
5.385,-0.094
5.386,-0.092
5.387,-0.091
5.388,-0.089
5.389,-0.087
5.390,-0.087
5.391,-0.087
5.392,-0.086
5.393,-0.087
5.394,-0.089
5.395,-0.087
5.396,-0.087
5.397,-0.087
5.398,-0.086
5.399,-0.087
5.400,-0.086
5.401,-0.087
5.402,-0.087
5.403,-0.087
5.404,-0.084
5.405,-0.087
5.406,-0.086
5.407,-0.091
5.408,-0.091
5.409,-0.091
5.410,-0.086
5.411,-0.087
5.412,-0.087
5.413,-0.087
5.414,-0.089
5.415,-0.087
5.416,-0.086
5.417,-0.087
5.418,-0.087
5.419,-0.087
5.420,-0.087
5.421,-0.084
5.422,-0.089
5.423,-0.087
5.424,-0.086
5.425,-0.084
5.426,-0.081
5.427,-0.078
5.428,-0.079
5.429,-0.078
5.430,-0.078
5.431,-0.078
5.432,-0.075
5.433,-0.072
5.434,-0.064
5.435,-0.059
5.436,-0.053
5.437,-0.047
5.438,-0.042
5.439,-0.041
5.440,-0.037
5.441,-0.028
5.442,-0.021
5.443,-0.016
5.444,-0.016
5.445,-0.009
5.446,-0.003
5.447,0.003
5.448,0.009
5.449,0.009
5.450,0.005
5.451,0.006
5.452,0.014
5.453,0.019
5.454,0.019
5.455,0.019
5.456,0.014
5.457,0.013
5.458,0.009
5.459,0.013
5.460,0.019
5.461,0.022
5.462,0.028
5.463,0.034
5.464,0.039
5.465,0.044
5.466,0.051
5.467,0.056
5.468,0.058
5.469,0.066
5.470,0.074
5.471,0.081
5.472,0.086
5.473,0.097
5.474,0.111
5.475,0.122
5.476,0.118
5.477,0.119
5.478,0.120
5.479,0.122
5.480,0.114
5.481,0.109
5.482,0.109
5.483,0.109
5.484,0.108
5.485,0.106
5.486,0.104
5.487,0.103
5.488,0.097
5.489,0.091
5.490,0.083
5.491,0.078
5.492,0.072
5.493,0.063
5.494,0.053
5.495,0.047
5.496,0.048
5.497,0.047
5.498,0.044
5.499,0.044
5.500,0.041
5.501,0.031
5.502,0.034
5.503,0.031
5.504,0.034
5.505,0.031
5.506,0.028
5.507,0.025
5.508,0.017
5.509,0.016
5.510,0.011
5.511,0.000
5.512,-0.014
5.513,-0.022
5.514,-0.034
5.515,-0.037
5.516,-0.044
5.517,-0.047
5.518,-0.056
5.519,-0.056
5.520,-0.061
5.521,-0.066
5.522,-0.062
5.523,-0.062
5.524,-0.064
5.525,-0.066
5.526,-0.066
5.527,-0.066
5.528,-0.069
5.529,-0.072
5.530,-0.074
5.531,-0.072
5.532,-0.076
5.533,-0.078
5.534,-0.084
5.535,-0.081
5.536,-0.086
5.537,-0.087
5.538,-0.087
5.539,-0.091
5.540,-0.092
5.541,-0.097
5.542,-0.096
5.543,-0.094
5.544,-0.097
5.545,-0.097
5.546,-0.101
5.547,-0.106
5.548,-0.106
5.549,-0.109
5.550,-0.109
5.551,-0.109
5.552,-0.111
5.553,-0.112
5.554,-0.112
5.555,-0.112
5.556,-0.112
5.557,-0.112
5.558,-0.114
5.559,-0.112
5.560,-0.114
5.561,-0.119
5.562,-0.116
5.563,-0.112
5.564,-0.112
5.565,-0.112
5.566,-0.111
5.567,-0.116
5.568,-0.119
5.569,-0.119
5.570,-0.114
5.571,-0.112
5.572,-0.109
5.573,-0.109
5.574,-0.111
5.575,-0.112
5.576,-0.116
5.577,-0.116
5.578,-0.114
5.579,-0.119
5.580,-0.123
5.581,-0.125
5.582,-0.125
5.583,-0.128
5.584,-0.136
5.585,-0.144
5.586,-0.159
5.587,-0.172
5.588,-0.184
5.589,-0.194
5.590,-0.200
5.591,-0.197
5.592,-0.186
5.593,-0.166
5.594,-0.141
5.595,-0.106
5.596,-0.075
5.597,-0.037
5.598,0.000
5.599,0.025
5.600,0.061
5.601,0.097
5.602,0.145
5.603,0.216
5.604,0.292
5.605,0.391
5.606,0.489
5.607,0.588
5.608,0.684
5.609,0.791
5.610,0.902
5.611,1.000
5.612,1.100
5.613,1.175
5.614,1.245
5.615,1.334
5.616,1.422
5.617,1.497
5.618,1.563
5.619,1.594
5.620,1.613
5.621,1.559
5.622,1.502
5.623,1.419
5.624,1.344
5.625,1.247
5.626,1.146
5.627,1.022
5.628,0.897
5.629,0.797
5.630,0.694
5.631,0.609
5.632,0.539
5.633,0.491
5.634,0.450
5.635,0.425
5.636,0.401
5.637,0.384
5.638,0.350
5.639,0.309
5.640,0.269
5.641,0.253
5.642,0.239
5.643,0.216
5.644,0.203
5.645,0.194
5.646,0.184
5.647,0.181
5.648,0.169
5.649,0.156
5.650,0.151
5.651,0.144
5.652,0.134
5.653,0.122
5.654,0.108
5.655,0.088
5.656,0.076
5.657,0.063
5.658,0.049
5.659,0.041
5.660,0.028
5.661,0.016
5.662,0.007
5.663,0.000
5.664,-0.009
5.665,-0.019
5.666,-0.029
5.667,-0.034
5.668,-0.028
5.669,-0.031
5.670,-0.031
5.671,-0.034
5.672,-0.033
5.673,-0.034
5.674,-0.036
5.675,-0.037
5.676,-0.048
5.677,-0.053
5.678,-0.062
5.679,-0.066
5.680,-0.067
5.681,-0.066
5.682,-0.066
5.683,-0.069
5.684,-0.071
5.685,-0.069
5.686,-0.069
5.687,-0.069
5.688,-0.069
5.689,-0.069
5.690,-0.070
5.691,-0.072
5.692,-0.072
5.693,-0.069
5.694,-0.067
5.695,-0.069
5.696,-0.072
5.697,-0.072
5.698,-0.072
5.699,-0.072
5.700,-0.072
5.701,-0.072
5.702,-0.072
5.703,-0.072
5.704,-0.073
5.705,-0.075
5.706,-0.069
5.707,-0.066
5.708,-0.064
5.709,-0.059
5.710,-0.062
5.711,-0.066
5.712,-0.067
5.713,-0.069
5.714,-0.070
5.715,-0.069
5.716,-0.069
5.717,-0.069
5.718,-0.072
5.719,-0.069
5.720,-0.067
5.721,-0.062
5.722,-0.061
5.723,-0.059
5.724,-0.059
5.725,-0.056
5.726,-0.059
5.727,-0.059
5.728,-0.056
5.729,-0.053
5.730,-0.056
5.731,-0.053
5.732,-0.053
5.733,-0.050
5.734,-0.054
5.735,-0.056
5.736,-0.056
5.737,-0.056
5.738,-0.053
5.739,-0.053
5.740,-0.047
5.741,-0.044
5.742,-0.045
5.743,-0.044
5.744,-0.045
5.745,-0.047
5.746,-0.047
5.747,-0.047
5.748,-0.047
5.749,-0.044
5.750,-0.047
5.751,-0.044
5.752,-0.039
5.753,-0.037
5.754,-0.037
5.755,-0.037
5.756,-0.039
5.757,-0.041
5.758,-0.037
5.759,-0.037
5.760,-0.037
5.761,-0.037
5.762,-0.036
5.763,-0.034
5.764,-0.032
5.765,-0.031
5.766,-0.031
5.767,-0.031
5.768,-0.030
5.769,-0.028
5.770,-0.025
5.771,-0.025
5.772,-0.029
5.773,-0.028
5.774,-0.025
5.775,-0.025
5.776,-0.022
5.777,-0.025
5.778,-0.025
5.779,-0.022
5.780,-0.019
5.781,-0.019
5.782,-0.020
5.783,-0.019
5.784,-0.016
5.785,-0.012
5.786,-0.011
5.787,-0.009
5.788,-0.005
5.789,-0.003
5.790,0.000
5.791,0.006
5.792,0.005
5.793,0.006
5.794,0.008
5.795,0.006
5.796,0.006
5.797,0.006
5.798,0.006
5.799,0.006
5.800,0.013
5.801,0.016
5.802,0.017
5.803,0.025
5.804,0.025
5.805,0.028
5.806,0.033
5.807,0.038
5.808,0.041
5.809,0.041
5.810,0.039
5.811,0.044
5.812,0.047
5.813,0.053
5.814,0.058
5.815,0.063
5.816,0.064
5.817,0.069
5.818,0.073
5.819,0.078
5.820,0.083
5.821,0.088
5.822,0.095
5.823,0.097
5.824,0.100
5.825,0.100
5.826,0.109
5.827,0.109
5.828,0.116
5.829,0.119
5.830,0.126
5.831,0.131
5.832,0.133
5.833,0.134
5.834,0.141
5.835,0.147
5.836,0.154
5.837,0.163
5.838,0.169
5.839,0.175
5.840,0.183
5.841,0.188
5.842,0.195
5.843,0.203
5.844,0.206
5.845,0.209
5.846,0.214
5.847,0.222
5.848,0.230
5.849,0.234
5.850,0.241
5.851,0.247
5.852,0.250
5.853,0.256
5.854,0.264
5.855,0.266
5.856,0.270
5.857,0.278
5.858,0.284
5.859,0.294
5.860,0.297
5.861,0.300
5.862,0.306
5.863,0.309
5.864,0.312
5.865,0.319
5.866,0.321
5.867,0.322
5.868,0.326
5.869,0.328
5.870,0.331
5.871,0.338
5.872,0.342
5.873,0.347
5.874,0.350
5.875,0.350
5.876,0.353
5.877,0.350
5.878,0.350
5.879,0.350
5.880,0.344
5.881,0.341
5.882,0.336
5.883,0.334
5.884,0.336
5.885,0.334
5.886,0.334
5.887,0.334
5.888,0.327
5.889,0.319
5.890,0.316
5.891,0.306
5.892,0.297
5.893,0.294
5.894,0.286
5.895,0.281
5.896,0.272
5.897,0.263
5.898,0.259
5.899,0.250
5.900,0.239
5.901,0.225
5.902,0.218
5.903,0.209
5.904,0.201
5.905,0.194
5.906,0.188
5.907,0.175
5.908,0.170
5.909,0.163
5.910,0.153
5.911,0.141
5.912,0.127
5.913,0.119
5.914,0.114
5.915,0.109
5.916,0.104
5.917,0.097
5.918,0.091
5.919,0.081
5.920,0.074
5.921,0.066
5.922,0.066
5.923,0.069
5.924,0.058
5.925,0.050
5.926,0.044
5.927,0.034
5.928,0.031
5.929,0.028
5.930,0.021
5.931,0.016
5.932,0.013
5.933,0.009
5.934,0.004
5.935,0.003
5.936,0.000
5.937,0.000
5.938,-0.001
5.939,-0.009
5.940,-0.014
5.941,-0.016
5.942,-0.016
5.943,-0.019
5.944,-0.026
5.945,-0.028
5.946,-0.036
5.947,-0.041
5.948,-0.041
5.949,-0.044
5.950,-0.044
5.951,-0.044
5.952,-0.046
5.953,-0.047
5.954,-0.046
5.955,-0.047
5.956,-0.051
5.957,-0.053
5.958,-0.053
5.959,-0.053
5.960,-0.053
5.961,-0.056
5.962,-0.058
5.963,-0.056
5.964,-0.057
5.965,-0.059
5.966,-0.062
5.967,-0.069
5.968,-0.064
5.969,-0.066
5.970,-0.066
5.971,-0.066
5.972,-0.069
5.973,-0.069
5.974,-0.069
5.975,-0.069
5.976,-0.067
5.977,-0.069
5.978,-0.069
5.979,-0.072
5.980,-0.073
5.981,-0.075
5.982,-0.075
5.983,-0.075
5.984,-0.074
5.985,-0.072
5.986,-0.071
5.987,-0.069
5.988,-0.072
5.989,-0.072
5.990,-0.067
5.991,-0.069
5.992,-0.070
5.993,-0.069
5.994,-0.069
5.995,-0.069
5.996,-0.069
5.997,-0.072
5.998,-0.070
5.999,-0.072
6.000,-0.071
6.001,-0.069
6.002,-0.067
6.003,-0.066
6.004,-0.067
6.005,-0.066
6.006,-0.066
6.007,-0.069
6.008,-0.069
6.009,-0.069
6.010,-0.066
6.011,-0.069
6.012,-0.069
6.013,-0.069
6.014,-0.069
6.015,-0.069
6.016,-0.069
6.017,-0.069
6.018,-0.069
6.019,-0.066
6.020,-0.069
6.021,-0.066
6.022,-0.064
6.023,-0.066
6.024,-0.062
6.025,-0.059
6.026,-0.061
6.027,-0.062
6.028,-0.064
6.029,-0.069
6.030,-0.069
6.031,-0.069
6.032,-0.070
6.033,-0.069
6.034,-0.067
6.035,-0.066
6.036,-0.067
6.037,-0.069
6.038,-0.067
6.039,-0.066
6.040,-0.064
6.041,-0.062
6.042,-0.058
6.043,-0.056
6.044,-0.058
6.045,-0.056
6.046,-0.059
6.047,-0.059
6.048,-0.062
6.049,-0.062
6.050,-0.067
6.051,-0.066
6.052,-0.067
6.053,-0.066
6.054,-0.066
6.055,-0.066
6.056,-0.067
6.057,-0.066
6.058,-0.066
6.059,-0.066
6.060,-0.067
6.061,-0.069
6.062,-0.070
6.063,-0.072
6.064,-0.070
6.065,-0.072
6.066,-0.072
6.067,-0.072
6.068,-0.074
6.069,-0.072
6.070,-0.069
6.071,-0.072
6.072,-0.072
6.073,-0.072
6.074,-0.071
6.075,-0.069
6.076,-0.067
6.077,-0.069
6.078,-0.067
6.079,-0.069
6.080,-0.070
6.081,-0.072
6.082,-0.072
6.083,-0.072
6.084,-0.072
6.085,-0.075
6.086,-0.075
6.087,-0.075
6.088,-0.075
6.089,-0.075
6.090,-0.079
6.091,-0.078
6.092,-0.075
6.093,-0.072
6.094,-0.072
6.095,-0.072
6.096,-0.071
6.097,-0.075
6.098,-0.076
6.099,-0.075
6.100,-0.075
6.101,-0.075
6.102,-0.079
6.103,-0.081
6.104,-0.082
6.105,-0.081
6.106,-0.081
6.107,-0.078
6.108,-0.077
6.109,-0.075
6.110,-0.073
6.111,-0.078
6.112,-0.079
6.113,-0.081
6.114,-0.080
6.115,-0.078
6.116,-0.084
6.117,-0.087
6.118,-0.091
6.119,-0.091
6.120,-0.087
6.121,-0.087
6.122,-0.086
6.123,-0.084
6.124,-0.087
6.125,-0.084
6.126,-0.084
6.127,-0.084
6.128,-0.083
6.129,-0.081
6.130,-0.084
6.131,-0.084
6.132,-0.089
6.133,-0.094
6.134,-0.097
6.135,-0.097
6.136,-0.094
6.137,-0.094
6.138,-0.092
6.139,-0.094
6.140,-0.092
6.141,-0.094
6.142,-0.092
6.143,-0.094
6.144,-0.096
6.145,-0.094
6.146,-0.091
6.147,-0.087
6.148,-0.089
6.149,-0.091
6.150,-0.092
6.151,-0.097
6.152,-0.095
6.153,-0.097
6.154,-0.097
6.155,-0.097
6.156,-0.092
6.157,-0.094
6.158,-0.092
6.159,-0.087
6.160,-0.091
6.161,-0.091
6.162,-0.091
6.163,-0.094
6.164,-0.095
6.165,-0.094
6.166,-0.092
6.167,-0.091
6.168,-0.091
6.169,-0.091
6.170,-0.095
6.171,-0.094
6.172,-0.094
6.173,-0.094
6.174,-0.091
6.175,-0.091
6.176,-0.091
6.177,-0.091
6.178,-0.092
6.179,-0.094
6.180,-0.091
6.181,-0.087
6.182,-0.089
6.183,-0.091
6.184,-0.094
6.185,-0.097
6.186,-0.097
6.187,-0.097
6.188,-0.100
6.189,-0.100
6.190,-0.099
6.191,-0.097
6.192,-0.094
6.193,-0.097
6.194,-0.094
6.195,-0.097
6.196,-0.097
6.197,-0.097
6.198,-0.092
6.199,-0.094
6.200,-0.092
6.201,-0.091
6.202,-0.092
6.203,-0.091
6.204,-0.097
6.205,-0.097
6.206,-0.092
6.207,-0.091
6.208,-0.091
6.209,-0.091
6.210,-0.095
6.211,-0.100
6.212,-0.102
6.213,-0.100
6.214,-0.100
6.215,-0.094
6.216,-0.092
6.217,-0.094
6.218,-0.092
6.219,-0.091
6.220,-0.091
6.221,-0.091
6.222,-0.091
6.223,-0.091
6.224,-0.092
6.225,-0.094
6.226,-0.092
6.227,-0.097
6.228,-0.097
6.229,-0.097
6.230,-0.101
6.231,-0.100
6.232,-0.100
6.233,-0.103
6.234,-0.102
6.235,-0.103
6.236,-0.101
6.237,-0.103
6.238,-0.099
6.239,-0.100
6.240,-0.100
6.241,-0.094
6.242,-0.098
6.243,-0.097
6.244,-0.094
6.245,-0.094
6.246,-0.098
6.247,-0.100
6.248,-0.101
6.249,-0.103
6.250,-0.097
6.251,-0.100
6.252,-0.103
6.253,-0.103
6.254,-0.103
6.255,-0.103
6.256,-0.102
6.257,-0.100
6.258,-0.100
6.259,-0.097
6.260,-0.095
6.261,-0.097
6.262,-0.097
6.263,-0.097
6.264,-0.097
6.265,-0.097
6.266,-0.100
6.267,-0.103
6.268,-0.106
6.269,-0.106
6.270,-0.104
6.271,-0.103
6.272,-0.105
6.273,-0.103
6.274,-0.102
6.275,-0.103
6.276,-0.100
6.277,-0.103
6.278,-0.104
6.279,-0.106
6.280,-0.105
6.281,-0.100
6.282,-0.100
6.283,-0.100
6.284,-0.100
6.285,-0.100
6.286,-0.103
6.287,-0.103
6.288,-0.103
6.289,-0.100
6.290,-0.103
6.291,-0.103
6.292,-0.104
6.293,-0.103
6.294,-0.103
6.295,-0.103
6.296,-0.102
6.297,-0.103
6.298,-0.104
6.299,-0.106
6.300,-0.103
6.301,-0.106
6.302,-0.106
6.303,-0.103
6.304,-0.102
6.305,-0.100
6.306,-0.103
6.307,-0.103
6.308,-0.104
6.309,-0.106
6.310,-0.103
6.311,-0.103
6.312,-0.104
6.313,-0.106
6.314,-0.106
6.315,-0.106
6.316,-0.104
6.317,-0.109
6.318,-0.106
6.319,-0.106
6.320,-0.106
6.321,-0.106
6.322,-0.107
6.323,-0.106
6.324,-0.106
6.325,-0.106
6.326,-0.106
6.327,-0.106
6.328,-0.105
6.329,-0.106
6.330,-0.103
6.331,-0.106
6.332,-0.107
6.333,-0.109
6.334,-0.106
6.335,-0.103
6.336,-0.108
6.337,-0.103
6.338,-0.106
6.339,-0.106
6.340,-0.107
6.341,-0.106
6.342,-0.105
6.343,-0.103
6.344,-0.103
6.345,-0.103
6.346,-0.102
6.347,-0.103
6.348,-0.104
6.349,-0.106
6.350,-0.106
6.351,-0.106
6.352,-0.102
6.353,-0.103
6.354,-0.104
6.355,-0.103
6.356,-0.103
6.357,-0.103
6.358,-0.102
6.359,-0.100
6.360,-0.099
6.361,-0.097
6.362,-0.101
6.363,-0.103
6.364,-0.100
6.365,-0.100
6.366,-0.103
6.367,-0.103
6.368,-0.104
6.369,-0.103
6.370,-0.102
6.371,-0.100
6.372,-0.103
6.373,-0.103
6.374,-0.103
6.375,-0.103
6.376,-0.103
6.377,-0.103
6.378,-0.103
6.379,-0.106
6.380,-0.103
6.381,-0.103
6.382,-0.103
6.383,-0.103
6.384,-0.103
6.385,-0.103
6.386,-0.104
6.387,-0.106
6.388,-0.103
6.389,-0.106
6.390,-0.109
6.391,-0.109
6.392,-0.106
6.393,-0.106
6.394,-0.105
6.395,-0.103
6.396,-0.103
6.397,-0.103
6.398,-0.104
6.399,-0.103
6.400,-0.102
6.401,-0.103
6.402,-0.103
6.403,-0.103
6.404,-0.103
6.405,-0.103
6.406,-0.101
6.407,-0.106
6.408,-0.106
6.409,-0.106
6.410,-0.106
6.411,-0.106
6.412,-0.106
6.413,-0.106
6.414,-0.102
6.415,-0.100
6.416,-0.102
6.417,-0.103
6.418,-0.106
6.419,-0.106
6.420,-0.103
6.421,-0.103
6.422,-0.102
6.423,-0.103
6.424,-0.103
6.425,-0.100
6.426,-0.097
6.427,-0.100
6.428,-0.100
6.429,-0.100
6.430,-0.100
6.431,-0.100
6.432,-0.100
6.433,-0.103
6.434,-0.102
6.435,-0.100
6.436,-0.100
6.437,-0.097
6.438,-0.100
6.439,-0.100
6.440,-0.100
6.441,-0.097
6.442,-0.097
6.443,-0.097
6.444,-0.094
6.445,-0.097
6.446,-0.095
6.447,-0.100
6.448,-0.099
6.449,-0.097
6.450,-0.103
6.451,-0.100
6.452,-0.102
6.453,-0.103
6.454,-0.104
6.455,-0.103
6.456,-0.103
6.457,-0.103
6.458,-0.099
6.459,-0.097
6.460,-0.103
6.461,-0.100
6.462,-0.100
6.463,-0.100
6.464,-0.099
6.465,-0.097
6.466,-0.100
6.467,-0.100
6.468,-0.098
6.469,-0.100
6.470,-0.100
6.471,-0.100
6.472,-0.100
6.473,-0.100
6.474,-0.100
6.475,-0.100
6.476,-0.100
6.477,-0.100
6.478,-0.100
6.479,-0.100
6.480,-0.097
6.481,-0.097
6.482,-0.100
6.483,-0.100
6.484,-0.101
6.485,-0.103
6.486,-0.101
6.487,-0.103
6.488,-0.102
6.489,-0.103
6.490,-0.100
6.491,-0.097
6.492,-0.095
6.493,-0.100
6.494,-0.099
6.495,-0.103
6.496,-0.101
6.497,-0.100
6.498,-0.097
6.499,-0.100
6.500,-0.100
6.501,-0.100
6.502,-0.103
6.503,-0.103
6.504,-0.102
6.505,-0.103
6.506,-0.103
6.507,-0.103
6.508,-0.100
6.509,-0.094
6.510,-0.098
6.511,-0.097
6.512,-0.096
6.513,-0.094
6.514,-0.092
6.515,-0.091
6.516,-0.094
6.517,-0.094
6.518,-0.091
6.519,-0.087
6.520,-0.087
6.521,-0.087
6.522,-0.078
6.523,-0.072
6.524,-0.064
6.525,-0.056
6.526,-0.050
6.527,-0.047
6.528,-0.047
6.529,-0.041
6.530,-0.033
6.531,-0.028
6.532,-0.025
6.533,-0.016
6.534,-0.012
6.535,-0.009
6.536,0.000
6.537,0.003
6.538,0.000
6.539,0.003
6.540,0.006
6.541,0.006
6.542,0.007
6.543,0.009
6.544,0.005
6.545,0.003
6.546,0.000
6.547,0.003
6.548,0.009
6.549,0.013
6.550,0.019
6.551,0.025
6.552,0.031
6.553,0.038
6.554,0.043
6.555,0.044
6.556,0.047
6.557,0.056
6.558,0.067
6.559,0.078
6.560,0.078
6.561,0.084
6.562,0.091
6.563,0.094
6.564,0.093
6.565,0.097
6.566,0.097
6.567,0.097
6.568,0.095
6.569,0.097
6.570,0.095
6.571,0.094
6.572,0.095
6.573,0.097
6.574,0.094
6.575,0.091
6.576,0.081
6.577,0.072
6.578,0.061
6.579,0.053
6.580,0.053
6.581,0.050
6.582,0.041
6.583,0.034
6.584,0.034
6.585,0.031
6.586,0.029
6.587,0.031
6.588,0.033
6.589,0.028
6.590,0.030
6.591,0.025
6.592,0.028
6.593,0.025
6.594,0.021
6.595,0.016
6.596,0.002
6.597,-0.006
6.598,-0.009
6.599,-0.019
6.600,-0.031
6.601,-0.037
6.602,-0.049
6.603,-0.050
6.604,-0.056
6.605,-0.059
6.606,-0.069
6.607,-0.069
6.608,-0.069
6.609,-0.069
6.610,-0.069
6.611,-0.072
6.612,-0.075
6.613,-0.078
6.614,-0.081
6.615,-0.084
6.616,-0.086
6.617,-0.087
6.618,-0.089
6.619,-0.087
6.620,-0.092
6.621,-0.094
6.622,-0.103
6.623,-0.103
6.624,-0.106
6.625,-0.106
6.626,-0.106
6.627,-0.109
6.628,-0.108
6.629,-0.109
6.630,-0.109
6.631,-0.109
6.632,-0.111
6.633,-0.109
6.634,-0.111
6.635,-0.112
6.636,-0.114
6.637,-0.119
6.638,-0.122
6.639,-0.125
6.640,-0.125
6.641,-0.125
6.642,-0.125
6.643,-0.125
6.644,-0.126
6.645,-0.128
6.646,-0.129
6.647,-0.128
6.648,-0.128
6.649,-0.131
6.650,-0.131
6.651,-0.131
6.652,-0.130
6.653,-0.128
6.654,-0.125
6.655,-0.128
6.656,-0.131
6.657,-0.131
6.658,-0.127
6.659,-0.125
6.660,-0.123
6.661,-0.125
6.662,-0.127
6.663,-0.128
6.664,-0.129
6.665,-0.128
6.666,-0.129
6.667,-0.137
6.668,-0.141
6.669,-0.141
6.670,-0.142
6.671,-0.147
6.672,-0.157
6.673,-0.169
6.674,-0.181
6.675,-0.191
6.676,-0.203
6.677,-0.212
6.678,-0.222
6.679,-0.222
6.680,-0.209
6.681,-0.187
6.682,-0.161
6.683,-0.125
6.684,-0.094
6.685,-0.056
6.686,-0.017
6.687,0.009
6.688,0.047
6.689,0.084
6.690,0.129
6.691,0.197
6.692,0.273
6.693,0.372
6.694,0.468
6.695,0.563
6.696,0.658
6.697,0.763
6.698,0.879
6.699,0.984
6.700,1.089
6.701,1.169
6.702,1.244
6.703,1.338
6.704,1.425
6.705,1.500
6.706,1.553
6.707,1.572
6.708,1.581
6.709,1.519
6.710,1.464
6.711,1.384
6.712,1.311
6.713,1.216
6.714,1.123
6.715,1.009
6.716,0.880
6.717,0.775
6.718,0.675
6.719,0.594
6.720,0.528
6.721,0.484
6.722,0.448
6.723,0.428
6.724,0.396
6.725,0.369
6.726,0.333
6.727,0.291
6.728,0.247
6.729,0.228
6.730,0.222
6.731,0.206
6.732,0.194
6.733,0.184
6.734,0.172
6.735,0.166
6.736,0.155
6.737,0.144
6.738,0.136
6.739,0.125
6.740,0.114
6.741,0.100
6.742,0.088
6.743,0.069
6.744,0.053
6.745,0.034
6.746,0.023
6.747,0.019
6.748,0.011
6.749,0.003
6.750,-0.005
6.751,-0.012
6.752,-0.019
6.753,-0.025
6.754,-0.033
6.755,-0.034
6.756,-0.037
6.757,-0.050
6.758,-0.049
6.759,-0.050
6.760,-0.051
6.761,-0.056
6.762,-0.059
6.763,-0.062
6.764,-0.067
6.765,-0.066
6.766,-0.072
6.767,-0.072
6.768,-0.075
6.769,-0.075
6.770,-0.072
6.771,-0.072
6.772,-0.075
6.773,-0.075
6.774,-0.078
6.775,-0.081
6.776,-0.082
6.777,-0.084
6.778,-0.086
6.779,-0.087
6.780,-0.087
6.781,-0.084
6.782,-0.083
6.783,-0.084
6.784,-0.086
6.785,-0.084
6.786,-0.084
6.787,-0.084
6.788,-0.086
6.789,-0.087
6.790,-0.087
6.791,-0.087
6.792,-0.087
6.793,-0.087
6.794,-0.084
6.795,-0.084
6.796,-0.084
6.797,-0.081
6.798,-0.080
6.799,-0.078
6.800,-0.078
6.801,-0.078
6.802,-0.077
6.803,-0.072
6.804,-0.072
6.805,-0.072
6.806,-0.076
6.807,-0.075
6.808,-0.076
6.809,-0.075
6.810,-0.074
6.811,-0.072
6.812,-0.073
6.813,-0.072
6.814,-0.071
6.815,-0.066
6.816,-0.067
6.817,-0.069
6.818,-0.073
6.819,-0.072
6.820,-0.071
6.821,-0.066
6.822,-0.064
6.823,-0.059
6.824,-0.059
6.825,-0.059
6.826,-0.059
6.827,-0.062
6.828,-0.061
6.829,-0.062
6.830,-0.061
6.831,-0.056
6.832,-0.057
6.833,-0.059
6.834,-0.061
6.835,-0.062
6.836,-0.061
6.837,-0.056
6.838,-0.059
6.839,-0.056
6.840,-0.054
6.841,-0.056
6.842,-0.053
6.843,-0.050
6.844,-0.051
6.845,-0.053
6.846,-0.050
6.847,-0.050
6.848,-0.047
6.849,-0.044
6.850,-0.044
6.851,-0.044
6.852,-0.042
6.853,-0.041
6.854,-0.041
6.855,-0.041
6.856,-0.044
6.857,-0.047
6.858,-0.041
6.859,-0.037
6.860,-0.041
6.861,-0.037
6.862,-0.034
6.863,-0.034
6.864,-0.028
6.865,-0.028
6.866,-0.032
6.867,-0.034
6.868,-0.032
6.869,-0.034
6.870,-0.031
6.871,-0.025
6.872,-0.024
6.873,-0.022
6.874,-0.022
6.875,-0.022
6.876,-0.019
6.877,-0.019
6.878,-0.022
6.879,-0.022
6.880,-0.021
6.881,-0.016
6.882,-0.014
6.883,-0.016
6.884,-0.011
6.885,-0.006
6.886,-0.003
6.887,0.000
6.888,0.003
6.889,0.003
6.890,0.004
6.891,0.013
6.892,0.016
6.893,0.022
6.894,0.022
6.895,0.022
6.896,0.025
6.897,0.025
6.898,0.024
6.899,0.028
6.900,0.028
6.901,0.031
6.902,0.039
6.903,0.047
6.904,0.047
6.905,0.050
6.906,0.054
6.907,0.059
6.908,0.066
6.909,0.072
6.910,0.078
6.911,0.078
6.912,0.084
6.913,0.088
6.914,0.100
6.915,0.103
6.916,0.108
6.917,0.109
6.918,0.114
6.919,0.116
6.920,0.123
6.921,0.131
6.922,0.136
6.923,0.141
6.924,0.148
6.925,0.156
6.926,0.163
6.927,0.169
6.928,0.175
6.929,0.178
6.930,0.184
6.931,0.191
6.932,0.197
6.933,0.203
6.934,0.205
6.935,0.209
6.936,0.219
6.937,0.225
6.938,0.228
6.939,0.231
6.940,0.236
6.941,0.244
6.942,0.254
6.943,0.259
6.944,0.263
6.945,0.269
6.946,0.271
6.947,0.275
6.948,0.281
6.949,0.288
6.950,0.295
6.951,0.300
6.952,0.302
6.953,0.306
6.954,0.311
6.955,0.316
6.956,0.319
6.957,0.319
6.958,0.323
6.959,0.331
6.960,0.333
6.961,0.334
6.962,0.338
6.963,0.338
6.964,0.342
6.965,0.341
6.966,0.341
6.967,0.341
6.968,0.339
6.969,0.341
6.970,0.338
6.971,0.338
6.972,0.338
6.973,0.334
6.974,0.333
6.975,0.331
6.976,0.325
6.977,0.319
6.978,0.316
6.979,0.306
6.980,0.300
6.981,0.300
6.982,0.289
6.983,0.281
6.984,0.269
6.985,0.256
6.986,0.254
6.987,0.247
6.988,0.238
6.989,0.225
6.990,0.219
6.991,0.212
6.992,0.203
6.993,0.194
6.994,0.188
6.995,0.175
6.996,0.172
6.997,0.166
6.998,0.158
6.999,0.147
7.000,0.134
7.001,0.128
7.002,0.123
7.003,0.119
7.004,0.109
7.005,0.097
7.006,0.094
7.007,0.088
7.008,0.083
7.009,0.078
7.010,0.072
7.011,0.069
7.012,0.059
7.013,0.053
7.014,0.051
7.015,0.047
7.016,0.041
7.017,0.034
7.018,0.025
7.019,0.019
7.020,0.016
7.021,0.013
7.022,0.006
7.023,0.003
7.024,0.000
7.025,0.000
7.026,0.001
7.027,-0.003
7.028,-0.009
7.029,-0.012
7.030,-0.011
7.031,-0.012
7.032,-0.020
7.033,-0.022
7.034,-0.028
7.035,-0.031
7.036,-0.030
7.037,-0.031
7.038,-0.034
7.039,-0.037
7.040,-0.042
7.041,-0.047
7.042,-0.046
7.043,-0.047
7.044,-0.050
7.045,-0.050
7.046,-0.049
7.047,-0.047
7.048,-0.046
7.049,-0.047
7.050,-0.051
7.051,-0.053
7.052,-0.054
7.053,-0.056
7.054,-0.056
7.055,-0.059
7.056,-0.057
7.057,-0.062
7.058,-0.061
7.059,-0.059
7.060,-0.062
7.061,-0.062
7.062,-0.062
7.063,-0.062
7.064,-0.059
7.065,-0.059
7.066,-0.059
7.067,-0.062
7.068,-0.062
7.069,-0.062
7.070,-0.062
7.071,-0.062
7.072,-0.062
7.073,-0.062
7.074,-0.061
7.075,-0.059
7.076,-0.062
7.077,-0.062
7.078,-0.061
7.079,-0.066
7.080,-0.067
7.081,-0.066
7.082,-0.066
7.083,-0.066
7.084,-0.062
7.085,-0.062
7.086,-0.061
7.087,-0.062
7.088,-0.062
7.089,-0.062
7.090,-0.062
7.091,-0.062
7.092,-0.061
7.093,-0.056
7.094,-0.056
7.095,-0.059
7.096,-0.061
7.097,-0.062
7.098,-0.056
7.099,-0.056
7.100,-0.056
7.101,-0.056
7.102,-0.056
7.103,-0.056
7.104,-0.057
7.105,-0.059
7.106,-0.061
7.107,-0.059
7.108,-0.059
7.109,-0.053
7.110,-0.053
7.111,-0.056
7.112,-0.059
7.113,-0.062
7.114,-0.059
7.115,-0.056
7.116,-0.056
7.117,-0.059
7.118,-0.061
7.119,-0.062
7.120,-0.061
7.121,-0.056
7.122,-0.056
7.123,-0.056
7.124,-0.055
7.125,-0.053
7.126,-0.053
7.127,-0.053
7.128,-0.053
7.129,-0.053
7.130,-0.050
7.131,-0.050
7.132,-0.052
7.133,-0.050
7.134,-0.056
7.135,-0.059
7.136,-0.059
7.137,-0.056
7.138,-0.058
7.139,-0.053
7.140,-0.056
7.141,-0.056
7.142,-0.056
7.143,-0.056
7.144,-0.059
7.145,-0.059
7.146,-0.059
7.147,-0.059
7.148,-0.058
7.149,-0.056
7.150,-0.057
7.151,-0.059
7.152,-0.056
7.153,-0.056
7.154,-0.056
7.155,-0.056
7.156,-0.059
7.157,-0.059
7.158,-0.056
7.159,-0.059
7.160,-0.058
7.161,-0.056
7.162,-0.057
7.163,-0.059
7.164,-0.059
7.165,-0.062
7.166,-0.061
7.167,-0.062
7.168,-0.062
7.169,-0.062
7.170,-0.062
7.171,-0.062
7.172,-0.061
7.173,-0.062
7.174,-0.062
7.175,-0.062
7.176,-0.064
7.177,-0.066
7.178,-0.069
7.179,-0.066
7.180,-0.062
7.181,-0.059
7.182,-0.062
7.183,-0.066
7.184,-0.064
7.185,-0.069
7.186,-0.072
7.187,-0.072
7.188,-0.072
7.189,-0.072
7.190,-0.074
7.191,-0.072
7.192,-0.073
7.193,-0.072
7.194,-0.075
7.195,-0.075
7.196,-0.074
7.197,-0.072
7.198,-0.067
7.199,-0.069
7.200,-0.069
7.201,-0.069
7.202,-0.067
7.203,-0.066
7.204,-0.070
7.205,-0.072
7.206,-0.075
7.207,-0.075
7.208,-0.073
7.209,-0.075
7.210,-0.074
7.211,-0.072
7.212,-0.076
7.213,-0.075
7.214,-0.075
7.215,-0.075
7.216,-0.076
7.217,-0.078
7.218,-0.080
7.219,-0.078
7.220,-0.077
7.221,-0.075
7.222,-0.078
7.223,-0.078
7.224,-0.076
7.225,-0.078
7.226,-0.079
7.227,-0.084
7.228,-0.081
7.229,-0.081
7.230,-0.077
7.231,-0.075
7.232,-0.078
7.233,-0.078
7.234,-0.079
7.235,-0.081
7.236,-0.081
7.237,-0.081
7.238,-0.081
7.239,-0.084
7.240,-0.082
7.241,-0.084
7.242,-0.083
7.243,-0.081
7.244,-0.078
7.245,-0.081
7.246,-0.082
7.247,-0.081
7.248,-0.084
7.249,-0.084
7.250,-0.084
7.251,-0.087
7.252,-0.086
7.253,-0.081
7.254,-0.081
7.255,-0.081
7.256,-0.081
7.257,-0.081
7.258,-0.086
7.259,-0.084
7.260,-0.086
7.261,-0.087
7.262,-0.086
7.263,-0.087
7.264,-0.087
7.265,-0.087
7.266,-0.087
7.267,-0.087
7.268,-0.086
7.269,-0.084
7.270,-0.084
7.271,-0.084
7.272,-0.086
7.273,-0.087
7.274,-0.086
7.275,-0.084
7.276,-0.086
7.277,-0.084
7.278,-0.084
7.279,-0.084
7.280,-0.080
7.281,-0.081
7.282,-0.078
7.283,-0.081
7.284,-0.082
7.285,-0.084
7.286,-0.082
7.287,-0.087
7.288,-0.087
7.289,-0.087
7.290,-0.089
7.291,-0.087
7.292,-0.089
7.293,-0.084
7.294,-0.082
7.295,-0.084
7.296,-0.080
7.297,-0.075
7.298,-0.075
7.299,-0.075
7.300,-0.079
7.301,-0.081
7.302,-0.084
7.303,-0.081
7.304,-0.080
7.305,-0.081
7.306,-0.081
7.307,-0.081
7.308,-0.081
7.309,-0.081
7.310,-0.084
7.311,-0.087
7.312,-0.084
7.313,-0.081
7.314,-0.075
7.315,-0.075
7.316,-0.078
7.317,-0.081
7.318,-0.086
7.319,-0.084
7.320,-0.083
7.321,-0.084
7.322,-0.084
7.323,-0.087
7.324,-0.084
7.325,-0.084
7.326,-0.080
7.327,-0.081
7.328,-0.087
7.329,-0.087
7.330,-0.091
7.331,-0.087
7.332,-0.084
7.333,-0.084
7.334,-0.086
7.335,-0.084
7.336,-0.086
7.337,-0.087
7.338,-0.081
7.339,-0.084
7.340,-0.087
7.341,-0.087
7.342,-0.087
7.343,-0.087
7.344,-0.086
7.345,-0.084
7.346,-0.084
7.347,-0.081
7.348,-0.078
7.349,-0.078
7.350,-0.079
7.351,-0.081
7.352,-0.081
7.353,-0.081
7.354,-0.082
7.355,-0.084
7.356,-0.086
7.357,-0.084
7.358,-0.082
7.359,-0.081
7.360,-0.084
7.361,-0.084
7.362,-0.081
7.363,-0.081
7.364,-0.078
7.365,-0.081
7.366,-0.084
7.367,-0.087
7.368,-0.086
7.369,-0.081
7.370,-0.080
7.371,-0.078
7.372,-0.077
7.373,-0.075
7.374,-0.078
7.375,-0.078
7.376,-0.078
7.377,-0.075
7.378,-0.079
7.379,-0.081
7.380,-0.082
7.381,-0.081
7.382,-0.080
7.383,-0.078
7.384,-0.078
7.385,-0.081
7.386,-0.082
7.387,-0.084
7.388,-0.083
7.389,-0.087
7.390,-0.089
7.391,-0.087
7.392,-0.087
7.393,-0.087
7.394,-0.089
7.395,-0.087
7.396,-0.087
7.397,-0.087
7.398,-0.086
7.399,-0.087
7.400,-0.089
7.401,-0.091
7.402,-0.091
7.403,-0.091
7.404,-0.086
7.405,-0.087
7.406,-0.086
7.407,-0.087
7.408,-0.083
7.409,-0.078
7.410,-0.083
7.411,-0.087
7.412,-0.087
7.413,-0.087
7.414,-0.087
7.415,-0.087
7.416,-0.087
7.417,-0.087
7.418,-0.091
7.419,-0.087
7.420,-0.089
7.421,-0.087
7.422,-0.091
7.423,-0.091
7.424,-0.086
7.425,-0.091
7.426,-0.086
7.427,-0.087
7.428,-0.089
7.429,-0.091
7.430,-0.087
7.431,-0.087
7.432,-0.087
7.433,-0.087
7.434,-0.089
7.435,-0.091
7.436,-0.094
7.437,-0.094
7.438,-0.092
7.439,-0.091
7.440,-0.089
7.441,-0.084
7.442,-0.087
7.443,-0.087
7.444,-0.083
7.445,-0.081
7.446,-0.081
7.447,-0.081
7.448,-0.082
7.449,-0.084
7.450,-0.084
7.451,-0.087
7.452,-0.089
7.453,-0.087
7.454,-0.086
7.455,-0.087
7.456,-0.089
7.457,-0.091
7.458,-0.087
7.459,-0.087
7.460,-0.086
7.461,-0.087
7.462,-0.086
7.463,-0.084
7.464,-0.084
7.465,-0.084
7.466,-0.083
7.467,-0.081
7.468,-0.086
7.469,-0.084
7.470,-0.084
7.471,-0.084
7.472,-0.084
7.473,-0.084
7.474,-0.083
7.475,-0.081
7.476,-0.080
7.477,-0.075
7.478,-0.078
7.479,-0.081
7.480,-0.084
7.481,-0.084
7.482,-0.086
7.483,-0.087
7.484,-0.087
7.485,-0.087
7.486,-0.084
7.487,-0.081
7.488,-0.078
7.489,-0.078
7.490,-0.081
7.491,-0.081
7.492,-0.082
7.493,-0.084
7.494,-0.086
7.495,-0.084
7.496,-0.086
7.497,-0.084
7.498,-0.084
7.499,-0.084
7.500,-0.084
7.501,-0.084
7.502,-0.084
7.503,-0.081
7.504,-0.081
7.505,-0.084
7.506,-0.087
7.507,-0.087
7.508,-0.084
7.509,-0.081
7.510,-0.081
7.511,-0.081
7.512,-0.086
7.513,-0.087
7.514,-0.083
7.515,-0.078
7.516,-0.081
7.517,-0.081
7.518,-0.081
7.519,-0.081
7.520,-0.078
7.521,-0.075
7.522,-0.079
7.523,-0.081
7.524,-0.081
7.525,-0.081
7.526,-0.079
7.527,-0.084
7.528,-0.086
7.529,-0.087
7.530,-0.083
7.531,-0.081
7.532,-0.081
7.533,-0.078
7.534,-0.082
7.535,-0.081
7.536,-0.083
7.537,-0.081
7.538,-0.080
7.539,-0.081
7.540,-0.074
7.541,-0.075
7.542,-0.078
7.543,-0.078
7.544,-0.076
7.545,-0.078
7.546,-0.075
7.547,-0.072
7.548,-0.074
7.549,-0.075
7.550,-0.075
7.551,-0.081
7.552,-0.080
7.553,-0.078
7.554,-0.077
7.555,-0.078
7.556,-0.079
7.557,-0.078
7.558,-0.074
7.559,-0.069
7.560,-0.070
7.561,-0.072
7.562,-0.072
7.563,-0.072
7.564,-0.075
7.565,-0.078
7.566,-0.077
7.567,-0.075
7.568,-0.076
7.569,-0.075
7.570,-0.074
7.571,-0.075
7.572,-0.075
7.573,-0.075
7.574,-0.076
7.575,-0.075
7.576,-0.074
7.577,-0.072
7.578,-0.075
7.579,-0.075
7.580,-0.075
7.581,-0.072
7.582,-0.074
7.583,-0.072
7.584,-0.079
7.585,-0.078
7.586,-0.076
7.587,-0.075
7.588,-0.078
7.589,-0.078
7.590,-0.075
7.591,-0.072
7.592,-0.069
7.593,-0.069
7.594,-0.075
7.595,-0.078
7.596,-0.079
7.597,-0.081
7.598,-0.075
7.599,-0.075
7.600,-0.072
7.601,-0.072
7.602,-0.072
7.603,-0.069
7.604,-0.066
7.605,-0.066
7.606,-0.064
7.607,-0.066
7.608,-0.064
7.609,-0.059
7.610,-0.057
7.611,-0.053
7.612,-0.050
7.613,-0.044
7.614,-0.037
7.615,-0.031
7.616,-0.025
7.617,-0.022
7.618,-0.017
7.619,-0.012
7.620,-0.008
7.621,-0.003
7.622,0.006
7.623,0.013
7.624,0.018
7.625,0.022
7.626,0.023
7.627,0.022
7.628,0.024
7.629,0.025
7.630,0.025
7.631,0.025
7.632,0.026
7.633,0.025
7.634,0.024
7.635,0.022
7.636,0.029
7.637,0.038
7.638,0.042
7.639,0.050
7.640,0.056
7.641,0.063
7.642,0.069
7.643,0.075
7.644,0.077
7.645,0.075
7.646,0.080
7.647,0.088
7.648,0.097
7.649,0.100
7.650,0.108
7.651,0.112
7.652,0.117
7.653,0.119
7.654,0.124
7.655,0.122
7.656,0.123
7.657,0.122
7.658,0.125
7.659,0.125
7.660,0.118
7.661,0.112
7.662,0.112
7.663,0.109
7.664,0.111
7.665,0.109
7.666,0.102
7.667,0.091
7.668,0.083
7.669,0.078
7.670,0.073
7.671,0.066
7.672,0.061
7.673,0.063
7.674,0.059
7.675,0.056
7.676,0.056
7.677,0.056
7.678,0.049
7.679,0.050
7.680,0.047
7.681,0.047
7.682,0.039
7.683,0.034
7.684,0.031
7.685,0.019
7.686,0.011
7.687,0.006
7.688,-0.003
7.689,-0.016
7.690,-0.019
7.691,-0.028
7.692,-0.032
7.693,-0.041
7.694,-0.042
7.695,-0.050
7.696,-0.054
7.697,-0.059
7.698,-0.058
7.699,-0.056
7.700,-0.059
7.701,-0.062
7.702,-0.066
7.703,-0.066
7.704,-0.064
7.705,-0.066
7.706,-0.069
7.707,-0.072
7.708,-0.072
7.709,-0.075
7.710,-0.074
7.711,-0.078
7.712,-0.075
7.713,-0.078
7.714,-0.079
7.715,-0.081
7.716,-0.084
7.717,-0.084
7.718,-0.087
7.719,-0.087
7.720,-0.089
7.721,-0.094
7.722,-0.094
7.723,-0.097
7.724,-0.100
7.725,-0.100
7.726,-0.102
7.727,-0.100
7.728,-0.100
7.729,-0.103
7.730,-0.106
7.731,-0.106
7.732,-0.107
7.733,-0.109
7.734,-0.109
7.735,-0.109
7.736,-0.106
7.737,-0.106
7.738,-0.109
7.739,-0.109
7.740,-0.109
7.741,-0.109
7.742,-0.109
7.743,-0.106
7.744,-0.108
7.745,-0.109
7.746,-0.109
7.747,-0.106
7.748,-0.107
7.749,-0.106
7.750,-0.107
7.751,-0.112
7.752,-0.116
7.753,-0.116
7.754,-0.112
7.755,-0.112
7.756,-0.120
7.757,-0.125
7.758,-0.126
7.759,-0.131
7.760,-0.141
7.761,-0.153
7.762,-0.156
7.763,-0.166
7.764,-0.179
7.765,-0.194
7.766,-0.204
7.767,-0.212
7.768,-0.209
7.769,-0.197
7.770,-0.174
7.771,-0.147
7.772,-0.108
7.773,-0.072
7.774,-0.039
7.775,-0.003
7.776,0.026
7.777,0.063
7.778,0.100
7.779,0.147
7.780,0.219
7.781,0.300
7.782,0.396
7.783,0.491
7.784,0.589
7.785,0.691
7.786,0.800
7.787,0.913
7.788,1.005
7.789,1.097
7.790,1.183
7.791,1.263
7.792,1.347
7.793,1.431
7.794,1.505
7.795,1.563
7.796,1.574
7.797,1.578
7.798,1.519
7.799,1.463
7.800,1.389
7.801,1.316
7.802,1.213
7.803,1.106
7.804,0.992
7.805,0.875
7.806,0.774
7.807,0.669
7.808,0.595
7.809,0.534
7.810,0.486
7.811,0.444
7.812,0.419
7.813,0.394
7.814,0.364
7.815,0.328
7.816,0.298
7.817,0.266
7.818,0.250
7.819,0.238
7.820,0.216
7.821,0.197
7.822,0.189
7.823,0.181
7.824,0.175
7.825,0.166
7.826,0.152
7.827,0.141
7.828,0.128
7.829,0.116
7.830,0.106
7.831,0.097
7.832,0.078
7.833,0.066
7.834,0.051
7.835,0.041
7.836,0.034
7.837,0.025
7.838,0.014
7.839,0.003
7.840,-0.005
7.841,-0.009
7.842,-0.012
7.843,-0.019
7.844,-0.026
7.845,-0.031
7.846,-0.037
7.847,-0.034
7.848,-0.037
7.849,-0.037
7.850,-0.042
7.851,-0.047
7.852,-0.049
7.853,-0.053
7.854,-0.056
7.855,-0.066
7.856,-0.066
7.857,-0.069
7.858,-0.070
7.859,-0.072
7.860,-0.078
7.861,-0.084
7.862,-0.084
7.863,-0.084
7.864,-0.084
7.865,-0.084
7.866,-0.084
7.867,-0.084
7.868,-0.084
7.869,-0.084
7.870,-0.084
7.871,-0.087
7.872,-0.087
7.873,-0.087
7.874,-0.086
7.875,-0.084
7.876,-0.084
7.877,-0.084
7.878,-0.084
7.879,-0.084
7.880,-0.080
7.881,-0.075
7.882,-0.078
7.883,-0.078
7.884,-0.079
7.885,-0.081
7.886,-0.079
7.887,-0.081
7.888,-0.081
7.889,-0.081
7.890,-0.080
7.891,-0.078
7.892,-0.076
7.893,-0.078
7.894,-0.077
7.895,-0.078
7.896,-0.076
7.897,-0.078
7.898,-0.076
7.899,-0.078
7.900,-0.078
7.901,-0.078
7.902,-0.072
7.903,-0.069
7.904,-0.067
7.905,-0.069
7.906,-0.069
7.907,-0.072
7.908,-0.069
7.909,-0.069
7.910,-0.064
7.911,-0.066
7.912,-0.067
7.913,-0.069
7.914,-0.070
7.915,-0.069
7.916,-0.070
7.917,-0.069
7.918,-0.066
7.919,-0.062
7.920,-0.059
7.921,-0.059
7.922,-0.061
7.923,-0.062
7.924,-0.061
7.925,-0.059
7.926,-0.055
7.927,-0.056
7.928,-0.053
7.929,-0.050
7.930,-0.050
7.931,-0.050
7.932,-0.050
7.933,-0.050
7.934,-0.053
7.935,-0.053
7.936,-0.052
7.937,-0.050
7.938,-0.050
7.939,-0.050
7.940,-0.053
7.941,-0.053
7.942,-0.049
7.943,-0.047
7.944,-0.047
7.945,-0.047
7.946,-0.047
7.947,-0.044
7.948,-0.044
7.949,-0.047
7.950,-0.044
7.951,-0.041
7.952,-0.039
7.953,-0.034
7.954,-0.036
7.955,-0.034
7.956,-0.034
7.957,-0.034
7.958,-0.034
7.959,-0.034
7.960,-0.032
7.961,-0.034
7.962,-0.034
7.963,-0.031
7.964,-0.025
7.965,-0.019
7.966,-0.020
7.967,-0.022
7.968,-0.017
7.969,-0.016
7.970,-0.014
7.971,-0.012
7.972,-0.014
7.973,-0.012
7.974,-0.005
7.975,0.000
7.976,0.000
7.977,0.006
7.978,0.008
7.979,0.006
7.980,0.011
7.981,0.009
7.982,0.009
7.983,0.009
7.984,0.014
7.985,0.019
7.986,0.022
7.987,0.025
7.988,0.033
7.989,0.038
7.990,0.043
7.991,0.044
7.992,0.048
7.993,0.053
7.994,0.058
7.995,0.059
7.996,0.063
7.997,0.069
7.998,0.076
7.999,0.084
8.000,0.083
8.001,0.088
8.002,0.091
8.003,0.100
8.004,0.099
8.005,0.103
8.006,0.107
8.007,0.116
8.008,0.119
8.009,0.125
8.010,0.130
8.011,0.134
8.012,0.145
8.013,0.156
8.014,0.161
8.015,0.166
8.016,0.169
8.017,0.172
8.018,0.176
8.019,0.184
8.020,0.191
8.021,0.197
8.022,0.206
8.023,0.212
8.024,0.219
8.025,0.228
8.026,0.230
8.027,0.231
8.028,0.236
8.029,0.238
8.030,0.244
8.031,0.253
8.032,0.259
8.033,0.266
8.034,0.271
8.035,0.272
8.036,0.281
8.037,0.291
8.038,0.296
8.039,0.300
8.040,0.300
8.041,0.300
8.042,0.308
8.043,0.312
8.044,0.314
8.045,0.316
8.046,0.317
8.047,0.322
8.048,0.327
8.049,0.328
8.050,0.328
8.051,0.328
8.052,0.331
8.053,0.338
8.054,0.338
8.055,0.341
8.056,0.342
8.057,0.341
8.058,0.342
8.059,0.341
8.060,0.338
8.061,0.334
8.062,0.330
8.063,0.325
8.064,0.323
8.065,0.319
8.066,0.311
8.067,0.306
8.068,0.298
8.069,0.291
8.070,0.289
8.071,0.281
8.072,0.276
8.073,0.269
8.074,0.256
8.075,0.250
8.076,0.239
8.077,0.228
8.078,0.216
8.079,0.209
8.080,0.202
8.081,0.191
8.082,0.181
8.083,0.175
8.084,0.163
8.085,0.156
8.086,0.148
8.087,0.144
8.088,0.139
8.089,0.131
8.090,0.125
8.091,0.119
8.092,0.109
8.093,0.100
8.094,0.086
8.095,0.078
8.096,0.073
8.097,0.069
8.098,0.061
8.099,0.053
8.100,0.051
8.101,0.044
8.102,0.039
8.103,0.038
8.104,0.031
8.105,0.025
8.106,0.018
8.107,0.009
8.108,0.009
8.109,0.009
8.110,0.005
8.111,-0.003
8.112,-0.006
8.113,-0.009
8.114,-0.009
8.115,-0.009
8.116,-0.017
8.117,-0.025
8.118,-0.031
8.119,-0.034
8.120,-0.037
8.121,-0.044
8.122,-0.041
8.123,-0.044
8.124,-0.048
8.125,-0.050
8.126,-0.053
8.127,-0.053
8.128,-0.054
8.129,-0.059
8.130,-0.061
8.131,-0.059
8.132,-0.064
8.133,-0.069
8.134,-0.072
8.135,-0.075
8.136,-0.075
8.137,-0.075
8.138,-0.077
8.139,-0.078
8.140,-0.078
8.141,-0.078
8.142,-0.077
8.143,-0.075
8.144,-0.077
8.145,-0.072
8.146,-0.074
8.147,-0.072
8.148,-0.075
8.149,-0.081
8.150,-0.081
8.151,-0.081
8.152,-0.082
8.153,-0.081
8.154,-0.081
8.155,-0.081
8.156,-0.084
8.157,-0.084
8.158,-0.084
8.159,-0.084
8.160,-0.084
8.161,-0.084
8.162,-0.084
8.163,-0.084
8.164,-0.083
8.165,-0.084
8.166,-0.084
8.167,-0.081
8.168,-0.086
8.169,-0.087
8.170,-0.086
8.171,-0.087
8.172,-0.086
8.173,-0.084
8.174,-0.089
8.175,-0.087
8.176,-0.089
8.177,-0.091
8.178,-0.089
8.179,-0.087
8.180,-0.084
8.181,-0.081
8.182,-0.079
8.183,-0.081
8.184,-0.083
8.185,-0.081
8.186,-0.080
8.187,-0.075
8.188,-0.078
8.189,-0.078
8.190,-0.078
8.191,-0.078
8.192,-0.078
8.193,-0.078
8.194,-0.078
8.195,-0.078
8.196,-0.076
8.197,-0.081
8.198,-0.079
8.199,-0.081
8.200,-0.084
8.201,-0.084
8.202,-0.084
8.203,-0.081
8.204,-0.079
8.205,-0.081
8.206,-0.084
8.207,-0.084
8.208,-0.084
8.209,-0.084
8.210,-0.082
8.211,-0.084
8.212,-0.083
8.213,-0.081
8.214,-0.080
8.215,-0.078
8.216,-0.079
8.217,-0.081
8.218,-0.081
8.219,-0.078
8.220,-0.077
8.221,-0.078
8.222,-0.079
8.223,-0.084
8.224,-0.084
8.225,-0.084
8.226,-0.080
8.227,-0.081
8.228,-0.078
8.229,-0.081
8.230,-0.082
8.231,-0.084
8.232,-0.083
8.233,-0.084
8.234,-0.084
8.235,-0.084
8.236,-0.084
8.237,-0.084
8.238,-0.086
8.239,-0.087
8.240,-0.089
8.241,-0.087
8.242,-0.084
8.243,-0.081
8.244,-0.082
8.245,-0.087
8.246,-0.087
8.247,-0.084
8.248,-0.086
8.249,-0.084
8.250,-0.086
8.251,-0.087
8.252,-0.087
8.253,-0.087
8.254,-0.092
8.255,-0.091
8.256,-0.091
8.257,-0.091
8.258,-0.089
8.259,-0.087
8.260,-0.087
8.261,-0.087
8.262,-0.091
8.263,-0.091
8.264,-0.091
8.265,-0.091
8.266,-0.091
8.267,-0.094
8.268,-0.091
8.269,-0.091
8.270,-0.092
8.271,-0.094
8.272,-0.094
8.273,-0.094
8.274,-0.097
8.275,-0.094
8.276,-0.092
8.277,-0.094
8.278,-0.092
8.279,-0.094
8.280,-0.091
8.281,-0.087
8.282,-0.084
8.283,-0.087
8.284,-0.089
8.285,-0.091
8.286,-0.092
8.287,-0.091
8.288,-0.092
8.289,-0.091
8.290,-0.091
8.291,-0.091
8.292,-0.089
8.293,-0.091
8.294,-0.094
8.295,-0.100
8.296,-0.100
8.297,-0.097
8.298,-0.097
8.299,-0.097
8.300,-0.097
8.301,-0.100
8.302,-0.100
8.303,-0.103
8.304,-0.104
8.305,-0.106
8.306,-0.105
8.307,-0.106
8.308,-0.105
8.309,-0.103
8.310,-0.102
8.311,-0.103
8.312,-0.106
8.313,-0.106
8.314,-0.105
8.315,-0.100
8.316,-0.100
8.317,-0.100
8.318,-0.104
8.319,-0.103
8.320,-0.102
8.321,-0.103
8.322,-0.106
8.323,-0.109
8.324,-0.108
8.325,-0.106
8.326,-0.105
8.327,-0.103
8.328,-0.106
8.329,-0.103
8.330,-0.103
8.331,-0.103
8.332,-0.103
8.333,-0.100
8.334,-0.104
8.335,-0.106
8.336,-0.102
8.337,-0.103
8.338,-0.103
8.339,-0.103
8.340,-0.106
8.341,-0.106
8.342,-0.104
8.343,-0.106
8.344,-0.106
8.345,-0.106
8.346,-0.106
8.347,-0.109
8.348,-0.106
8.349,-0.106
8.350,-0.106
8.351,-0.106
8.352,-0.106
8.353,-0.103
8.354,-0.103
8.355,-0.103
8.356,-0.103
8.357,-0.103
8.358,-0.104
8.359,-0.106
8.360,-0.105
8.361,-0.103
8.362,-0.104
8.363,-0.106
8.364,-0.106
8.365,-0.109
8.366,-0.109
8.367,-0.109
8.368,-0.109
8.369,-0.106
8.370,-0.109
8.371,-0.106
8.372,-0.109
8.373,-0.109
8.374,-0.111
8.375,-0.109
8.376,-0.111
8.377,-0.109
8.378,-0.108
8.379,-0.109
8.380,-0.109
8.381,-0.112
8.382,-0.112
8.383,-0.112
8.384,-0.112
8.385,-0.112
8.386,-0.111
8.387,-0.109
8.388,-0.108
8.389,-0.109
8.390,-0.109
8.391,-0.109
8.392,-0.104
8.393,-0.106
8.394,-0.109
8.395,-0.109
8.396,-0.111
8.397,-0.112
8.398,-0.112
8.399,-0.116
8.400,-0.119
8.401,-0.119
8.402,-0.119
8.403,-0.112
8.404,-0.111
8.405,-0.109
8.406,-0.109
8.407,-0.112
8.408,-0.109
8.409,-0.109
8.410,-0.111
8.411,-0.109
8.412,-0.112
8.413,-0.109
8.414,-0.109
8.415,-0.106
8.416,-0.109
8.417,-0.112
8.418,-0.109
8.419,-0.112
8.420,-0.111
8.421,-0.109
8.422,-0.106
8.423,-0.106
8.424,-0.105
8.425,-0.103
8.426,-0.106
8.427,-0.103
8.428,-0.106
8.429,-0.109
8.430,-0.109
8.431,-0.109
8.432,-0.112
8.433,-0.116
8.434,-0.114
8.435,-0.116
8.436,-0.114
8.437,-0.109
8.438,-0.109
8.439,-0.109
8.440,-0.111
8.441,-0.112
8.442,-0.111
8.443,-0.109
8.444,-0.109
8.445,-0.112
8.446,-0.112
8.447,-0.109
8.448,-0.106
8.449,-0.109
8.450,-0.111
8.451,-0.112
8.452,-0.116
8.453,-0.112
8.454,-0.116
8.455,-0.116
8.456,-0.114
8.457,-0.112
8.458,-0.109
8.459,-0.109
8.460,-0.109
8.461,-0.109
8.462,-0.109
8.463,-0.112
8.464,-0.112
8.465,-0.112
8.466,-0.108
8.467,-0.109
8.468,-0.111
8.469,-0.112
8.470,-0.111
8.471,-0.112
8.472,-0.111
8.473,-0.109
8.474,-0.112
8.475,-0.112
8.476,-0.114
8.477,-0.116
8.478,-0.122
8.479,-0.122
8.480,-0.120
8.481,-0.122
8.482,-0.122
8.483,-0.125
8.484,-0.125
8.485,-0.125
8.486,-0.125
8.487,-0.122
8.488,-0.122
8.489,-0.122
8.490,-0.121
8.491,-0.119
8.492,-0.120
8.493,-0.119
8.494,-0.123
8.495,-0.122
8.496,-0.117
8.497,-0.112
8.498,-0.114
8.499,-0.116
8.500,-0.120
8.501,-0.119
8.502,-0.117
8.503,-0.119
8.504,-0.119
8.505,-0.119
8.506,-0.119
8.507,-0.119
8.508,-0.112
8.509,-0.112
8.510,-0.116
8.511,-0.119
8.512,-0.119
8.513,-0.119
8.514,-0.117
8.515,-0.116
8.516,-0.116
8.517,-0.119
8.518,-0.121
8.519,-0.122
8.520,-0.123
8.521,-0.122
8.522,-0.116
8.523,-0.112
8.524,-0.111
8.525,-0.112
8.526,-0.114
8.527,-0.112
8.528,-0.109
8.529,-0.112
8.530,-0.111
8.531,-0.109
8.532,-0.111
8.533,-0.112
8.534,-0.116
8.535,-0.122
8.536,-0.122
8.537,-0.122
8.538,-0.123
8.539,-0.122
8.540,-0.124
8.541,-0.122
8.542,-0.123
8.543,-0.122
8.544,-0.123
8.545,-0.125
8.546,-0.116
8.547,-0.112
8.548,-0.109
8.549,-0.112
8.550,-0.117
8.551,-0.122
8.552,-0.128
8.553,-0.125
8.554,-0.127
8.555,-0.128
8.556,-0.128
8.557,-0.125
8.558,-0.121
8.559,-0.116
8.560,-0.116
8.561,-0.119
8.562,-0.123
8.563,-0.119
8.564,-0.119
8.565,-0.119
8.566,-0.122
8.567,-0.125
8.568,-0.125
8.569,-0.122
8.570,-0.119
8.571,-0.119
8.572,-0.120
8.573,-0.122
8.574,-0.122
8.575,-0.122
8.576,-0.122
8.577,-0.122
8.578,-0.122
8.579,-0.122
8.580,-0.122
8.581,-0.122
8.582,-0.119
8.583,-0.119
8.584,-0.122
8.585,-0.122
8.586,-0.122
8.587,-0.122
8.588,-0.120
8.589,-0.122
8.590,-0.122
8.591,-0.125
8.592,-0.126
8.593,-0.128
8.594,-0.124
8.595,-0.125
8.596,-0.117
8.597,-0.116
8.598,-0.119
8.599,-0.122
8.600,-0.120
8.601,-0.125
8.602,-0.125
8.603,-0.125
8.604,-0.126
8.605,-0.125
8.606,-0.124
8.607,-0.125
8.608,-0.124
8.609,-0.122
8.610,-0.123
8.611,-0.122
8.612,-0.125
8.613,-0.122
8.614,-0.119
8.615,-0.116
8.616,-0.116
8.617,-0.116
8.618,-0.116
8.619,-0.112
8.620,-0.111
8.621,-0.109
8.622,-0.106
8.623,-0.103
8.624,-0.097
8.625,-0.094
8.626,-0.089
8.627,-0.084
8.628,-0.079
8.629,-0.078
8.630,-0.078
8.631,-0.072
8.632,-0.067
8.633,-0.066
8.634,-0.061
8.635,-0.050
8.636,-0.044
8.637,-0.037
8.638,-0.031
8.639,-0.031
8.640,-0.034
8.641,-0.031
8.642,-0.028
8.643,-0.028
8.644,-0.028
8.645,-0.028
8.646,-0.030
8.647,-0.028
8.648,-0.027
8.649,-0.019
8.650,-0.016
8.651,-0.016
8.652,-0.008
8.653,0.000
8.654,0.006
8.655,0.013
8.656,0.018
8.657,0.019
8.658,0.022
8.659,0.031
8.660,0.041
8.661,0.050
8.662,0.056
8.663,0.069
8.664,0.075
8.665,0.078
8.666,0.077
8.667,0.081
8.668,0.083
8.669,0.084
8.670,0.080
8.671,0.078
8.672,0.076
8.673,0.075
8.674,0.076
8.675,0.078
8.676,0.072
8.677,0.066
8.678,0.056
8.679,0.047
8.680,0.038
8.681,0.031
8.682,0.029
8.683,0.025
8.684,0.017
8.685,0.013
8.686,0.013
8.687,0.009
8.688,0.005
8.689,0.003
8.690,0.006
8.691,0.003
8.692,0.007
8.693,0.006
8.694,0.002
8.695,-0.009
8.696,-0.016
8.697,-0.022
8.698,-0.033
8.699,-0.037
8.700,-0.041
8.701,-0.050
8.702,-0.064
8.703,-0.072
8.704,-0.084
8.705,-0.087
8.706,-0.094
8.707,-0.097
8.708,-0.100
8.709,-0.094
8.710,-0.095
8.711,-0.097
8.712,-0.098
8.713,-0.103
8.714,-0.105
8.715,-0.106
8.716,-0.106
8.717,-0.106
8.718,-0.108
8.719,-0.109
8.720,-0.117
8.721,-0.122
8.722,-0.126
8.723,-0.128
8.724,-0.134
8.725,-0.131
8.726,-0.134
8.727,-0.134
8.728,-0.133
8.729,-0.134
8.730,-0.133
8.731,-0.134
8.732,-0.136
8.733,-0.137
8.734,-0.141
8.735,-0.141
8.736,-0.144
8.737,-0.147
8.738,-0.147
8.739,-0.150
8.740,-0.149
8.741,-0.147
8.742,-0.151
8.743,-0.156
8.744,-0.157
8.745,-0.159
8.746,-0.161
8.747,-0.162
8.748,-0.162
8.749,-0.159
8.750,-0.158
8.751,-0.159
8.752,-0.159
8.753,-0.159
8.754,-0.159
8.755,-0.159
8.756,-0.155
8.757,-0.156
8.758,-0.159
8.759,-0.159
8.760,-0.156
8.761,-0.156
8.762,-0.153
8.763,-0.153
8.764,-0.155
8.765,-0.156
8.766,-0.156
8.767,-0.153
8.768,-0.152
8.769,-0.156
8.770,-0.166
8.771,-0.172
8.772,-0.175
8.773,-0.181
8.774,-0.186
8.775,-0.191
8.776,-0.212
8.777,-0.231
8.778,-0.241
8.779,-0.247
8.780,-0.249
8.781,-0.241
8.782,-0.231
8.783,-0.212
8.784,-0.187
8.785,-0.153
8.786,-0.117
8.787,-0.075
8.788,-0.037
8.789,-0.012
8.790,0.023
8.791,0.059
8.792,0.106
8.793,0.175
8.794,0.246
8.795,0.338
8.796,0.434
8.797,0.531
8.798,0.633
8.799,0.744
8.800,0.849
8.801,0.941
8.802,1.033
8.803,1.100
8.804,1.159
8.805,1.237
8.806,1.321
8.807,1.391
8.808,1.450
8.809,1.475
8.810,1.506
8.811,1.466
8.812,1.422
8.813,1.353
8.814,1.275
8.815,1.175
8.816,1.068
8.817,0.937
8.818,0.811
8.819,0.709
8.820,0.611
8.821,0.531
8.822,0.452
8.823,0.394
8.824,0.347
8.825,0.316
8.826,0.288
8.827,0.266
8.828,0.250
8.829,0.228
8.830,0.201
8.831,0.200
8.832,0.192
8.833,0.175
8.834,0.155
8.835,0.138
8.836,0.128
8.837,0.125
8.838,0.117
8.839,0.109
8.840,0.104
8.841,0.097
8.842,0.086
8.843,0.072
8.844,0.061
8.845,0.044
8.846,0.036
8.847,0.025
8.848,0.014
8.849,0.009
8.850,-0.004
8.851,-0.019
8.852,-0.025
8.853,-0.031
8.854,-0.041
8.855,-0.050
8.856,-0.061
8.857,-0.066
8.858,-0.064
8.859,-0.072
8.860,-0.073
8.861,-0.078
8.862,-0.077
8.863,-0.078
8.864,-0.080
8.865,-0.081
8.866,-0.089
8.867,-0.091
8.868,-0.096
8.869,-0.094
8.870,-0.097
8.871,-0.097
8.872,-0.098
8.873,-0.103
8.874,-0.105
8.875,-0.103
8.876,-0.102
8.877,-0.100
8.878,-0.100
8.879,-0.100
8.880,-0.101
8.881,-0.103
8.882,-0.106
8.883,-0.106
8.884,-0.105
8.885,-0.106
8.886,-0.108
8.887,-0.106
8.888,-0.107
8.889,-0.109
8.890,-0.106
8.891,-0.103
8.892,-0.099
8.893,-0.094
8.894,-0.097
8.895,-0.100
8.896,-0.098
8.897,-0.100
8.898,-0.101
8.899,-0.100
8.900,-0.100
8.901,-0.100
8.902,-0.100
8.903,-0.100
8.904,-0.101
8.905,-0.100
8.906,-0.100
8.907,-0.100
8.908,-0.099
8.909,-0.091
8.910,-0.091
8.911,-0.087
8.912,-0.089
8.913,-0.091
8.914,-0.091
8.915,-0.087
8.916,-0.089
8.917,-0.087
8.918,-0.086
8.919,-0.084
8.920,-0.087
8.921,-0.084
8.922,-0.084
8.923,-0.081
8.924,-0.083
8.925,-0.081
8.926,-0.082
8.927,-0.084
8.928,-0.082
8.929,-0.084
8.930,-0.078
8.931,-0.075
8.932,-0.076
8.933,-0.075
8.934,-0.074
8.935,-0.072
8.936,-0.073
8.937,-0.075
8.938,-0.075
8.939,-0.072
8.940,-0.074
8.941,-0.069
8.942,-0.066
8.943,-0.066
8.944,-0.066
8.945,-0.066
8.946,-0.064
8.947,-0.062
8.948,-0.061
8.949,-0.062
8.950,-0.062
8.951,-0.062
8.952,-0.059
8.953,-0.056
8.954,-0.054
8.955,-0.053
8.956,-0.053
8.957,-0.053
8.958,-0.050
8.959,-0.047
8.960,-0.045
8.961,-0.047
8.962,-0.047
8.963,-0.041
8.964,-0.036
8.965,-0.034
8.966,-0.031
8.967,-0.034
8.968,-0.037
8.969,-0.037
8.970,-0.034
8.971,-0.034
8.972,-0.036
8.973,-0.034
8.974,-0.034
8.975,-0.034
8.976,-0.030
8.977,-0.025
8.978,-0.022
8.979,-0.022
8.980,-0.021
8.981,-0.016
8.982,-0.012
8.983,-0.006
8.984,-0.003
8.985,-0.003
8.986,-0.001
8.987,0.000
8.988,-0.001
8.989,-0.003
8.990,0.002
8.991,0.003
8.992,0.004
8.993,0.013
8.994,0.009
8.995,0.009
8.996,0.017
8.997,0.025
8.998,0.029
8.999,0.031
9.000,0.028
9.001,0.031
9.002,0.039
9.003,0.050
9.004,0.049
9.005,0.047
9.006,0.051
9.007,0.059
9.008,0.063
9.009,0.066
9.010,0.071
9.011,0.075
9.012,0.081
9.013,0.081
9.014,0.089
9.015,0.094
9.016,0.104
9.017,0.106
9.018,0.112
9.019,0.116
9.020,0.119
9.021,0.119
9.022,0.125
9.023,0.131
9.024,0.139
9.025,0.147
9.026,0.150
9.027,0.153
9.028,0.161
9.029,0.169
9.030,0.176
9.031,0.181
9.032,0.188
9.033,0.194
9.034,0.201
9.035,0.209
9.036,0.212
9.037,0.219
9.038,0.227
9.039,0.231
9.040,0.239
9.041,0.247
9.042,0.250
9.043,0.256
9.044,0.263
9.045,0.263
9.046,0.267
9.047,0.275
9.048,0.278
9.049,0.284
9.050,0.291
9.051,0.297
9.052,0.302
9.053,0.303
9.054,0.303
9.055,0.306
9.056,0.314
9.057,0.322
9.058,0.329
9.059,0.334
9.060,0.333
9.061,0.334
9.062,0.336
9.063,0.338
9.064,0.341
9.065,0.341
9.066,0.344
9.067,0.341
9.068,0.342
9.069,0.344
9.070,0.341
9.071,0.341
9.072,0.336
9.073,0.334
9.074,0.338
9.075,0.338
9.076,0.333
9.077,0.328
9.078,0.321
9.079,0.312
9.080,0.309
9.081,0.300
9.082,0.292
9.083,0.291
9.084,0.280
9.085,0.272
9.086,0.264
9.087,0.256
9.088,0.252
9.089,0.241
9.090,0.234
9.091,0.225
9.092,0.219
9.093,0.212
9.094,0.202
9.095,0.191
9.096,0.186
9.097,0.175
9.098,0.168
9.099,0.156
9.100,0.149
9.101,0.138
9.102,0.124
9.103,0.116
9.104,0.112
9.105,0.109
9.106,0.100
9.107,0.088
9.108,0.088
9.109,0.084
9.110,0.078
9.111,0.072
9.112,0.064
9.113,0.059
9.114,0.051
9.115,0.047
9.116,0.044
9.117,0.038
9.118,0.033
9.119,0.028
9.120,0.021
9.121,0.016
9.122,0.013
9.123,0.009
9.124,0.006
9.125,0.006
9.126,0.003
9.127,0.003
9.128,0.000
9.129,-0.009
9.130,-0.012
9.131,-0.012
9.132,-0.009
9.133,-0.009
9.134,-0.020
9.135,-0.025
9.136,-0.030
9.137,-0.031
9.138,-0.031
9.139,-0.034
9.140,-0.034
9.141,-0.034
9.142,-0.036
9.143,-0.037
9.144,-0.039
9.145,-0.044
9.146,-0.046
9.147,-0.044
9.148,-0.044
9.149,-0.044
9.150,-0.044
9.151,-0.047
9.152,-0.050
9.153,-0.050
9.154,-0.050
9.155,-0.050
9.156,-0.050
9.157,-0.053
9.158,-0.049
9.159,-0.050
9.160,-0.053
9.161,-0.056
9.162,-0.058
9.163,-0.056
9.164,-0.055
9.165,-0.053
9.166,-0.050
9.167,-0.050
9.168,-0.049
9.169,-0.050
9.170,-0.051
9.171,-0.053
9.172,-0.054
9.173,-0.056
9.174,-0.056
9.175,-0.056
9.176,-0.056
9.177,-0.056
9.178,-0.061
9.179,-0.062
9.180,-0.058
9.181,-0.059
9.182,-0.059
9.183,-0.056
9.184,-0.056
9.185,-0.056
9.186,-0.055
9.187,-0.056
9.188,-0.054
9.189,-0.056
9.190,-0.056
9.191,-0.056
9.192,-0.053
9.193,-0.050
9.194,-0.051
9.195,-0.050
9.196,-0.050
9.197,-0.053
9.198,-0.053
9.199,-0.053
9.200,-0.050
9.201,-0.053
9.202,-0.053
9.203,-0.053
9.204,-0.053
9.205,-0.053
9.206,-0.053
9.207,-0.053
9.208,-0.053
9.209,-0.050
9.210,-0.054
9.211,-0.053
9.212,-0.052
9.213,-0.053
9.214,-0.053
9.215,-0.053
9.216,-0.053
9.217,-0.053
9.218,-0.050
9.219,-0.050
9.220,-0.050
9.221,-0.050
9.222,-0.049
9.223,-0.044
9.224,-0.042
9.225,-0.041
9.226,-0.047
9.227,-0.053
9.228,-0.054
9.229,-0.056
9.230,-0.055
9.231,-0.053
9.232,-0.049
9.233,-0.047
9.234,-0.049
9.235,-0.047
9.236,-0.050
9.237,-0.050
9.238,-0.053
9.239,-0.053
9.240,-0.056
9.241,-0.053
9.242,-0.053
9.243,-0.050
9.244,-0.051
9.245,-0.053
9.246,-0.056
9.247,-0.056
9.248,-0.056
9.249,-0.056
9.250,-0.057
9.251,-0.059
9.252,-0.058
9.253,-0.056
9.254,-0.053
9.255,-0.053
9.256,-0.053
9.257,-0.053
9.258,-0.055
9.259,-0.053
9.260,-0.050
9.261,-0.053
9.262,-0.053
9.263,-0.053
9.264,-0.053
9.265,-0.053
9.266,-0.052
9.267,-0.053
9.268,-0.051
9.269,-0.053
9.270,-0.053
9.271,-0.053
9.272,-0.053
9.273,-0.053
9.274,-0.052
9.275,-0.053
9.276,-0.054
9.277,-0.056
9.278,-0.056
9.279,-0.056
9.280,-0.062
9.281,-0.062
9.282,-0.062
9.283,-0.062
9.284,-0.064
9.285,-0.066
9.286,-0.059
9.287,-0.059
9.288,-0.061
9.289,-0.059
9.290,-0.061
9.291,-0.062
9.292,-0.066
9.293,-0.066
9.294,-0.067
9.295,-0.066
9.296,-0.067
9.297,-0.066
9.298,-0.066
9.299,-0.066
9.300,-0.062
9.301,-0.066
9.302,-0.067
9.303,-0.069
9.304,-0.069
9.305,-0.069
9.306,-0.069
9.307,-0.066
9.308,-0.067
9.309,-0.066
9.310,-0.064
9.311,-0.066
9.312,-0.066
9.313,-0.066
9.314,-0.069
9.315,-0.066
9.316,-0.067
9.317,-0.069
9.318,-0.067
9.319,-0.066
9.320,-0.069
9.321,-0.069
9.322,-0.070
9.323,-0.072
9.324,-0.075
9.325,-0.075
9.326,-0.071
9.327,-0.069
9.328,-0.067
9.329,-0.069
9.330,-0.069
9.331,-0.072
9.332,-0.067
9.333,-0.066
9.334,-0.069
9.335,-0.069
9.336,-0.070
9.337,-0.072
9.338,-0.072
9.339,-0.072
9.340,-0.053
9.341,-0.037
9.342,-0.019
9.343,-0.003
9.344,-0.003
9.345,-0.003
9.346,0.000
9.347,-0.003
9.348,-0.019
9.349,-0.031
9.350,-0.051
9.351,-0.069
9.352,-0.067
9.353,-0.069
9.354,-0.070
9.355,-0.069
9.356,-0.070
9.357,-0.072
9.358,-0.071
9.359,-0.069
9.360,-0.073
9.361,-0.072
9.362,-0.073
9.363,-0.075
9.364,-0.072
9.365,-0.072
9.366,-0.073
9.367,-0.075
9.368,-0.074
9.369,-0.072
9.370,-0.072
9.371,-0.072
9.372,-0.075
9.373,-0.078
9.374,-0.078
9.375,-0.078
9.376,-0.077
9.377,-0.075
9.378,-0.075
9.379,-0.072
9.380,-0.071
9.381,-0.069
9.382,-0.067
9.383,-0.072
9.384,-0.070
9.385,-0.075
9.386,-0.075
9.387,-0.075
9.388,-0.071
9.389,-0.072
9.390,-0.072
9.391,-0.072
9.392,-0.074
9.393,-0.072
9.394,-0.076
9.395,-0.075
9.396,-0.073
9.397,-0.075
9.398,-0.075
9.399,-0.075
9.400,-0.078
9.401,-0.081
9.402,-0.083
9.403,-0.081
9.404,-0.086
9.405,-0.084
9.406,-0.081
9.407,-0.081
9.408,-0.077
9.409,-0.072
