'Elapsed time','II'
'seconds','mV'
0.000,-0.120
0.001,-0.100
0.002,-0.097
0.003,-0.094
0.004,-0.098
0.005,-0.097
0.006,-0.096
0.007,-0.094
0.008,-0.094
0.009,-0.094
0.010,-0.095
0.011,-0.097
0.012,-0.100
0.013,-0.103
0.014,-0.100
0.015,-0.100
0.016,-0.099
0.017,-0.094
0.018,-0.092
0.019,-0.091
0.020,-0.086
0.021,-0.078
0.022,-0.074
0.023,-0.066
0.024,-0.061
0.025,-0.053
0.026,-0.052
0.027,-0.044
0.028,-0.041
0.029,-0.034
0.030,-0.034
0.031,-0.034
0.032,-0.027
0.033,-0.022
0.034,-0.019
0.035,-0.025
0.036,-0.027
0.037,-0.031
0.038,-0.041
0.039,-0.037
0.040,-0.033
0.041,-0.031
0.042,-0.025
0.043,-0.016
0.044,-0.009
0.045,0.000
0.046,0.002
0.047,0.006
0.048,0.008
0.049,0.006
0.050,0.011
0.051,0.016
0.052,0.022
0.053,0.028
0.054,0.032
0.055,0.034
0.056,0.038
0.057,0.034
0.058,0.025
0.059,0.019
0.060,0.014
0.061,0.009
0.062,0.009
0.063,0.006
0.064,0.007
0.065,0.006
0.066,0.007
0.067,0.006
0.068,0.006
0.069,0.006
0.070,0.005
0.071,0.003
0.072,0.004
0.073,0.006
0.074,0.002
0.075,0.000
0.076,-0.002
0.077,-0.003
0.078,-0.005
0.079,-0.006
0.080,-0.009
0.081,-0.012
0.082,-0.014
0.083,-0.012
0.084,-0.022
0.085,-0.028
0.086,-0.034
0.087,-0.050
0.088,-0.061
0.089,-0.069
0.090,-0.076
0.091,-0.081
0.092,-0.084
0.093,-0.081
0.094,-0.084
0.095,-0.087
0.096,-0.091
0.097,-0.094
0.098,-0.095
0.099,-0.100
0.100,-0.099
0.101,-0.100
0.102,-0.098
0.103,-0.103
0.104,-0.102
0.105,-0.103
0.106,-0.105
0.107,-0.106
0.108,-0.106
0.109,-0.106
0.110,-0.109
0.111,-0.116
0.112,-0.114
0.113,-0.116
0.114,-0.117
0.115,-0.116
0.116,-0.116
0.117,-0.116
0.118,-0.117
0.119,-0.119
0.120,-0.119
0.121,-0.119
0.122,-0.119
0.123,-0.116
0.124,-0.117
0.125,-0.116
0.126,-0.117
0.127,-0.122
0.128,-0.122
0.129,-0.122
0.130,-0.122
0.131,-0.122
0.132,-0.125
0.133,-0.125
0.134,-0.124
0.135,-0.122
0.136,-0.126
0.137,-0.125
0.138,-0.126
0.139,-0.125
0.140,-0.125
0.141,-0.125
0.142,-0.127
0.143,-0.128
0.144,-0.125
0.145,-0.125
0.146,-0.125
0.147,-0.125
0.148,-0.126
0.149,-0.128
0.150,-0.127
0.151,-0.128
0.152,-0.131
0.153,-0.134
0.154,-0.137
0.155,-0.141
0.156,-0.149
0.157,-0.166
0.158,-0.184
0.159,-0.209
0.160,-0.241
0.161,-0.266
0.162,-0.289
0.163,-0.294
0.164,-0.303
0.165,-0.297
0.166,-0.281
0.167,-0.262
0.168,-0.242
0.169,-0.209
0.170,-0.174
0.171,-0.141
0.172,-0.109
0.173,-0.075
0.174,-0.039
0.175,0.019
0.176,0.084
0.177,0.156
0.178,0.226
0.179,0.306
0.180,0.384
0.181,0.491
0.182,0.597
0.183,0.706
0.184,0.819
0.185,0.922
0.186,1.028
0.187,1.128
0.188,1.225
0.189,1.338
0.190,1.444
0.191,1.537
0.192,1.630
0.193,1.628
0.194,1.597
0.195,1.497
0.196,1.388
0.197,1.291
0.198,1.191
0.199,1.084
0.200,0.958
0.201,0.831
0.202,0.713
0.203,0.600
0.204,0.494
0.205,0.394
0.206,0.292
0.207,0.197
0.208,0.111
0.209,0.053
0.210,0.001
0.211,-0.050
0.212,-0.106
0.213,-0.137
0.214,-0.166
0.215,-0.166
0.216,-0.166
0.217,-0.156
0.218,-0.145
0.219,-0.112
0.220,-0.086
0.221,-0.062
0.222,-0.033
0.223,-0.016
0.224,0.007
0.225,0.022
0.226,0.025
0.227,0.025
0.228,0.028
0.229,0.025
0.230,0.024
0.231,0.019
0.232,0.016
0.233,0.006
0.234,0.004
0.235,0.003
0.236,-0.006
0.237,-0.012
0.238,-0.014
0.239,-0.016
0.240,-0.022
0.241,-0.025
0.242,-0.031
0.243,-0.031
0.244,-0.033
0.245,-0.031
0.246,-0.034
0.247,-0.034
0.248,-0.031
0.249,-0.034
0.250,-0.036
0.251,-0.037
0.252,-0.042
0.253,-0.047
0.254,-0.046
0.255,-0.044
0.256,-0.045
0.257,-0.047
0.258,-0.042
0.259,-0.037
0.260,-0.039
0.261,-0.037
0.262,-0.039
0.263,-0.034
0.264,-0.036
0.265,-0.037
0.266,-0.037
0.267,-0.037
0.268,-0.039
0.269,-0.041
0.270,-0.039
0.271,-0.037
0.272,-0.036
0.273,-0.031
0.274,-0.024
0.275,-0.019
0.276,-0.022
0.277,-0.025
0.278,-0.026
0.279,-0.028
0.280,-0.025
0.281,-0.025
0.282,-0.024
0.283,-0.022
0.284,-0.019
0.285,-0.019
0.286,-0.019
0.287,-0.019
0.288,-0.019
0.289,-0.016
0.290,-0.016
0.291,-0.016
0.292,-0.012
0.293,-0.012
0.294,-0.008
0.295,-0.006
0.296,-0.003
0.297,0.000
0.298,-0.001
0.299,0.000
0.300,0.002
0.301,0.000
0.302,0.001
0.303,0.006
0.304,0.006
0.305,0.009
0.306,0.008
0.307,0.009
0.308,0.011
0.309,0.013
0.310,0.013
0.311,0.013
0.312,0.017
0.313,0.025
0.314,0.024
0.315,0.025
0.316,0.027
0.317,0.025
0.318,0.027
0.319,0.028
0.320,0.031
0.321,0.034
0.322,0.038
0.323,0.041
0.324,0.044
0.325,0.044
0.326,0.046
0.327,0.044
0.328,0.047
0.329,0.047
0.330,0.053
0.331,0.053
0.332,0.058
0.333,0.063
0.334,0.063
0.335,0.066
0.336,0.066
0.337,0.063
0.338,0.064
0.339,0.063
0.340,0.072
0.341,0.075
0.342,0.079
0.343,0.084
0.344,0.086
0.345,0.091
0.346,0.093
0.347,0.094
0.348,0.094
0.349,0.097
0.350,0.099
0.351,0.100
0.352,0.103
0.353,0.106
0.354,0.108
0.355,0.113
0.356,0.116
0.357,0.119
0.358,0.118
0.359,0.119
0.360,0.120
0.361,0.125
0.362,0.128
0.363,0.131
0.364,0.131
0.365,0.137
0.366,0.141
0.367,0.144
0.368,0.141
0.369,0.141
0.370,0.145
0.371,0.147
0.372,0.150
0.373,0.156
0.374,0.155
0.375,0.156
0.376,0.159
0.377,0.159
0.378,0.161
0.379,0.159
0.380,0.166
0.381,0.172
0.382,0.171
0.383,0.169
0.384,0.172
0.385,0.172
0.386,0.174
0.387,0.172
0.388,0.173
0.389,0.178
0.390,0.175
0.391,0.175
0.392,0.176
0.393,0.181
0.394,0.180
0.395,0.181
0.396,0.189
0.397,0.194
0.398,0.193
0.399,0.194
0.400,0.193
0.401,0.191
0.402,0.189
0.403,0.191
0.404,0.193
0.405,0.194
0.406,0.196
0.407,0.194
0.408,0.196
0.409,0.194
0.410,0.198
0.411,0.200
0.412,0.196
0.413,0.197
0.414,0.200
0.415,0.203
0.416,0.208
0.417,0.209
0.418,0.206
0.419,0.203
0.420,0.203
0.421,0.203
0.422,0.197
0.423,0.197
0.424,0.198
0.425,0.197
0.426,0.189
0.427,0.184
0.428,0.177
0.429,0.172
0.430,0.167
0.431,0.162
0.432,0.156
0.433,0.147
0.434,0.141
0.435,0.134
0.436,0.129
0.437,0.125
0.438,0.120
0.439,0.119
0.440,0.114
0.441,0.106
0.442,0.096
0.443,0.084
0.444,0.075
0.445,0.066
0.446,0.061
0.447,0.056
0.448,0.047
0.449,0.044
0.450,0.039
0.451,0.031
0.452,0.029
0.453,0.025
0.454,0.022
0.455,0.016
0.456,0.009
0.457,0.006
0.458,0.000
0.459,-0.009
0.460,-0.014
0.461,-0.022
0.462,-0.025
0.463,-0.028
0.464,-0.031
0.465,-0.034
0.466,-0.036
0.467,-0.037
0.468,-0.036
0.469,-0.041
0.470,-0.044
0.471,-0.047
0.472,-0.056
0.473,-0.062
0.474,-0.062
0.475,-0.062
0.476,-0.059
0.477,-0.059
0.478,-0.062
0.479,-0.062
0.480,-0.064
0.481,-0.066
0.482,-0.069
0.483,-0.072
0.484,-0.072
0.485,-0.072
0.486,-0.069
0.487,-0.072
0.488,-0.076
0.489,-0.081
0.490,-0.077
0.491,-0.078
0.492,-0.081
0.493,-0.081
0.494,-0.083
0.495,-0.084
0.496,-0.081
0.497,-0.078
0.498,-0.081
0.499,-0.081
0.500,-0.084
0.501,-0.084
0.502,-0.089
0.503,-0.091
0.504,-0.091
0.505,-0.091
0.506,-0.094
0.507,-0.094
0.508,-0.091
0.509,-0.087
0.510,-0.089
0.511,-0.087
0.512,-0.091
0.513,-0.091
0.514,-0.091
0.515,-0.084
0.516,-0.086
0.517,-0.087
0.518,-0.081
0.519,-0.081
0.520,-0.083
0.521,-0.084
0.522,-0.081
0.523,-0.081
0.524,-0.083
0.525,-0.081
0.526,-0.083
0.527,-0.084
0.528,-0.081
0.529,-0.081
0.530,-0.081
0.531,-0.078
0.532,-0.078
0.533,-0.078
0.534,-0.075
0.535,-0.075
0.536,-0.075
0.537,-0.069
0.538,-0.069
0.539,-0.069
0.540,-0.067
0.541,-0.069
0.542,-0.069
0.543,-0.066
0.544,-0.066
0.545,-0.066
0.546,-0.067
0.547,-0.066
0.548,-0.064
0.549,-0.062
0.550,-0.056
0.551,-0.053
0.552,-0.054
0.553,-0.056
0.554,-0.056
0.555,-0.059
0.556,-0.062
0.557,-0.062
0.558,-0.061
0.559,-0.059
0.560,-0.053
0.561,-0.053
0.562,-0.056
0.563,-0.053
0.564,-0.050
0.565,-0.050
0.566,-0.051
0.567,-0.053
0.568,-0.051
0.569,-0.053
0.570,-0.053
0.571,-0.053
0.572,-0.049
0.573,-0.047
0.574,-0.050
0.575,-0.047
0.576,-0.048
0.577,-0.050
0.578,-0.050
0.579,-0.050
0.580,-0.053
0.581,-0.053
0.582,-0.053
0.583,-0.053
0.584,-0.053
0.585,-0.053
0.586,-0.050
0.587,-0.050
0.588,-0.050
0.589,-0.050
0.590,-0.050
0.591,-0.050
0.592,-0.053
0.593,-0.053
0.594,-0.051
0.595,-0.056
0.596,-0.056
0.597,-0.059
0.598,-0.061
0.599,-0.062
0.600,-0.059
0.601,-0.056
0.602,-0.055
0.603,-0.056
0.604,-0.058
0.605,-0.059
0.606,-0.061
0.607,-0.062
0.608,-0.064
0.609,-0.066
0.610,-0.064
0.611,-0.066
0.612,-0.064
0.613,-0.066
0.614,-0.067
0.615,-0.069
0.616,-0.072
0.617,-0.072
0.618,-0.072
0.619,-0.072
0.620,-0.073
0.621,-0.075
0.622,-0.075
0.623,-0.075
0.624,-0.074
0.625,-0.075
0.626,-0.071
0.627,-0.072
0.628,-0.078
0.629,-0.081
0.630,-0.078
0.631,-0.081
0.632,-0.083
0.633,-0.084
0.634,-0.087
0.635,-0.087
0.636,-0.086
0.637,-0.087
0.638,-0.086
0.639,-0.084
0.640,-0.087
0.641,-0.087
0.642,-0.086
0.643,-0.087
0.644,-0.086
0.645,-0.087
0.646,-0.087
0.647,-0.087
0.648,-0.091
0.649,-0.091
0.650,-0.091
0.651,-0.091
0.652,-0.092
0.653,-0.094
0.654,-0.096
0.655,-0.094
0.656,-0.095
0.657,-0.097
0.658,-0.097
0.659,-0.100
0.660,-0.099
0.661,-0.100
0.662,-0.101
0.663,-0.103
0.664,-0.104
0.665,-0.106
0.666,-0.105
0.667,-0.103
0.668,-0.102
0.669,-0.103
0.670,-0.103
0.671,-0.103
0.672,-0.104
0.673,-0.103
0.674,-0.103
0.675,-0.103
0.676,-0.106
0.677,-0.106
0.678,-0.106
0.679,-0.109
0.680,-0.109
0.681,-0.109
0.682,-0.109
0.683,-0.109
0.684,-0.112
0.685,-0.116
0.686,-0.119
0.687,-0.119
0.688,-0.119
0.689,-0.119
0.690,-0.117
0.691,-0.119
0.692,-0.123
0.693,-0.122
0.694,-0.119
0.695,-0.112
0.696,-0.116
0.697,-0.116
0.698,-0.117
0.699,-0.119
0.700,-0.119
0.701,-0.122
0.702,-0.122
0.703,-0.125
0.704,-0.125
0.705,-0.125
0.706,-0.127
0.707,-0.125
0.708,-0.125
0.709,-0.125
0.710,-0.125
0.711,-0.125
0.712,-0.124
0.713,-0.125
0.714,-0.125
0.715,-0.122
0.716,-0.125
0.717,-0.125
0.718,-0.128
0.719,-0.128
0.720,-0.127
0.721,-0.128
0.722,-0.131
0.723,-0.134
0.724,-0.134
0.725,-0.131
0.726,-0.130
0.727,-0.131
0.728,-0.130
0.729,-0.128
0.730,-0.127
0.731,-0.128
0.732,-0.132
0.733,-0.134
0.734,-0.134
0.735,-0.137
0.736,-0.137
0.737,-0.141
0.738,-0.141
0.739,-0.141
0.740,-0.139
0.741,-0.137
0.742,-0.142
0.743,-0.141
0.744,-0.141
0.745,-0.141
0.746,-0.137
0.747,-0.134
0.748,-0.134
0.749,-0.134
0.750,-0.134
0.751,-0.134
0.752,-0.132
0.753,-0.134
0.754,-0.134
0.755,-0.131
0.756,-0.125
0.757,-0.119
0.758,-0.117
0.759,-0.112
0.760,-0.109
0.761,-0.103
0.762,-0.099
0.763,-0.091
0.764,-0.091
0.765,-0.084
0.766,-0.086
0.767,-0.084
0.768,-0.081
0.769,-0.078
0.770,-0.069
0.771,-0.062
0.772,-0.059
0.773,-0.066
0.774,-0.069
0.775,-0.075
0.776,-0.081
0.777,-0.075
0.778,-0.072
0.779,-0.072
0.780,-0.066
0.781,-0.056
0.782,-0.052
0.783,-0.044
0.784,-0.042
0.785,-0.037
0.786,-0.034
0.787,-0.034
0.788,-0.032
0.789,-0.031
0.790,-0.029
0.791,-0.028
0.792,-0.026
0.793,-0.028
0.794,-0.019
0.795,-0.016
0.796,-0.022
0.797,-0.025
0.798,-0.026
0.799,-0.028
0.800,-0.028
0.801,-0.031
0.802,-0.030
0.803,-0.031
0.804,-0.031
0.805,-0.034
0.806,-0.036
0.807,-0.037
0.808,-0.041
0.809,-0.044
0.810,-0.042
0.811,-0.041
0.812,-0.045
0.813,-0.047
0.814,-0.051
0.815,-0.056
0.816,-0.061
0.817,-0.066
0.818,-0.070
0.819,-0.075
0.820,-0.077
0.821,-0.075
0.822,-0.078
0.823,-0.078
0.824,-0.083
0.825,-0.097
0.826,-0.109
0.827,-0.119
0.828,-0.125
0.829,-0.128
0.830,-0.131
0.831,-0.128
0.832,-0.132
0.833,-0.137
0.834,-0.141
0.835,-0.144
0.836,-0.144
0.837,-0.147
0.838,-0.147
0.839,-0.150
0.840,-0.148
0.841,-0.153
0.842,-0.152
0.843,-0.153
0.844,-0.155
0.845,-0.156
0.846,-0.156
0.847,-0.156
0.848,-0.156
0.849,-0.159
0.850,-0.158
0.851,-0.159
0.852,-0.161
0.853,-0.159
0.854,-0.159
0.855,-0.159
0.856,-0.159
0.857,-0.159
0.858,-0.158
0.859,-0.156
0.860,-0.164
0.861,-0.169
0.862,-0.173
0.863,-0.175
0.864,-0.174
0.865,-0.175
0.866,-0.175
0.867,-0.175
0.868,-0.174
0.869,-0.172
0.870,-0.175
0.871,-0.175
0.872,-0.174
0.873,-0.172
0.874,-0.176
0.875,-0.175
0.876,-0.176
0.877,-0.175
0.878,-0.176
0.879,-0.178
0.880,-0.180
0.881,-0.181
0.882,-0.178
0.883,-0.178
0.884,-0.178
0.885,-0.178
0.886,-0.178
0.887,-0.178
0.888,-0.177
0.889,-0.178
0.890,-0.182
0.891,-0.188
0.892,-0.195
0.893,-0.203
0.894,-0.213
0.895,-0.231
0.896,-0.247
0.897,-0.269
0.898,-0.297
0.899,-0.319
0.900,-0.342
0.901,-0.347
0.902,-0.351
0.903,-0.341
0.904,-0.328
0.905,-0.312
0.906,-0.294
0.907,-0.262
0.908,-0.229
0.909,-0.200
0.910,-0.169
0.911,-0.134
0.912,-0.100
0.913,-0.044
0.914,0.019
0.915,0.088
0.916,0.153
0.917,0.228
0.918,0.309
0.919,0.419
0.920,0.524
0.921,0.631
0.922,0.744
0.923,0.847
0.924,0.948
0.925,1.044
0.926,1.139
0.927,1.250
0.928,1.363
0.929,1.463
0.930,1.559
0.931,1.563
0.932,1.533
0.933,1.434
0.934,1.325
0.935,1.228
0.936,1.129
0.937,1.025
0.938,0.903
0.939,0.781
0.940,0.667
0.941,0.559
0.942,0.452
0.943,0.350
0.944,0.252
0.945,0.159
0.946,0.074
0.947,0.016
0.948,-0.042
0.949,-0.100
0.950,-0.156
0.951,-0.188
0.952,-0.219
0.953,-0.222
0.954,-0.222
0.955,-0.213
0.956,-0.197
0.957,-0.159
0.958,-0.134
0.959,-0.112
0.960,-0.089
0.961,-0.078
0.962,-0.058
0.963,-0.047
0.964,-0.039
0.965,-0.034
0.966,-0.031
0.967,-0.034
0.968,-0.034
0.969,-0.037
0.970,-0.039
0.971,-0.047
0.972,-0.049
0.973,-0.050
0.974,-0.058
0.975,-0.062
0.976,-0.067
0.977,-0.072
0.978,-0.075
0.979,-0.075
0.980,-0.083
0.981,-0.084
0.982,-0.087
0.983,-0.087
0.984,-0.092
0.985,-0.094
0.986,-0.089
0.987,-0.091
0.988,-0.092
0.989,-0.094
0.990,-0.091
0.991,-0.087
0.992,-0.087
0.993,-0.087
0.994,-0.089
0.995,-0.091
0.996,-0.091
0.997,-0.091
0.998,-0.091
0.999,-0.087
1.000,-0.092
1.001,-0.091
1.002,-0.092
1.003,-0.094
1.004,-0.091
1.005,-0.087
1.006,-0.087
1.007,-0.087
1.008,-0.089
1.009,-0.091
1.010,-0.091
1.011,-0.087
1.012,-0.084
1.013,-0.084
1.014,-0.086
1.015,-0.087
1.016,-0.087
1.017,-0.087
1.018,-0.083
1.019,-0.081
1.020,-0.078
1.021,-0.075
1.022,-0.072
1.023,-0.072
1.024,-0.069
1.025,-0.066
1.026,-0.067
1.027,-0.066
1.028,-0.067
1.029,-0.069
1.030,-0.062
1.031,-0.059
1.032,-0.058
1.033,-0.059
1.034,-0.056
1.035,-0.053
1.036,-0.056
1.037,-0.056
1.038,-0.052
1.039,-0.050
1.040,-0.051
1.041,-0.050
1.042,-0.051
1.043,-0.050
1.044,-0.049
1.045,-0.044
1.046,-0.039
1.047,-0.034
1.048,-0.034
1.049,-0.034
1.050,-0.033
1.051,-0.028
1.052,-0.027
1.053,-0.022
1.054,-0.020
1.055,-0.022
1.056,-0.019
1.057,-0.016
1.058,-0.016
1.059,-0.016
1.060,-0.014
1.061,-0.012
1.062,-0.008
1.063,-0.006
1.064,-0.003
1.065,-0.003
1.066,0.000
1.067,0.000
1.068,0.006
1.069,0.006
1.070,0.014
1.071,0.022
1.072,0.021
1.073,0.022
1.074,0.022
1.075,0.019
1.076,0.022
1.077,0.022
1.078,0.031
1.079,0.034
1.080,0.034
1.081,0.034
1.082,0.034
1.083,0.038
1.084,0.042
1.085,0.047
1.086,0.048
1.087,0.053
1.088,0.055
1.089,0.056
1.090,0.059
1.091,0.063
1.092,0.063
1.093,0.066
1.094,0.066
1.095,0.066
1.096,0.067
1.097,0.072
1.098,0.072
1.099,0.075
1.100,0.077
1.101,0.078
1.102,0.077
1.103,0.081
1.104,0.086
1.105,0.091
1.106,0.092
1.107,0.097
1.108,0.101
1.109,0.103
1.110,0.103
1.111,0.106
1.112,0.109
1.113,0.116
1.114,0.119
1.115,0.119
1.116,0.122
1.117,0.122
1.118,0.124
1.119,0.125
1.120,0.124
1.121,0.122
1.122,0.128
1.123,0.131
1.124,0.134
1.125,0.134
1.126,0.131
1.127,0.131
1.128,0.130
1.129,0.131
1.130,0.133
1.131,0.137
1.132,0.137
1.133,0.141
1.134,0.143
1.135,0.141
1.136,0.137
1.137,0.137
1.138,0.139
1.139,0.141
1.140,0.141
1.141,0.144
1.142,0.147
1.143,0.150
1.144,0.152
1.145,0.150
1.146,0.152
1.147,0.150
1.148,0.156
1.149,0.159
1.150,0.158
1.151,0.162
1.152,0.166
1.153,0.169
1.154,0.171
1.155,0.169
1.156,0.167
1.157,0.166
1.158,0.169
1.159,0.172
1.160,0.166
1.161,0.166
1.162,0.164
1.163,0.159
1.164,0.158
1.165,0.159
1.166,0.153
1.167,0.150
1.168,0.147
1.169,0.144
1.170,0.141
1.171,0.134
1.172,0.129
1.173,0.125
1.174,0.118
1.175,0.109
1.176,0.100
1.177,0.094
1.178,0.092
1.179,0.088
1.180,0.078
1.181,0.069
1.182,0.058
1.183,0.047
1.184,0.039
1.185,0.031
1.186,0.023
1.187,0.022
1.188,0.017
1.189,0.009
1.190,0.007
1.191,0.003
1.192,0.000
1.193,-0.006
1.194,-0.012
1.195,-0.016
1.196,-0.019
1.197,-0.025
1.198,-0.029
1.199,-0.037
1.200,-0.041
1.201,-0.044
1.202,-0.044
1.203,-0.044
1.204,-0.047
1.205,-0.050
1.206,-0.049
1.207,-0.053
1.208,-0.061
1.209,-0.069
1.210,-0.071
1.211,-0.069
1.212,-0.072
1.213,-0.075
1.214,-0.072
1.215,-0.072
1.216,-0.075
1.217,-0.075
1.218,-0.076
1.219,-0.078
1.220,-0.083
1.221,-0.087
1.222,-0.089
1.223,-0.091
1.224,-0.086
1.225,-0.087
1.226,-0.091
1.227,-0.094
1.228,-0.089
1.229,-0.091
1.230,-0.094
1.231,-0.094
1.232,-0.094
1.233,-0.094
1.234,-0.094
1.235,-0.094
1.236,-0.098
1.237,-0.100
1.238,-0.103
1.239,-0.103
1.240,-0.100
1.241,-0.094
1.242,-0.094
1.243,-0.094
1.244,-0.098
1.245,-0.100
1.246,-0.097
1.247,-0.094
1.248,-0.095
1.249,-0.094
1.250,-0.094
1.251,-0.091
1.252,-0.095
1.253,-0.094
1.254,-0.094
1.255,-0.094
1.256,-0.091
1.257,-0.094
1.258,-0.095
1.259,-0.097
1.260,-0.095
1.261,-0.097
1.262,-0.094
1.263,-0.087
1.264,-0.084
1.265,-0.081
1.266,-0.075
1.267,-0.072
1.268,-0.075
1.269,-0.075
1.270,-0.076
1.271,-0.078
1.272,-0.075
1.273,-0.075
1.274,-0.078
1.275,-0.075
1.276,-0.069
1.277,-0.062
1.278,-0.061
1.279,-0.062
1.280,-0.066
1.281,-0.066
1.282,-0.064
1.283,-0.062
1.284,-0.062
1.285,-0.059
1.286,-0.059
1.287,-0.059
1.288,-0.058
1.289,-0.059
1.290,-0.061
1.291,-0.062
1.292,-0.061
1.293,-0.062
1.294,-0.061
1.295,-0.056
1.296,-0.056
1.297,-0.056
1.298,-0.053
1.299,-0.056
1.300,-0.061
1.301,-0.059
1.302,-0.056
1.303,-0.056
1.304,-0.053
1.305,-0.050
1.306,-0.046
1.307,-0.044
1.308,-0.045
1.309,-0.047
1.310,-0.042
1.311,-0.041
1.312,-0.045
1.313,-0.044
1.314,-0.044
1.315,-0.044
1.316,-0.044
1.317,-0.044
1.318,-0.047
1.319,-0.047
1.320,-0.046
1.321,-0.044
1.322,-0.045
1.323,-0.047
1.324,-0.045
1.325,-0.047
1.326,-0.046
1.327,-0.044
1.328,-0.044
1.329,-0.044
1.330,-0.047
1.331,-0.047
1.332,-0.044
1.333,-0.047
1.334,-0.047
1.335,-0.050
1.336,-0.051
1.337,-0.053
1.338,-0.053
1.339,-0.053
1.340,-0.052
1.341,-0.053
1.342,-0.052
1.343,-0.050
1.344,-0.050
1.345,-0.050
1.346,-0.050
1.347,-0.050
1.348,-0.051
1.349,-0.056
1.350,-0.058
1.351,-0.062
1.352,-0.059
1.353,-0.056
1.354,-0.058
1.355,-0.056
1.356,-0.053
1.357,-0.050
1.358,-0.051
1.359,-0.053
1.360,-0.054
1.361,-0.056
1.362,-0.055
1.363,-0.056
1.364,-0.056
1.365,-0.062
1.366,-0.066
1.367,-0.066
1.368,-0.062
1.369,-0.066
1.370,-0.064
1.371,-0.062
1.372,-0.067
1.373,-0.069
1.374,-0.069
1.375,-0.072
1.376,-0.072
1.377,-0.072
1.378,-0.074
1.379,-0.072
1.380,-0.071
1.381,-0.072
1.382,-0.070
1.383,-0.072
1.384,-0.071
1.385,-0.069
1.386,-0.072
1.387,-0.072
1.388,-0.072
1.389,-0.072
1.390,-0.072
1.391,-0.072
1.392,-0.076
1.393,-0.078
1.394,-0.078
1.395,-0.078
1.396,-0.077
1.397,-0.078
1.398,-0.078
1.399,-0.081
1.400,-0.084
1.401,-0.087
1.402,-0.086
1.403,-0.084
1.404,-0.084
1.405,-0.084
1.406,-0.084
1.407,-0.087
1.408,-0.086
1.409,-0.084
1.410,-0.084
1.411,-0.081
1.412,-0.080
1.413,-0.078
1.414,-0.079
1.415,-0.078
1.416,-0.079
1.417,-0.084
1.418,-0.086
1.419,-0.087
1.420,-0.087
1.421,-0.087
1.422,-0.087
1.423,-0.087
1.424,-0.091
1.425,-0.091
1.426,-0.091
1.427,-0.091
1.428,-0.089
1.429,-0.091
1.430,-0.095
1.431,-0.094
1.432,-0.095
1.433,-0.094
1.434,-0.095
1.435,-0.094
1.436,-0.095
1.437,-0.097
1.438,-0.100
1.439,-0.103
1.440,-0.102
1.441,-0.100
1.442,-0.097
1.443,-0.097
1.444,-0.098
1.445,-0.103
1.446,-0.100
1.447,-0.097
1.448,-0.100
1.449,-0.100
1.450,-0.097
1.451,-0.094
1.452,-0.095
1.453,-0.097
1.454,-0.098
1.455,-0.103
1.456,-0.106
1.457,-0.106
1.458,-0.108
1.459,-0.106
1.460,-0.105
1.461,-0.100
1.462,-0.099
1.463,-0.100
1.464,-0.100
1.465,-0.100
1.466,-0.100
1.467,-0.097
1.468,-0.097
1.469,-0.100
1.470,-0.097
1.471,-0.094
1.472,-0.092
1.473,-0.094
1.474,-0.095
1.475,-0.094
1.476,-0.095
1.477,-0.100
1.478,-0.100
1.479,-0.103
1.480,-0.104
1.481,-0.106
1.482,-0.106
1.483,-0.106
1.484,-0.111
1.485,-0.109
1.486,-0.108
1.487,-0.106
1.488,-0.107
1.489,-0.109
1.490,-0.109
1.491,-0.109
1.492,-0.109
1.493,-0.109
1.494,-0.106
1.495,-0.106
1.496,-0.105
1.497,-0.100
1.498,-0.100
1.499,-0.100
1.500,-0.098
1.501,-0.094
1.502,-0.087
1.503,-0.078
1.504,-0.074
1.505,-0.066
1.506,-0.066
1.507,-0.059
1.508,-0.055
1.509,-0.047
1.510,-0.042
1.511,-0.037
1.512,-0.030
1.513,-0.025
1.514,-0.019
1.515,-0.022
1.516,-0.026
1.517,-0.034
1.518,-0.044
1.519,-0.041
1.520,-0.037
1.521,-0.037
1.522,-0.030
1.523,-0.019
1.524,-0.017
1.525,-0.012
1.526,-0.011
1.527,-0.006
1.528,-0.002
1.529,0.000
1.530,0.003
1.531,0.006
1.532,0.008
1.533,0.009
1.534,0.011
1.535,0.009
1.536,0.016
1.537,0.016
1.538,0.011
1.539,0.009
1.540,0.009
1.541,0.009
1.542,0.009
1.543,0.006
1.544,0.007
1.545,0.006
1.546,0.006
1.547,0.003
1.548,-0.001
1.549,-0.006
1.550,-0.007
1.551,-0.009
1.552,-0.009
1.553,-0.009
1.554,-0.011
1.555,-0.009
1.556,-0.009
1.557,-0.009
1.558,-0.011
1.559,-0.012
1.560,-0.017
1.561,-0.022
1.562,-0.024
1.563,-0.022
1.564,-0.028
1.565,-0.031
1.566,-0.037
1.567,-0.053
1.568,-0.067
1.569,-0.078
1.570,-0.084
1.571,-0.087
1.572,-0.089
1.573,-0.084
1.574,-0.089
1.575,-0.094
1.576,-0.097
1.577,-0.100
1.578,-0.097
1.579,-0.097
1.580,-0.097
1.581,-0.100
1.582,-0.098
1.583,-0.103
1.584,-0.106
1.585,-0.112
1.586,-0.116
1.587,-0.119
1.588,-0.119
1.589,-0.119
1.590,-0.119
1.591,-0.122
1.592,-0.122
1.593,-0.125
1.594,-0.126
1.595,-0.125
1.596,-0.125
1.597,-0.125
1.598,-0.124
1.599,-0.122
1.600,-0.122
1.601,-0.122
1.602,-0.125
1.603,-0.125
1.604,-0.129
1.605,-0.131
1.606,-0.128
1.607,-0.128
1.608,-0.128
1.609,-0.128
1.610,-0.127
1.611,-0.125
1.612,-0.127
1.613,-0.125
1.614,-0.125
1.615,-0.125
1.616,-0.129
1.617,-0.128
1.618,-0.128
1.619,-0.125
1.620,-0.126
1.621,-0.128
1.622,-0.130
1.623,-0.131
1.624,-0.128
1.625,-0.128
1.626,-0.129
1.627,-0.131
1.628,-0.134
1.629,-0.137
1.630,-0.134
1.631,-0.134
1.632,-0.139
1.633,-0.144
1.634,-0.153
1.635,-0.162
1.636,-0.173
1.637,-0.194
1.638,-0.211
1.639,-0.234
1.640,-0.258
1.641,-0.275
1.642,-0.291
1.643,-0.287
1.644,-0.291
1.645,-0.278
1.646,-0.259
1.647,-0.237
1.648,-0.216
1.649,-0.181
1.650,-0.156
1.651,-0.134
1.652,-0.102
1.653,-0.066
1.654,-0.024
1.655,0.041
1.656,0.106
1.657,0.178
1.658,0.253
1.659,0.338
1.660,0.419
1.661,0.528
1.662,0.630
1.663,0.734
1.664,0.837
1.665,0.931
1.666,1.028
1.667,1.119
1.668,1.208
1.669,1.313
1.670,1.416
1.671,1.506
1.672,1.572
1.673,1.544
1.674,1.493
1.675,1.372
1.676,1.267
1.677,1.175
1.678,1.064
1.679,0.947
1.680,0.828
1.681,0.709
1.682,0.597
1.683,0.491
1.684,0.400
1.685,0.316
1.686,0.244
1.687,0.178
1.688,0.097
1.689,0.044
1.690,-0.012
1.691,-0.069
1.692,-0.124
1.693,-0.153
1.694,-0.194
1.695,-0.206
1.696,-0.213
1.697,-0.209
1.698,-0.197
1.699,-0.162
1.700,-0.130
1.701,-0.100
1.702,-0.071
1.703,-0.053
1.704,-0.039
1.705,-0.034
1.706,-0.019
1.707,-0.006
1.708,-0.002
1.709,-0.003
1.710,-0.003
1.711,-0.006
1.712,-0.002
1.713,-0.003
1.714,-0.007
1.715,-0.012
1.716,-0.019
1.717,-0.022
1.718,-0.025
1.719,-0.028
1.720,-0.034
1.721,-0.037
1.722,-0.042
1.723,-0.041
1.724,-0.044
1.725,-0.044
1.726,-0.047
1.727,-0.047
1.728,-0.045
1.729,-0.050
1.730,-0.047
1.731,-0.044
1.732,-0.044
1.733,-0.044
1.734,-0.044
1.735,-0.044
1.736,-0.042
1.737,-0.041
1.738,-0.041
1.739,-0.041
1.740,-0.039
1.741,-0.034
1.742,-0.037
1.743,-0.034
1.744,-0.034
1.745,-0.034
1.746,-0.034
1.747,-0.034
1.748,-0.034
1.749,-0.034
1.750,-0.034
1.751,-0.034
1.752,-0.036
1.753,-0.034
1.754,-0.032
1.755,-0.034
1.756,-0.034
1.757,-0.034
1.758,-0.037
1.759,-0.041
1.760,-0.041
1.761,-0.044
1.762,-0.044
1.763,-0.044
1.764,-0.039
1.765,-0.037
1.766,-0.034
1.767,-0.031
1.768,-0.032
1.769,-0.031
1.770,-0.032
1.771,-0.034
1.772,-0.025
1.773,-0.019
1.774,-0.016
1.775,-0.016
1.776,-0.011
1.777,-0.006
1.778,-0.005
1.779,0.000
1.780,0.003
1.781,0.003
1.782,0.002
1.783,0.003
1.784,0.002
1.785,0.003
1.786,0.006
1.787,0.013
1.788,0.013
1.789,0.013
1.790,0.017
1.791,0.022
1.792,0.019
1.793,0.019
1.794,0.018
1.795,0.019
1.796,0.025
1.797,0.028
1.798,0.030
1.799,0.031
1.800,0.031
1.801,0.031
1.802,0.033
1.803,0.034
1.804,0.039
1.805,0.041
1.806,0.044
1.807,0.044
1.808,0.044
1.809,0.041
1.810,0.046
1.811,0.044
1.812,0.048
1.813,0.053
1.814,0.054
1.815,0.059
1.816,0.063
1.817,0.063
1.818,0.069
1.819,0.072
1.820,0.078
1.821,0.078
1.822,0.078
1.823,0.078
1.824,0.078
1.825,0.081
1.826,0.083
1.827,0.084
1.828,0.083
1.829,0.084
1.830,0.088
1.831,0.091
1.832,0.095
1.833,0.100
1.834,0.100
1.835,0.103
1.836,0.103
1.837,0.103
1.838,0.103
1.839,0.106
1.840,0.105
1.841,0.106
1.842,0.111
1.843,0.116
1.844,0.114
1.845,0.119
1.846,0.123
1.847,0.128
1.848,0.128
1.849,0.131
1.850,0.136
1.851,0.137
1.852,0.141
1.853,0.147
1.854,0.146
1.855,0.147
1.856,0.149
1.857,0.147
1.858,0.151
1.859,0.153
1.860,0.155
1.861,0.156
1.862,0.156
1.863,0.156
1.864,0.158
1.865,0.156
1.866,0.158
1.867,0.156
1.868,0.161
1.869,0.169
1.870,0.169
1.871,0.172
1.872,0.171
1.873,0.172
1.874,0.171
1.875,0.172
1.876,0.176
1.877,0.178
1.878,0.175
1.879,0.175
1.880,0.171
1.881,0.166
1.882,0.166
1.883,0.169
1.884,0.172
1.885,0.175
1.886,0.178
1.887,0.178
1.888,0.181
1.889,0.181
1.890,0.189
1.891,0.194
1.892,0.191
1.893,0.194
1.894,0.195
1.895,0.197
1.896,0.199
1.897,0.197
1.898,0.194
1.899,0.191
1.900,0.189
1.901,0.188
1.902,0.181
1.903,0.181
1.904,0.179
1.905,0.175
1.906,0.168
1.907,0.162
1.908,0.159
1.909,0.159
1.910,0.153
1.911,0.147
1.912,0.142
1.913,0.134
1.914,0.127
1.915,0.119
1.916,0.114
1.917,0.109
1.918,0.104
1.919,0.103
1.920,0.100
1.921,0.094
1.922,0.088
1.923,0.081
1.924,0.076
1.925,0.072
1.926,0.066
1.927,0.059
1.928,0.051
1.929,0.050
1.930,0.044
1.931,0.034
1.932,0.031
1.933,0.025
1.934,0.019
1.935,0.009
1.936,0.004
1.937,0.003
1.938,0.000
1.939,-0.006
1.940,-0.005
1.941,-0.006
1.942,-0.012
1.943,-0.019
1.944,-0.025
1.945,-0.031
1.946,-0.033
1.947,-0.034
1.948,-0.031
1.949,-0.034
1.950,-0.041
1.951,-0.047
1.952,-0.050
1.953,-0.050
1.954,-0.052
1.955,-0.053
1.956,-0.053
1.957,-0.056
1.958,-0.061
1.959,-0.062
1.960,-0.064
1.961,-0.066
1.962,-0.067
1.963,-0.069
1.964,-0.072
1.965,-0.075
1.966,-0.071
1.967,-0.072
1.968,-0.074
1.969,-0.075
1.970,-0.075
1.971,-0.081
1.972,-0.084
1.973,-0.084
1.974,-0.083
1.975,-0.081
1.976,-0.081
1.977,-0.081
1.978,-0.086
1.979,-0.087
1.980,-0.091
1.981,-0.091
1.982,-0.091
1.983,-0.087
1.984,-0.087
1.985,-0.087
1.986,-0.091
1.987,-0.091
1.988,-0.089
1.989,-0.087
1.990,-0.083
1.991,-0.075
1.992,-0.076
1.993,-0.075
1.994,-0.081
1.995,-0.081
1.996,-0.081
1.997,-0.081
1.998,-0.078
1.999,-0.081
2.000,-0.083
2.001,-0.084
2.002,-0.081
2.003,-0.081
2.004,-0.081
2.005,-0.078
2.006,-0.078
2.007,-0.078
2.008,-0.074
2.009,-0.072
2.010,-0.069
2.011,-0.062
2.012,-0.064
2.013,-0.066
2.014,-0.062
2.015,-0.062
2.016,-0.067
2.017,-0.066
2.018,-0.066
2.019,-0.066
2.020,-0.064
2.021,-0.066
2.022,-0.067
2.023,-0.066
2.024,-0.059
2.025,-0.053
2.026,-0.054
2.027,-0.053
2.028,-0.053
2.029,-0.053
2.030,-0.047
2.031,-0.044
2.032,-0.045
2.033,-0.047
2.034,-0.044
2.035,-0.044
2.036,-0.047
2.037,-0.047
2.038,-0.047
2.039,-0.047
2.040,-0.044
2.041,-0.047
2.042,-0.050
2.043,-0.047
2.044,-0.045
2.045,-0.047
2.046,-0.047
2.047,-0.047
2.048,-0.042
2.049,-0.041
2.050,-0.042
2.051,-0.044
2.052,-0.041
2.053,-0.041
2.054,-0.045
2.055,-0.044
2.056,-0.041
2.057,-0.037
2.058,-0.034
2.059,-0.031
2.060,-0.033
2.061,-0.031
2.062,-0.032
2.063,-0.034
2.064,-0.033
2.065,-0.031
2.066,-0.029
2.067,-0.031
2.068,-0.032
2.069,-0.034
2.070,-0.033
2.071,-0.031
2.072,-0.036
2.073,-0.037
2.074,-0.033
2.075,-0.034
2.076,-0.033
2.077,-0.034
2.078,-0.034
2.079,-0.034
2.080,-0.034
2.081,-0.034
2.082,-0.033
2.083,-0.034
2.084,-0.039
2.085,-0.044
2.086,-0.044
2.087,-0.044
2.088,-0.042
2.089,-0.041
2.090,-0.042
2.091,-0.047
2.092,-0.046
2.093,-0.047
2.094,-0.047
2.095,-0.047
2.096,-0.050
2.097,-0.050
2.098,-0.050
2.099,-0.050
2.100,-0.050
2.101,-0.050
2.102,-0.050
2.103,-0.050
2.104,-0.049
2.105,-0.050
2.106,-0.047
2.107,-0.050
2.108,-0.053
2.109,-0.053
2.110,-0.050
2.111,-0.053
2.112,-0.052
2.113,-0.050
2.114,-0.053
2.115,-0.053
2.116,-0.053
2.117,-0.056
2.118,-0.058
2.119,-0.059
2.120,-0.062
2.121,-0.062
2.122,-0.061
2.123,-0.062
2.124,-0.061
2.125,-0.062
2.126,-0.066
2.127,-0.069
2.128,-0.072
2.129,-0.072
2.130,-0.073
2.131,-0.075
2.132,-0.074
2.133,-0.072
2.134,-0.074
2.135,-0.072
2.136,-0.072
2.137,-0.072
2.138,-0.073
2.139,-0.078
2.140,-0.077
2.141,-0.078
2.142,-0.077
2.143,-0.075
2.144,-0.075
2.145,-0.075
2.146,-0.075
2.147,-0.075
2.148,-0.075
2.149,-0.078
2.150,-0.081
2.151,-0.084
2.152,-0.086
2.153,-0.084
2.154,-0.084
2.155,-0.084
2.156,-0.087
2.157,-0.087
2.158,-0.086
2.159,-0.087
2.160,-0.084
2.161,-0.081
2.162,-0.081
2.163,-0.081
2.164,-0.084
2.165,-0.087
2.166,-0.093
2.167,-0.097
2.168,-0.094
2.169,-0.094
2.170,-0.091
2.171,-0.091
2.172,-0.091
2.173,-0.091
2.174,-0.091
2.175,-0.087
2.176,-0.087
2.177,-0.087
2.178,-0.087
2.179,-0.087
2.180,-0.086
2.181,-0.087
2.182,-0.089
2.183,-0.087
2.184,-0.091
2.185,-0.091
2.186,-0.092
2.187,-0.091
2.188,-0.091
2.189,-0.094
2.190,-0.092
2.191,-0.091
2.192,-0.094
2.193,-0.094
2.194,-0.097
2.195,-0.103
2.196,-0.104
2.197,-0.106
2.198,-0.100
2.199,-0.097
2.200,-0.100
2.201,-0.100
2.202,-0.099
2.203,-0.100
2.204,-0.100
2.205,-0.103
2.206,-0.099
2.207,-0.094
2.208,-0.094
2.209,-0.094
2.210,-0.101
2.211,-0.103
2.212,-0.104
2.213,-0.106
2.214,-0.105
2.215,-0.103
2.216,-0.103
2.217,-0.103
2.218,-0.103
2.219,-0.103
2.220,-0.100
2.221,-0.100
2.222,-0.099
2.223,-0.094
2.224,-0.091
2.225,-0.087
2.226,-0.081
2.227,-0.072
2.228,-0.069
2.229,-0.062
2.230,-0.059
2.231,-0.053
2.232,-0.052
2.233,-0.044
2.234,-0.041
2.235,-0.034
2.236,-0.031
2.237,-0.028
2.238,-0.022
2.239,-0.019
2.240,-0.017
2.241,-0.025
2.242,-0.027
2.243,-0.031
2.244,-0.041
2.245,-0.037
2.246,-0.033
2.247,-0.031
2.248,-0.025
2.249,-0.016
2.250,-0.008
2.251,0.003
2.252,0.007
2.253,0.016
2.254,0.019
2.255,0.019
2.256,0.021
2.257,0.022
2.258,0.024
2.259,0.025
2.260,0.028
2.261,0.028
2.262,0.034
2.263,0.034
2.264,0.031
2.265,0.031
2.266,0.031
2.267,0.031
2.268,0.029
2.269,0.025
2.270,0.021
2.271,0.013
2.272,0.014
2.273,0.013
2.274,0.013
2.275,0.013
2.276,0.011
2.277,0.009
2.278,0.006
2.279,0.003
2.280,0.001
2.281,0.003
2.282,-0.001
2.283,-0.006
2.284,-0.006
2.285,-0.006
2.286,-0.009
2.287,-0.012
2.288,-0.017
2.289,-0.019
2.290,-0.028
2.291,-0.034
2.292,-0.039
2.293,-0.053
2.294,-0.062
2.295,-0.069
2.296,-0.075
2.297,-0.078
2.298,-0.084
2.299,-0.084
2.300,-0.086
2.301,-0.087
2.302,-0.091
2.303,-0.094
2.304,-0.095
2.305,-0.100
2.306,-0.101
2.307,-0.106
2.308,-0.104
2.309,-0.109
2.310,-0.108
2.311,-0.109
2.312,-0.111
2.313,-0.112
2.314,-0.112
2.315,-0.112
2.316,-0.112
2.317,-0.116
2.318,-0.117
2.319,-0.122
2.320,-0.123
2.321,-0.122
2.322,-0.122
2.323,-0.122
2.324,-0.122
2.325,-0.122
2.326,-0.121
2.327,-0.119
2.328,-0.119
2.329,-0.116
2.330,-0.119
2.331,-0.119
2.332,-0.120
2.333,-0.125
2.334,-0.125
2.335,-0.125
2.336,-0.125
2.337,-0.125
2.338,-0.128
2.339,-0.128
2.340,-0.127
2.341,-0.125
2.342,-0.128
2.343,-0.125
2.344,-0.126
2.345,-0.125
2.346,-0.124
2.347,-0.122
2.348,-0.129
2.349,-0.137
2.350,-0.136
2.351,-0.137
2.352,-0.136
2.353,-0.134
2.354,-0.131
2.355,-0.128
2.356,-0.127
2.357,-0.128
2.358,-0.132
2.359,-0.137
2.360,-0.144
2.361,-0.150
2.362,-0.161
2.363,-0.181
2.364,-0.200
2.365,-0.225
2.366,-0.252
2.367,-0.272
2.368,-0.291
2.369,-0.291
2.370,-0.292
2.371,-0.278
2.372,-0.262
2.373,-0.244
2.374,-0.221
2.375,-0.184
2.376,-0.147
2.377,-0.112
2.378,-0.081
2.379,-0.047
2.380,-0.009
2.381,0.050
2.382,0.116
2.383,0.188
2.384,0.258
2.385,0.338
2.386,0.413
2.387,0.516
2.388,0.623
2.389,0.734
2.390,0.839
2.391,0.934
2.392,1.025
2.393,1.109
2.394,1.196
2.395,1.297
2.396,1.396
2.397,1.481
2.398,1.564
2.399,1.553
2.400,1.503
2.401,1.384
2.402,1.271
2.403,1.169
2.404,1.061
2.405,0.947
2.406,0.825
2.407,0.703
2.408,0.598
2.409,0.500
2.410,0.411
2.411,0.328
2.412,0.251
2.413,0.181
2.414,0.101
2.415,0.050
2.416,-0.006
2.417,-0.062
2.418,-0.120
2.419,-0.153
2.420,-0.194
2.421,-0.206
2.422,-0.207
2.423,-0.200
2.424,-0.189
2.425,-0.156
2.426,-0.121
2.427,-0.087
2.428,-0.058
2.429,-0.041
2.430,-0.023
2.431,-0.016
2.432,-0.005
2.433,0.003
2.434,0.006
2.435,0.003
2.436,0.006
2.437,0.006
2.438,0.009
2.439,0.006
2.440,0.007
2.441,0.009
2.442,0.003
2.443,0.000
2.444,-0.006
2.445,-0.012
2.446,-0.017
2.447,-0.019
2.448,-0.024
2.449,-0.022
2.450,-0.024
2.451,-0.022
2.452,-0.025
2.453,-0.025
2.454,-0.023
2.455,-0.028
2.456,-0.029
2.457,-0.031
2.458,-0.031
2.459,-0.031
2.460,-0.036
2.461,-0.041
2.462,-0.039
2.463,-0.037
2.464,-0.037
2.465,-0.037
2.466,-0.039
2.467,-0.037
2.468,-0.039
2.469,-0.034
2.470,-0.034
2.471,-0.034
2.472,-0.034
2.473,-0.034
2.474,-0.031
2.475,-0.028
2.476,-0.022
2.477,-0.016
2.478,-0.017
2.479,-0.016
2.480,-0.014
2.481,-0.016
2.482,-0.017
2.483,-0.019
2.484,-0.019
2.485,-0.019
2.486,-0.017
2.487,-0.019
2.488,-0.019
2.489,-0.019
2.490,-0.016
2.491,-0.016
2.492,-0.014
2.493,-0.012
2.494,-0.012
2.495,-0.009
2.496,-0.009
2.497,-0.009
2.498,-0.003
2.499,0.000
2.500,0.000
2.501,-0.003
2.502,-0.001
2.503,0.000
2.504,0.004
2.505,0.013
2.506,0.014
2.507,0.013
2.508,0.014
2.509,0.019
2.510,0.016
2.511,0.016
2.512,0.016
2.513,0.019
2.514,0.021
2.515,0.022
2.516,0.025
2.517,0.028
2.518,0.032
2.519,0.041
2.520,0.039
2.521,0.041
2.522,0.043
2.523,0.041
2.524,0.041
2.525,0.041
2.526,0.042
2.527,0.044
2.528,0.046
2.529,0.047
2.530,0.051
2.531,0.053
2.532,0.061
2.533,0.066
2.534,0.066
2.535,0.063
2.536,0.066
2.537,0.063
2.538,0.064
2.539,0.066
2.540,0.066
2.541,0.069
2.542,0.075
2.543,0.078
2.544,0.083
2.545,0.084
2.546,0.088
2.547,0.084
2.548,0.084
2.549,0.084
2.550,0.086
2.551,0.091
2.552,0.095
2.553,0.100
2.554,0.100
2.555,0.103
2.556,0.108
2.557,0.113
2.558,0.114
2.559,0.116
2.560,0.117
2.561,0.122
2.562,0.124
2.563,0.125
2.564,0.128
2.565,0.134
2.566,0.133
2.567,0.134
2.568,0.137
2.569,0.141
2.570,0.137
2.571,0.141
2.572,0.143
2.573,0.144
2.574,0.145
2.575,0.150
2.576,0.153
2.577,0.153
2.578,0.155
2.579,0.159
2.580,0.158
2.581,0.159
2.582,0.162
2.583,0.162
2.584,0.169
2.585,0.172
2.586,0.172
2.587,0.172
2.588,0.172
2.589,0.172
2.590,0.175
2.591,0.175
2.592,0.177
2.593,0.175
2.594,0.176
2.595,0.181
2.596,0.180
2.597,0.181
2.598,0.180
2.599,0.181
2.600,0.183
2.601,0.188
2.602,0.191
2.603,0.191
2.604,0.189
2.605,0.191
2.606,0.191
2.607,0.191
2.608,0.191
2.609,0.194
2.610,0.196
2.611,0.197
2.612,0.201
2.613,0.203
2.614,0.206
2.615,0.206
2.616,0.211
2.617,0.213
2.618,0.209
2.619,0.213
2.620,0.211
2.621,0.209
2.622,0.216
2.623,0.219
2.624,0.214
2.625,0.209
2.626,0.208
2.627,0.206
2.628,0.200
2.629,0.200
2.630,0.197
2.631,0.191
2.632,0.186
2.633,0.184
2.634,0.181
2.635,0.181
2.636,0.175
2.637,0.169
2.638,0.167
2.639,0.162
2.640,0.155
2.641,0.147
2.642,0.137
2.643,0.128
2.644,0.119
2.645,0.113
2.646,0.111
2.647,0.106
2.648,0.097
2.649,0.088
2.650,0.080
2.651,0.072
2.652,0.067
2.653,0.063
2.654,0.053
2.655,0.050
2.656,0.047
2.657,0.041
2.658,0.036
2.659,0.028
2.660,0.025
2.661,0.019
2.662,0.011
2.663,0.006
2.664,0.002
2.665,-0.006
2.666,-0.005
2.667,-0.006
2.668,-0.009
2.669,-0.012
2.670,-0.016
2.671,-0.019
2.672,-0.023
2.673,-0.028
2.674,-0.027
2.675,-0.031
2.676,-0.034
2.677,-0.037
2.678,-0.044
2.679,-0.047
2.680,-0.050
2.681,-0.053
2.682,-0.050
2.683,-0.050
2.684,-0.056
2.685,-0.059
2.686,-0.059
2.687,-0.059
2.688,-0.062
2.689,-0.066
2.690,-0.064
2.691,-0.062
2.692,-0.058
2.693,-0.059
2.694,-0.069
2.695,-0.078
2.696,-0.075
2.697,-0.078
2.698,-0.081
2.699,-0.081
2.700,-0.081
2.701,-0.081
2.702,-0.080
2.703,-0.078
2.704,-0.080
2.705,-0.078
2.706,-0.083
2.707,-0.084
2.708,-0.086
2.709,-0.084
2.710,-0.084
2.711,-0.084
2.712,-0.084
2.713,-0.081
2.714,-0.081
2.715,-0.081
2.716,-0.084
2.717,-0.084
2.718,-0.083
2.719,-0.078
2.720,-0.081
2.721,-0.078
2.722,-0.078
2.723,-0.078
2.724,-0.075
2.725,-0.078
2.726,-0.078
2.727,-0.078
2.728,-0.072
2.729,-0.069
2.730,-0.070
2.731,-0.069
2.732,-0.072
2.733,-0.075
2.734,-0.073
2.735,-0.075
2.736,-0.075
2.737,-0.072
2.738,-0.071
2.739,-0.069
2.740,-0.066
2.741,-0.066
2.742,-0.070
2.743,-0.069
2.744,-0.069
2.745,-0.069
2.746,-0.066
2.747,-0.066
2.748,-0.064
2.749,-0.059
2.750,-0.059
2.751,-0.059
2.752,-0.058
2.753,-0.053
2.754,-0.053
2.755,-0.053
2.756,-0.051
2.757,-0.053
2.758,-0.053
2.759,-0.053
2.760,-0.047
2.761,-0.044
2.762,-0.045
2.763,-0.044
2.764,-0.047
2.765,-0.050
2.766,-0.046
2.767,-0.047
2.768,-0.053
2.769,-0.053
2.770,-0.050
2.771,-0.050
2.772,-0.050
2.773,-0.050
2.774,-0.046
2.775,-0.044
2.776,-0.045
2.777,-0.047
2.778,-0.044
2.779,-0.044
2.780,-0.048
2.781,-0.047
2.782,-0.046
2.783,-0.044
2.784,-0.044
2.785,-0.044
2.786,-0.046
2.787,-0.044
2.788,-0.044
2.789,-0.044
2.790,-0.045
2.791,-0.047
2.792,-0.045
2.793,-0.047
2.794,-0.047
2.795,-0.047
2.796,-0.047
2.797,-0.047
2.798,-0.050
2.799,-0.050
2.800,-0.047
2.801,-0.050
2.802,-0.049
2.803,-0.050
2.804,-0.050
2.805,-0.050
2.806,-0.050
2.807,-0.050
2.808,-0.047
2.809,-0.047
2.810,-0.046
2.811,-0.044
2.812,-0.045
2.813,-0.047
2.814,-0.050
2.815,-0.053
2.816,-0.052
2.817,-0.053
2.818,-0.053
2.819,-0.056
2.820,-0.059
2.821,-0.062
2.822,-0.066
2.823,-0.066
2.824,-0.066
2.825,-0.066
2.826,-0.066
2.827,-0.066
2.828,-0.067
2.829,-0.069
2.830,-0.067
2.831,-0.069
2.832,-0.062
2.833,-0.062
2.834,-0.067
2.835,-0.069
2.836,-0.064
2.837,-0.066
2.838,-0.066
2.839,-0.066
2.840,-0.069
2.841,-0.069
2.842,-0.069
2.843,-0.072
2.844,-0.072
2.845,-0.072
2.846,-0.075
2.847,-0.075
2.848,-0.078
2.849,-0.084
2.850,-0.084
2.851,-0.087
2.852,-0.087
2.853,-0.087
2.854,-0.089
2.855,-0.087
2.856,-0.086
2.857,-0.084
2.858,-0.084
2.859,-0.084
2.860,-0.089
2.861,-0.091
2.862,-0.091
2.863,-0.091
2.864,-0.091
2.865,-0.094
2.866,-0.094
2.867,-0.097
2.868,-0.098
2.869,-0.100
2.870,-0.100
2.871,-0.100
2.872,-0.101
2.873,-0.103
2.874,-0.102
2.875,-0.103
2.876,-0.103
2.877,-0.103
2.878,-0.106
2.879,-0.106
2.880,-0.106
2.881,-0.106
2.882,-0.107
2.883,-0.106
2.884,-0.103
2.885,-0.103
2.886,-0.104
2.887,-0.106
2.888,-0.107
2.889,-0.109
2.890,-0.109
2.891,-0.109
2.892,-0.112
2.893,-0.112
2.894,-0.112
2.895,-0.112
2.896,-0.112
2.897,-0.112
2.898,-0.112
2.899,-0.116
2.900,-0.111
2.901,-0.109
2.902,-0.109
2.903,-0.109
2.904,-0.112
2.905,-0.112
2.906,-0.111
2.907,-0.109
2.908,-0.112
2.909,-0.116
2.910,-0.116
2.911,-0.119
2.912,-0.119
2.913,-0.116
2.914,-0.119
2.915,-0.119
2.916,-0.119
2.917,-0.116
2.918,-0.114
2.919,-0.116
2.920,-0.117
2.921,-0.119
2.922,-0.120
2.923,-0.119
2.924,-0.117
2.925,-0.119
2.926,-0.120
2.927,-0.122
2.928,-0.122
2.929,-0.125
2.930,-0.128
2.931,-0.128
2.932,-0.127
2.933,-0.128
2.934,-0.127
2.935,-0.128
2.936,-0.128
2.937,-0.128
2.938,-0.127
2.939,-0.125
2.940,-0.129
2.941,-0.128
2.942,-0.125
2.943,-0.122
2.944,-0.122
2.945,-0.122
2.946,-0.123
2.947,-0.125
2.948,-0.126
2.949,-0.128
2.950,-0.125
2.951,-0.125
2.952,-0.128
2.953,-0.128
2.954,-0.126
2.955,-0.125
2.956,-0.122
2.957,-0.116
2.958,-0.112
2.959,-0.106
2.960,-0.100
2.961,-0.091
2.962,-0.089
2.963,-0.081
2.964,-0.077
2.965,-0.069
2.966,-0.064
2.967,-0.059
2.968,-0.054
2.969,-0.053
2.970,-0.046
2.971,-0.047
2.972,-0.049
2.973,-0.053
2.974,-0.062
2.975,-0.059
2.976,-0.058
2.977,-0.059
2.978,-0.054
2.979,-0.047
2.980,-0.042
2.981,-0.034
2.982,-0.036
2.983,-0.034
2.984,-0.031
2.985,-0.031
2.986,-0.027
2.987,-0.022
2.988,-0.019
2.989,-0.016
2.990,-0.009
2.991,-0.006
2.992,-0.002
2.993,-0.003
2.994,-0.011
2.995,-0.016
2.996,-0.017
2.997,-0.019
2.998,-0.021
2.999,-0.025
3.000,-0.025
3.001,-0.028
3.002,-0.028
3.003,-0.031
3.004,-0.032
3.005,-0.034
3.006,-0.036
3.007,-0.037
3.008,-0.036
3.009,-0.034
3.010,-0.037
3.011,-0.037
3.012,-0.039
3.013,-0.041
3.014,-0.044
3.015,-0.047
3.016,-0.050
3.017,-0.053
3.018,-0.058
3.019,-0.059
3.020,-0.064
3.021,-0.066
3.022,-0.071
3.023,-0.084
3.024,-0.100
3.025,-0.112
3.026,-0.122
3.027,-0.128
3.028,-0.131
3.029,-0.128
3.030,-0.130
3.031,-0.131
3.032,-0.136
3.033,-0.141
3.034,-0.141
3.035,-0.144
3.036,-0.142
3.037,-0.144
3.038,-0.142
3.039,-0.147
3.040,-0.146
3.041,-0.147
3.042,-0.149
3.043,-0.150
3.044,-0.153
3.045,-0.156
3.046,-0.157
3.047,-0.162
3.048,-0.161
3.049,-0.162
3.050,-0.164
3.051,-0.162
3.052,-0.159
3.053,-0.156
3.054,-0.156
3.055,-0.156
3.056,-0.156
3.057,-0.156
3.058,-0.161
3.059,-0.162
3.060,-0.166
3.061,-0.166
3.062,-0.167
3.063,-0.172
3.064,-0.171
3.065,-0.169
3.066,-0.169
3.067,-0.169
3.068,-0.173
3.069,-0.175
3.070,-0.174
3.071,-0.172
3.072,-0.176
3.073,-0.175
3.074,-0.175
3.075,-0.172
3.076,-0.171
3.077,-0.169
3.078,-0.173
3.079,-0.178
3.080,-0.178
3.081,-0.181
3.082,-0.180
3.083,-0.178
3.084,-0.178
3.085,-0.178
3.086,-0.177
3.087,-0.178
3.088,-0.178
3.089,-0.178
3.090,-0.181
3.091,-0.184
3.092,-0.194
3.093,-0.213
3.094,-0.228
3.095,-0.250
3.096,-0.281
3.097,-0.306
3.098,-0.332
3.099,-0.341
3.100,-0.347
3.101,-0.337
3.102,-0.326
3.103,-0.312
3.104,-0.300
3.105,-0.275
3.106,-0.237
3.107,-0.203
3.108,-0.172
3.109,-0.137
3.110,-0.107
3.111,-0.056
3.112,0.002
3.113,0.066
3.114,0.131
3.115,0.206
3.116,0.283
3.117,0.388
3.118,0.495
3.119,0.606
3.120,0.722
3.121,0.828
3.122,0.933
3.123,1.031
3.124,1.121
3.125,1.225
3.126,1.338
3.127,1.438
3.128,1.567
3.129,1.603
3.130,1.595
3.131,1.519
3.132,1.402
3.133,1.297
3.134,1.198
3.135,1.094
3.136,0.964
3.137,0.834
3.138,0.716
3.139,0.603
3.140,0.494
3.141,0.391
3.142,0.286
3.143,0.188
3.144,0.097
3.145,0.034
3.146,-0.019
3.147,-0.072
3.148,-0.132
3.149,-0.169
3.150,-0.202
3.151,-0.206
3.152,-0.205
3.153,-0.194
3.154,-0.186
3.155,-0.156
3.156,-0.132
3.157,-0.112
3.158,-0.086
3.159,-0.072
3.160,-0.050
3.161,-0.037
3.162,-0.029
3.163,-0.025
3.164,-0.022
3.165,-0.025
3.166,-0.025
3.167,-0.028
3.168,-0.031
3.169,-0.041
3.170,-0.044
3.171,-0.047
3.172,-0.050
3.173,-0.050
3.174,-0.058
3.175,-0.066
3.176,-0.069
3.177,-0.069
3.178,-0.075
3.179,-0.075
3.180,-0.079
3.181,-0.081
3.182,-0.084
3.183,-0.084
3.184,-0.081
3.185,-0.084
3.186,-0.084
3.187,-0.084
3.188,-0.084
3.189,-0.084
3.190,-0.083
3.191,-0.081
3.192,-0.081
3.193,-0.081
3.194,-0.081
3.195,-0.081
3.196,-0.084
3.197,-0.084
3.198,-0.089
3.199,-0.087
3.200,-0.084
3.201,-0.081
3.202,-0.080
3.203,-0.078
3.204,-0.079
3.205,-0.081
3.206,-0.081
3.207,-0.081
3.208,-0.081
3.209,-0.078
3.210,-0.076
3.211,-0.078
3.212,-0.075
3.213,-0.072
3.214,-0.072
3.215,-0.072
3.216,-0.067
3.217,-0.066
3.218,-0.066
3.219,-0.066
3.220,-0.061
3.221,-0.059
3.222,-0.058
3.223,-0.056
3.224,-0.058
3.225,-0.056
3.226,-0.056
3.227,-0.056
3.228,-0.054
3.229,-0.056
3.230,-0.054
3.231,-0.056
3.232,-0.056
3.233,-0.056
3.234,-0.056
3.235,-0.053
3.236,-0.049
3.237,-0.047
3.238,-0.048
3.239,-0.047
3.240,-0.048
3.241,-0.047
3.242,-0.044
3.243,-0.037
3.244,-0.031
3.245,-0.025
3.246,-0.024
3.247,-0.022
3.248,-0.023
3.249,-0.022
3.250,-0.022
3.251,-0.019
3.252,-0.016
3.253,-0.016
3.254,-0.014
3.255,-0.012
3.256,-0.012
3.257,-0.012
3.258,-0.009
3.259,-0.006
3.260,-0.003
3.261,-0.003
3.262,0.000
3.263,0.000
3.264,0.003
3.265,0.003
3.266,0.009
3.267,0.009
3.268,0.011
3.269,0.013
3.270,0.013
3.271,0.016
3.272,0.019
3.273,0.019
3.274,0.019
3.275,0.016
3.276,0.026
3.277,0.031
3.278,0.033
3.279,0.034
3.280,0.031
3.281,0.031
3.282,0.038
3.283,0.044
3.284,0.043
3.285,0.044
3.286,0.047
3.287,0.050
3.288,0.056
3.289,0.063
3.290,0.063
3.291,0.066
3.292,0.069
3.293,0.072
3.294,0.071
3.295,0.072
3.296,0.073
3.297,0.078
3.298,0.081
3.299,0.084
3.300,0.088
3.301,0.097
3.302,0.099
3.303,0.100
3.304,0.099
3.305,0.100
3.306,0.102
3.307,0.100
3.308,0.103
3.309,0.109
3.310,0.111
3.311,0.116
3.312,0.119
3.313,0.119
3.314,0.122
3.315,0.122
3.316,0.125
3.317,0.128
3.318,0.129
3.319,0.131
3.320,0.134
3.321,0.134
3.322,0.137
3.323,0.137
3.324,0.136
3.325,0.137
3.326,0.136
3.327,0.137
3.328,0.139
3.329,0.144
3.330,0.143
3.331,0.144
3.332,0.150
3.333,0.153
3.334,0.154
3.335,0.159
3.336,0.158
3.337,0.156
3.338,0.155
3.339,0.156
3.340,0.161
3.341,0.166
3.342,0.169
3.343,0.169
3.344,0.171
3.345,0.169
3.346,0.172
3.347,0.172
3.348,0.168
3.349,0.169
3.350,0.170
3.351,0.172
3.352,0.176
3.353,0.178
3.354,0.176
3.355,0.175
3.356,0.176
3.357,0.178
3.358,0.169
3.359,0.166
3.360,0.166
3.361,0.162
3.362,0.162
3.363,0.166
3.364,0.158
3.365,0.153
3.366,0.144
3.367,0.134
3.368,0.128
3.369,0.119
3.370,0.114
3.371,0.109
3.372,0.103
3.373,0.097
3.374,0.084
3.375,0.075
3.376,0.072
3.377,0.066
3.378,0.059
3.379,0.053
3.380,0.047
3.381,0.041
3.382,0.033
3.383,0.025
3.384,0.009
3.385,0.000
3.386,-0.005
3.387,-0.012
3.388,-0.017
3.389,-0.025
3.390,-0.027
3.391,-0.031
3.392,-0.034
3.393,-0.034
3.394,-0.034
3.395,-0.037
3.396,-0.042
3.397,-0.050
3.398,-0.056
3.399,-0.062
3.400,-0.064
3.401,-0.066
3.402,-0.069
3.403,-0.072
3.404,-0.076
3.405,-0.087
3.406,-0.089
3.407,-0.091
3.408,-0.092
3.409,-0.091
3.410,-0.095
3.411,-0.100
3.412,-0.101
3.413,-0.106
3.414,-0.109
3.415,-0.109
3.416,-0.109
3.417,-0.109
3.418,-0.114
3.419,-0.119
3.420,-0.117
3.421,-0.116
3.422,-0.112
3.423,-0.116
3.424,-0.119
3.425,-0.122
3.426,-0.119
3.427,-0.122
3.428,-0.125
3.429,-0.125
3.430,-0.126
3.431,-0.128
3.432,-0.128
3.433,-0.128
3.434,-0.131
3.435,-0.131
3.436,-0.137
3.437,-0.141
3.438,-0.141
3.439,-0.137
3.440,-0.134
3.441,-0.131
3.442,-0.134
3.443,-0.134
3.444,-0.133
3.445,-0.131
3.446,-0.131
3.447,-0.128
3.448,-0.129
3.449,-0.128
3.450,-0.132
3.451,-0.131
3.452,-0.130
3.453,-0.128
3.454,-0.125
3.455,-0.128
3.456,-0.129
3.457,-0.131
3.458,-0.129
3.459,-0.131
3.460,-0.130
3.461,-0.125
3.462,-0.125
3.463,-0.125
3.464,-0.123
3.465,-0.125
3.466,-0.124
3.467,-0.119
3.468,-0.117
3.469,-0.116
3.470,-0.112
3.471,-0.112
3.472,-0.116
3.473,-0.112
3.474,-0.112
3.475,-0.112
3.476,-0.109
3.477,-0.109
3.478,-0.108
3.479,-0.103
3.480,-0.103
3.481,-0.103
3.482,-0.104
3.483,-0.103
3.484,-0.104
3.485,-0.106
3.486,-0.103
3.487,-0.103
3.488,-0.100
3.489,-0.097
3.490,-0.095
3.491,-0.097
3.492,-0.097
3.493,-0.094
3.494,-0.094
3.495,-0.094
3.496,-0.091
3.497,-0.094
3.498,-0.097
3.499,-0.094
3.500,-0.089
3.501,-0.087
3.502,-0.089
3.503,-0.091
3.504,-0.089
3.505,-0.091
3.506,-0.092
3.507,-0.094
3.508,-0.089
3.509,-0.087
3.510,-0.091
3.511,-0.087
3.512,-0.084
3.513,-0.081
3.514,-0.081
3.515,-0.081
3.516,-0.084
3.517,-0.084
3.518,-0.084
3.519,-0.084
3.520,-0.084
3.521,-0.084
3.522,-0.083
3.523,-0.084
3.524,-0.086
3.525,-0.087
3.526,-0.086
3.527,-0.084
3.528,-0.087
3.529,-0.087
3.530,-0.084
3.531,-0.087
3.532,-0.086
3.533,-0.087
3.534,-0.087
3.535,-0.087
3.536,-0.087
3.537,-0.087
3.538,-0.091
3.539,-0.097
3.540,-0.094
3.541,-0.091
3.542,-0.089
3.543,-0.087
3.544,-0.087
3.545,-0.087
3.546,-0.087
3.547,-0.091
3.548,-0.092
3.549,-0.097
3.550,-0.096
3.551,-0.094
3.552,-0.097
3.553,-0.097
3.554,-0.097
3.555,-0.097
3.556,-0.096
3.557,-0.094
3.558,-0.097
3.559,-0.100
3.560,-0.101
3.561,-0.106
3.562,-0.102
3.563,-0.103
3.564,-0.106
3.565,-0.106
3.566,-0.102
3.567,-0.103
3.568,-0.102
3.569,-0.100
3.570,-0.103
3.571,-0.103
3.572,-0.104
3.573,-0.109
3.574,-0.109
3.575,-0.109
3.576,-0.112
3.577,-0.112
3.578,-0.109
3.579,-0.109
3.580,-0.106
3.581,-0.106
3.582,-0.106
3.583,-0.106
3.584,-0.109
3.585,-0.109
3.586,-0.112
3.587,-0.116
3.588,-0.114
3.589,-0.112
3.590,-0.114
3.591,-0.112
3.592,-0.114
3.593,-0.116
3.594,-0.117
3.595,-0.122
3.596,-0.121
3.597,-0.122
3.598,-0.123
3.599,-0.125
3.600,-0.125
3.601,-0.125
3.602,-0.128
3.603,-0.131
3.604,-0.132
3.605,-0.137
3.606,-0.137
3.607,-0.137
3.608,-0.137
3.609,-0.134
3.610,-0.131
3.611,-0.128
3.612,-0.129
3.613,-0.128
3.614,-0.128
3.615,-0.131
3.616,-0.131
3.617,-0.131
3.618,-0.132
3.619,-0.134
3.620,-0.134
3.621,-0.134
3.622,-0.137
3.623,-0.137
3.624,-0.139
3.625,-0.141
3.626,-0.136
3.627,-0.134
3.628,-0.139
3.629,-0.137
3.630,-0.139
3.631,-0.137
3.632,-0.137
3.633,-0.137
3.634,-0.137
3.635,-0.141
3.636,-0.139
3.637,-0.141
3.638,-0.139
3.639,-0.137
3.640,-0.141
3.641,-0.141
3.642,-0.142
3.643,-0.144
3.644,-0.145
3.645,-0.147
3.646,-0.146
3.647,-0.147
3.648,-0.146
3.649,-0.141
3.650,-0.144
3.651,-0.144
3.652,-0.144
3.653,-0.141
3.654,-0.139
3.655,-0.141
3.656,-0.142
3.657,-0.144
3.658,-0.145
3.659,-0.144
3.660,-0.142
3.661,-0.144
3.662,-0.144
3.663,-0.144
3.664,-0.142
3.665,-0.144
3.666,-0.145
3.667,-0.144
3.668,-0.142
3.669,-0.144
3.670,-0.144
3.671,-0.147
3.672,-0.147
3.673,-0.147
3.674,-0.147
3.675,-0.147
3.676,-0.151
3.677,-0.150
3.678,-0.150
3.679,-0.150
3.680,-0.149
3.681,-0.147
3.682,-0.147
3.683,-0.147
3.684,-0.146
3.685,-0.144
3.686,-0.141
3.687,-0.141
3.688,-0.142
3.689,-0.141
3.690,-0.136
3.691,-0.131
3.692,-0.126
3.693,-0.119
3.694,-0.117
3.695,-0.112
3.696,-0.109
3.697,-0.103
3.698,-0.103
3.699,-0.097
3.700,-0.094
3.701,-0.087
3.702,-0.083
3.703,-0.078
3.704,-0.069
3.705,-0.062
3.706,-0.058
3.707,-0.062
3.708,-0.067
3.709,-0.075
3.710,-0.084
3.711,-0.081
3.712,-0.075
3.713,-0.072
3.714,-0.067
3.715,-0.059
3.716,-0.058
3.717,-0.053
3.718,-0.050
3.719,-0.044
3.720,-0.039
3.721,-0.037
3.722,-0.034
3.723,-0.031
3.724,-0.028
3.725,-0.025
3.726,-0.021
3.727,-0.019
3.728,-0.017
3.729,-0.022
3.730,-0.028
3.731,-0.031
3.732,-0.030
3.733,-0.028
3.734,-0.030
3.735,-0.034
3.736,-0.034
3.737,-0.037
3.738,-0.036
3.739,-0.037
3.740,-0.039
3.741,-0.041
3.742,-0.042
3.743,-0.044
3.744,-0.044
3.745,-0.044
3.746,-0.048
3.747,-0.050
3.748,-0.050
3.749,-0.050
3.750,-0.053
3.751,-0.056
3.752,-0.061
3.753,-0.066
3.754,-0.067
3.755,-0.066
3.756,-0.067
3.757,-0.066
3.758,-0.072
3.759,-0.087
3.760,-0.101
3.761,-0.112
3.762,-0.120
3.763,-0.125
3.764,-0.131
3.765,-0.131
3.766,-0.133
3.767,-0.134
3.768,-0.136
3.769,-0.137
3.770,-0.137
3.771,-0.141
3.772,-0.144
3.773,-0.150
3.774,-0.144
3.775,-0.144
3.776,-0.142
3.777,-0.144
3.778,-0.148
3.779,-0.153
3.780,-0.156
3.781,-0.159
3.782,-0.158
3.783,-0.159
3.784,-0.158
3.785,-0.159
3.786,-0.161
3.787,-0.159
3.788,-0.159
3.789,-0.159
3.790,-0.159
3.791,-0.159
3.792,-0.161
3.793,-0.162
3.794,-0.164
3.795,-0.162
3.796,-0.166
3.797,-0.166
3.798,-0.164
3.799,-0.166
3.800,-0.167
3.801,-0.169
3.802,-0.167
3.803,-0.166
3.804,-0.169
3.805,-0.169
3.806,-0.169
3.807,-0.169
3.808,-0.169
3.809,-0.162
3.810,-0.164
3.811,-0.162
3.812,-0.162
3.813,-0.162
3.814,-0.164
3.815,-0.166
3.816,-0.162
3.817,-0.162
3.818,-0.162
3.819,-0.162
3.820,-0.167
3.821,-0.172
3.822,-0.171
3.823,-0.172
3.824,-0.174
3.825,-0.175
3.826,-0.178
3.827,-0.181
3.828,-0.189
3.829,-0.206
3.830,-0.225
3.831,-0.250
3.832,-0.278
3.833,-0.300
3.834,-0.328
3.835,-0.337
3.836,-0.347
3.837,-0.341
3.838,-0.325
3.839,-0.306
3.840,-0.292
3.841,-0.266
3.842,-0.231
3.843,-0.200
3.844,-0.170
3.845,-0.137
3.846,-0.114
3.847,-0.069
3.848,-0.007
3.849,0.059
3.850,0.121
3.851,0.191
3.852,0.261
3.853,0.359
3.854,0.466
3.855,0.575
3.856,0.694
3.857,0.803
3.858,0.911
3.859,1.013
3.860,1.104
3.861,1.213
3.862,1.333
3.863,1.441
3.864,1.569
3.865,1.603
3.866,1.598
3.867,1.525
3.868,1.417
3.869,1.322
3.870,1.231
3.871,1.134
3.872,1.009
3.873,0.884
3.874,0.763
3.875,0.647
3.876,0.534
3.877,0.428
3.878,0.321
3.879,0.219
3.880,0.125
3.881,0.059
3.882,0.003
3.883,-0.053
3.884,-0.114
3.885,-0.150
3.886,-0.186
3.887,-0.194
3.888,-0.198
3.889,-0.194
3.890,-0.182
3.891,-0.150
3.892,-0.125
3.893,-0.103
3.894,-0.075
3.895,-0.059
3.896,-0.041
3.897,-0.031
3.898,-0.023
3.899,-0.019
3.900,-0.016
3.901,-0.019
3.902,-0.020
3.903,-0.025
3.904,-0.022
3.905,-0.025
3.906,-0.029
3.907,-0.034
3.908,-0.039
3.909,-0.041
3.910,-0.044
3.911,-0.047
3.912,-0.054
3.913,-0.059
3.914,-0.066
3.915,-0.066
3.916,-0.067
3.917,-0.066
3.918,-0.069
3.919,-0.069
3.920,-0.066
3.921,-0.069
3.922,-0.070
3.923,-0.072
3.924,-0.072
3.925,-0.072
3.926,-0.072
3.927,-0.072
3.928,-0.072
3.929,-0.072
3.930,-0.073
3.931,-0.075
3.932,-0.075
3.933,-0.072
3.934,-0.074
3.935,-0.069
3.936,-0.069
3.937,-0.069
3.938,-0.069
3.939,-0.069
3.940,-0.069
3.941,-0.069
3.942,-0.069
3.943,-0.069
3.944,-0.070
3.945,-0.069
3.946,-0.066
3.947,-0.066
3.948,-0.066
3.949,-0.066
3.950,-0.061
3.951,-0.056
3.952,-0.053
3.953,-0.053
3.954,-0.056
3.955,-0.059
3.956,-0.058
3.957,-0.059
3.958,-0.055
3.959,-0.050
3.960,-0.051
3.961,-0.050
3.962,-0.050
3.963,-0.050
3.964,-0.047
3.965,-0.047
3.966,-0.042
3.967,-0.041
3.968,-0.037
3.969,-0.034
3.970,-0.034
3.971,-0.031
3.972,-0.028
3.973,-0.028
3.974,-0.029
3.975,-0.028
3.976,-0.025
3.977,-0.019
3.978,-0.019
3.979,-0.016
3.980,-0.014
3.981,-0.012
3.982,-0.012
3.983,-0.012
3.984,-0.014
3.985,-0.012
3.986,-0.011
3.987,-0.006
3.988,-0.002
3.989,0.000
3.990,0.002
3.991,0.003
3.992,0.003
3.993,0.003
3.994,0.006
3.995,0.009
3.996,0.013
3.997,0.013
3.998,0.017
3.999,0.019
4.000,0.023
4.001,0.025
4.002,0.030
4.003,0.028
4.004,0.028
4.005,0.028
4.006,0.029
4.007,0.034
4.008,0.041
4.009,0.044
4.010,0.044
4.011,0.041
4.012,0.047
4.013,0.047
4.014,0.049
4.015,0.050
4.016,0.049
4.017,0.050
4.018,0.056
4.019,0.063
4.020,0.066
4.021,0.072
4.022,0.075
4.023,0.078
4.024,0.080
4.025,0.081
4.026,0.081
4.027,0.084
4.028,0.091
4.029,0.097
4.030,0.097
4.031,0.100
4.032,0.101
4.033,0.106
4.034,0.108
4.035,0.109
4.036,0.111
4.037,0.119
4.038,0.123
4.039,0.128
4.040,0.129
4.041,0.134
4.042,0.137
4.043,0.137
4.044,0.141
4.045,0.147
4.046,0.148
4.047,0.153
4.048,0.156
4.049,0.156
4.050,0.159
4.051,0.159
4.052,0.159
4.053,0.159
4.054,0.162
4.055,0.166
4.056,0.169
4.057,0.169
4.058,0.171
4.059,0.169
4.060,0.170
4.061,0.175
4.062,0.176
4.063,0.181
4.064,0.180
4.065,0.181
4.066,0.180
4.067,0.181
4.068,0.188
4.069,0.191
4.070,0.189
4.071,0.191
4.072,0.194
4.073,0.197
4.074,0.196
4.075,0.197
4.076,0.197
4.077,0.197
4.078,0.201
4.079,0.203
4.080,0.206
4.081,0.206
4.082,0.211
4.083,0.213
4.084,0.209
4.085,0.213
4.086,0.213
4.087,0.213
4.088,0.216
4.089,0.216
4.090,0.214
4.091,0.213
4.092,0.214
4.093,0.216
4.094,0.208
4.095,0.206
4.096,0.206
4.097,0.203
4.098,0.200
4.099,0.200
4.100,0.194
4.101,0.191
4.102,0.184
4.103,0.178
4.104,0.172
4.105,0.162
4.106,0.155
4.107,0.147
4.108,0.142
4.109,0.137
4.110,0.124
4.111,0.113
4.112,0.106
4.113,0.097
4.114,0.088
4.115,0.078
4.116,0.069
4.117,0.059
4.118,0.059
4.119,0.059
4.120,0.050
4.121,0.047
4.122,0.041
4.123,0.031
4.124,0.025
4.125,0.016
4.126,0.016
4.127,0.013
4.128,0.003
4.129,-0.003
4.130,-0.005
4.131,-0.009
4.132,-0.012
4.133,-0.019
4.134,-0.023
4.135,-0.028
4.136,-0.031
4.137,-0.034
4.138,-0.039
4.139,-0.044
4.140,-0.041
4.141,-0.044
4.142,-0.047
4.143,-0.050
4.144,-0.052
4.145,-0.050
4.146,-0.056
4.147,-0.062
4.148,-0.062
4.149,-0.066
4.150,-0.069
4.151,-0.069
4.152,-0.072
4.153,-0.075
4.154,-0.075
4.155,-0.075
4.156,-0.075
4.157,-0.075
4.158,-0.072
4.159,-0.075
4.160,-0.077
4.161,-0.078
4.162,-0.074
4.163,-0.075
4.164,-0.079
4.165,-0.081
4.166,-0.083
4.167,-0.084
4.168,-0.086
4.169,-0.087
4.170,-0.089
4.171,-0.087
4.172,-0.091
4.173,-0.091
4.174,-0.092
4.175,-0.091
4.176,-0.089
4.177,-0.087
4.178,-0.094
4.179,-0.097
4.180,-0.094
4.181,-0.091
4.182,-0.092
4.183,-0.091
4.184,-0.091
4.185,-0.087
4.186,-0.092
4.187,-0.091
4.188,-0.092
4.189,-0.094
4.190,-0.089
4.191,-0.091
4.192,-0.092
4.193,-0.094
4.194,-0.092
4.195,-0.094
4.196,-0.095
4.197,-0.094
4.198,-0.092
4.199,-0.091
4.200,-0.087
4.201,-0.087
4.202,-0.086
4.203,-0.081
4.204,-0.080
4.205,-0.078
4.206,-0.074
4.207,-0.072
4.208,-0.075
4.209,-0.072
4.210,-0.072
4.211,-0.072
4.212,-0.069
4.213,-0.069
4.214,-0.069
4.215,-0.066
4.216,-0.066
4.217,-0.066
4.218,-0.067
4.219,-0.066
4.220,-0.067
4.221,-0.069
4.222,-0.067
4.223,-0.069
4.224,-0.069
4.225,-0.069
4.226,-0.061
4.227,-0.056
4.228,-0.058
4.229,-0.056
4.230,-0.056
4.231,-0.056
4.232,-0.053
4.233,-0.056
4.234,-0.062
4.235,-0.062
4.236,-0.061
4.237,-0.062
4.238,-0.062
4.239,-0.062
4.240,-0.061
4.241,-0.062
4.242,-0.059
4.243,-0.056
4.244,-0.054
4.245,-0.056
4.246,-0.061
4.247,-0.059
4.248,-0.056
4.249,-0.053
4.250,-0.052
4.251,-0.050
4.252,-0.052
4.253,-0.050
4.254,-0.050
4.255,-0.050
4.256,-0.050
4.257,-0.050
4.258,-0.048
4.259,-0.050
4.260,-0.050
4.261,-0.050
4.262,-0.049
4.263,-0.047
4.264,-0.051
4.265,-0.053
4.266,-0.050
4.267,-0.053
4.268,-0.052
4.269,-0.053
4.270,-0.053
4.271,-0.053
4.272,-0.054
4.273,-0.056
4.274,-0.055
4.275,-0.056
4.276,-0.058
4.277,-0.059
4.278,-0.062
4.279,-0.066
4.280,-0.066
4.281,-0.066
4.282,-0.064
4.283,-0.066
4.284,-0.064
4.285,-0.066
4.286,-0.066
4.287,-0.066
4.288,-0.067
4.289,-0.066
4.290,-0.062
4.291,-0.059
4.292,-0.062
4.293,-0.066
4.294,-0.067
4.295,-0.069
4.296,-0.067
4.297,-0.069
4.298,-0.066
4.299,-0.069
4.300,-0.072
4.301,-0.072
4.302,-0.069
4.303,-0.072
4.304,-0.071
4.305,-0.069
4.306,-0.072
4.307,-0.072
4.308,-0.071
4.309,-0.072
4.310,-0.072
4.311,-0.072
4.312,-0.075
4.313,-0.075
4.314,-0.074
4.315,-0.075
4.316,-0.076
4.317,-0.081
4.318,-0.080
4.319,-0.078
4.320,-0.081
4.321,-0.081
4.322,-0.083
4.323,-0.084
4.324,-0.083
4.325,-0.081
4.326,-0.086
4.327,-0.087
4.328,-0.087
4.329,-0.087
4.330,-0.086
4.331,-0.087
4.332,-0.086
4.333,-0.087
4.334,-0.089
4.335,-0.091
4.336,-0.091
4.337,-0.091
4.338,-0.089
4.339,-0.087
4.340,-0.086
4.341,-0.087
4.342,-0.091
4.343,-0.094
4.344,-0.097
4.345,-0.097
4.346,-0.097
4.347,-0.097
4.348,-0.098
4.349,-0.097
4.350,-0.097
4.351,-0.100
4.352,-0.100
4.353,-0.100
4.354,-0.097
4.355,-0.094
4.356,-0.094
4.357,-0.094
4.358,-0.100
4.359,-0.103
4.360,-0.103
4.361,-0.103
4.362,-0.102
4.363,-0.103
4.364,-0.107
4.365,-0.106
4.366,-0.107
4.367,-0.106
4.368,-0.104
4.369,-0.103
4.370,-0.099
4.371,-0.094
4.372,-0.098
4.373,-0.097
4.374,-0.100
4.375,-0.103
4.376,-0.104
4.377,-0.109
4.378,-0.111
4.379,-0.112
4.380,-0.111
4.381,-0.109
4.382,-0.108
4.383,-0.106
4.384,-0.111
4.385,-0.112
4.386,-0.109
4.387,-0.112
4.388,-0.112
4.389,-0.112
4.390,-0.111
4.391,-0.112
4.392,-0.116
4.393,-0.116
4.394,-0.116
4.395,-0.116
4.396,-0.111
4.397,-0.109
4.398,-0.111
4.399,-0.109
4.400,-0.109
4.401,-0.109
4.402,-0.111
4.403,-0.109
4.404,-0.106
4.405,-0.106
4.406,-0.109
4.407,-0.109
4.408,-0.116
4.409,-0.119
4.410,-0.120
4.411,-0.122
4.412,-0.122
4.413,-0.125
4.414,-0.122
4.415,-0.122
4.416,-0.123
4.417,-0.125
4.418,-0.122
4.419,-0.119
4.420,-0.117
4.421,-0.116
4.422,-0.117
4.423,-0.116
4.424,-0.114
4.425,-0.112
4.426,-0.111
4.427,-0.109
4.428,-0.107
4.429,-0.103
4.430,-0.091
4.431,-0.084
4.432,-0.079
4.433,-0.078
4.434,-0.072
4.435,-0.072
4.436,-0.066
4.437,-0.062
4.438,-0.056
4.439,-0.053
4.440,-0.050
4.441,-0.044
4.442,-0.041
4.443,-0.037
4.444,-0.042
4.445,-0.044
4.446,-0.051
4.447,-0.059
4.448,-0.059
4.449,-0.062
4.450,-0.061
4.451,-0.053
4.452,-0.042
4.453,-0.037
4.454,-0.030
4.455,-0.025
4.456,-0.018
4.457,-0.012
4.458,-0.012
4.459,-0.009
4.460,-0.007
4.461,-0.006
4.462,-0.002
4.463,0.003
4.464,0.003
4.465,0.006
4.466,0.004
4.467,0.000
4.468,-0.004
4.469,-0.006
4.470,-0.006
4.471,-0.009
4.472,-0.014
4.473,-0.012
4.474,-0.017
4.475,-0.019
4.476,-0.023
4.477,-0.025
4.478,-0.025
4.479,-0.025
4.480,-0.024
4.481,-0.022
4.482,-0.021
4.483,-0.022
4.484,-0.023
4.485,-0.028
4.486,-0.031
4.487,-0.034
4.488,-0.039
4.489,-0.044
4.490,-0.046
4.491,-0.047
4.492,-0.044
4.493,-0.047
4.494,-0.054
4.495,-0.066
4.496,-0.080
4.497,-0.091
4.498,-0.100
4.499,-0.106
4.500,-0.109
4.501,-0.112
4.502,-0.108
4.503,-0.109
4.504,-0.109
4.505,-0.109
4.506,-0.109
4.507,-0.106
4.508,-0.109
4.509,-0.109
4.510,-0.117
4.511,-0.119
4.512,-0.126
4.513,-0.131
4.514,-0.130
4.515,-0.128
4.516,-0.130
4.517,-0.128
4.518,-0.132
4.519,-0.137
4.520,-0.142
4.521,-0.144
4.522,-0.147
4.523,-0.147
4.524,-0.142
4.525,-0.141
4.526,-0.139
4.527,-0.137
4.528,-0.137
4.529,-0.137
4.530,-0.136
4.531,-0.137
4.532,-0.137
4.533,-0.141
4.534,-0.141
4.535,-0.141
4.536,-0.145
4.537,-0.147
4.538,-0.146
4.539,-0.144
4.540,-0.147
4.541,-0.153
4.542,-0.152
4.543,-0.150
4.544,-0.150
4.545,-0.153
4.546,-0.150
4.547,-0.150
4.548,-0.147
4.549,-0.147
4.550,-0.151
4.551,-0.159
4.552,-0.164
4.553,-0.162
4.554,-0.162
4.555,-0.162
4.556,-0.162
4.557,-0.162
4.558,-0.161
4.559,-0.159
4.560,-0.161
4.561,-0.162
4.562,-0.161
4.563,-0.162
4.564,-0.170
4.565,-0.181
4.566,-0.200
4.567,-0.219
4.568,-0.244
4.569,-0.272
4.570,-0.292
4.571,-0.312
4.572,-0.317
4.573,-0.322
4.574,-0.312
4.575,-0.300
4.576,-0.278
4.577,-0.256
4.578,-0.226
4.579,-0.194
4.580,-0.169
4.581,-0.144
4.582,-0.111
4.583,-0.078
4.584,-0.025
4.585,0.038
4.586,0.108
4.587,0.175
4.588,0.256
4.589,0.338
4.590,0.445
4.591,0.553
4.592,0.667
4.593,0.781
4.594,0.883
4.595,0.984
4.596,1.081
4.597,1.175
4.598,1.288
4.599,1.400
4.600,1.494
4.601,1.588
4.602,1.589
4.603,1.556
4.604,1.464
4.605,1.363
4.606,1.267
4.607,1.172
4.608,1.063
4.609,0.938
4.610,0.820
4.611,0.706
4.612,0.588
4.613,0.481
4.614,0.378
4.615,0.278
4.616,0.189
4.617,0.100
4.618,0.038
4.619,-0.025
4.620,-0.077
4.621,-0.128
4.622,-0.152
4.623,-0.178
4.624,-0.184
4.625,-0.184
4.626,-0.176
4.627,-0.166
4.628,-0.131
4.629,-0.103
4.630,-0.079
4.631,-0.053
4.632,-0.036
4.633,-0.016
4.634,-0.007
4.635,0.000
4.636,0.005
4.637,0.006
4.638,0.003
4.639,0.003
4.640,-0.001
4.641,-0.003
4.642,-0.009
4.643,-0.012
4.644,-0.014
4.645,-0.019
4.646,-0.025
4.647,-0.034
4.648,-0.044
4.649,-0.050
4.650,-0.049
4.651,-0.053
4.652,-0.054
4.653,-0.059
4.654,-0.059
4.655,-0.062
4.656,-0.062
4.657,-0.059
4.658,-0.062
4.659,-0.062
4.660,-0.062
4.661,-0.062
4.662,-0.062
4.663,-0.062
4.664,-0.059
4.665,-0.056
4.666,-0.058
4.667,-0.059
4.668,-0.061
4.669,-0.062
4.670,-0.058
4.671,-0.059
4.672,-0.055
4.673,-0.053
4.674,-0.053
4.675,-0.053
4.676,-0.054
4.677,-0.056
4.678,-0.053
4.679,-0.050
4.680,-0.051
4.681,-0.053
4.682,-0.051
4.683,-0.050
4.684,-0.050
4.685,-0.050
4.686,-0.050
4.687,-0.050
4.688,-0.051
4.689,-0.050
4.690,-0.047
4.691,-0.044
4.692,-0.045
4.693,-0.044
4.694,-0.044
4.695,-0.041
4.696,-0.037
4.697,-0.037
4.698,-0.034
4.699,-0.034
4.700,-0.036
4.701,-0.034
4.702,-0.034
4.703,-0.031
4.704,-0.031
4.705,-0.028
4.706,-0.024
4.707,-0.022
4.708,-0.022
4.709,-0.022
4.710,-0.021
4.711,-0.019
4.712,-0.012
4.713,-0.009
4.714,-0.007
4.715,-0.009
4.716,-0.007
4.717,-0.006
4.718,0.000
4.719,0.003
4.720,0.002
4.721,0.000
4.722,0.000
4.723,-0.003
4.724,0.000
4.725,0.003
4.726,0.004
4.727,0.009
4.728,0.013
4.729,0.013
4.730,0.016
4.731,0.022
4.732,0.024
4.733,0.025
4.734,0.026
4.735,0.031
4.736,0.028
4.737,0.028
4.738,0.028
4.739,0.034
4.740,0.036
4.741,0.041
4.742,0.045
4.743,0.047
4.744,0.053
4.745,0.059
4.746,0.058
4.747,0.059
4.748,0.059
4.749,0.066
4.750,0.064
4.751,0.066
4.752,0.072
4.753,0.075
4.754,0.078
4.755,0.081
4.756,0.083
4.757,0.081
4.758,0.081
4.759,0.081
4.760,0.083
4.761,0.084
4.762,0.089
4.763,0.091
4.764,0.095
4.765,0.100
4.766,0.104
4.767,0.106
4.768,0.108
4.769,0.106
4.770,0.109
4.771,0.113
4.772,0.117
4.773,0.119
4.774,0.126
4.775,0.131
4.776,0.136
4.777,0.137
4.778,0.141
4.779,0.144
4.780,0.141
4.781,0.141
4.782,0.146
4.783,0.144
4.784,0.147
4.785,0.150
4.786,0.151
4.787,0.156
4.788,0.156
4.789,0.159
4.790,0.162
4.791,0.162
4.792,0.166
4.793,0.172
4.794,0.171
4.795,0.172
4.796,0.175
4.797,0.178
4.798,0.184
4.799,0.188
4.800,0.189
4.801,0.188
4.802,0.188
4.803,0.184
4.804,0.184
4.805,0.184
4.806,0.186
4.807,0.188
4.808,0.194
4.809,0.197
4.810,0.197
4.811,0.197
4.812,0.197
4.813,0.197
4.814,0.199
4.815,0.200
4.816,0.204
4.817,0.213
4.818,0.211
4.819,0.213
4.820,0.214
4.821,0.213
4.822,0.216
4.823,0.216
4.824,0.213
4.825,0.213
4.826,0.216
4.827,0.216
4.828,0.213
4.829,0.213
4.830,0.213
4.831,0.206
4.832,0.211
4.833,0.213
4.834,0.208
4.835,0.206
4.836,0.200
4.837,0.188
4.838,0.186
4.839,0.181
4.840,0.175
4.841,0.169
4.842,0.162
4.843,0.159
4.844,0.149
4.845,0.137
4.846,0.134
4.847,0.128
4.848,0.123
4.849,0.119
4.850,0.106
4.851,0.097
4.852,0.092
4.853,0.088
4.854,0.078
4.855,0.069
4.856,0.066
4.857,0.059
4.858,0.052
4.859,0.041
4.860,0.032
4.861,0.031
4.862,0.024
4.863,0.019
4.864,0.014
4.865,0.009
4.866,0.007
4.867,0.006
4.868,-0.001
4.869,-0.006
4.870,-0.014
4.871,-0.019
4.872,-0.023
4.873,-0.028
4.874,-0.031
4.875,-0.034
4.876,-0.036
4.877,-0.034
4.878,-0.041
4.879,-0.044
4.880,-0.044
4.881,-0.044
4.882,-0.044
4.883,-0.047
4.884,-0.053
4.885,-0.056
4.886,-0.059
4.887,-0.062
4.888,-0.062
4.889,-0.062
4.890,-0.061
4.891,-0.062
4.892,-0.066
4.893,-0.066
4.894,-0.069
4.895,-0.069
4.896,-0.072
4.897,-0.075
4.898,-0.078
4.899,-0.075
4.900,-0.075
4.901,-0.075
4.902,-0.078
4.903,-0.081
4.904,-0.083
4.905,-0.084
4.906,-0.083
4.907,-0.084
4.908,-0.083
4.909,-0.084
4.910,-0.084
4.911,-0.084
4.912,-0.080
4.913,-0.078
4.914,-0.081
4.915,-0.087
4.916,-0.087
4.917,-0.087
4.918,-0.087
4.919,-0.087
4.920,-0.084
4.921,-0.084
4.922,-0.083
4.923,-0.087
4.924,-0.084
4.925,-0.084
4.926,-0.084
4.927,-0.081
4.928,-0.084
4.929,-0.084
4.930,-0.084
4.931,-0.081
4.932,-0.078
4.933,-0.075
4.934,-0.072
4.935,-0.072
4.936,-0.073
4.937,-0.072
4.938,-0.072
4.939,-0.072
4.940,-0.067
4.941,-0.066
4.942,-0.067
4.943,-0.066
4.944,-0.064
4.945,-0.066
4.946,-0.064
4.947,-0.066
4.948,-0.069
4.949,-0.069
4.950,-0.069
4.951,-0.069
4.952,-0.066
4.953,-0.066
4.954,-0.062
4.955,-0.059
4.956,-0.053
4.957,-0.050
4.958,-0.053
4.959,-0.053
4.960,-0.053
4.961,-0.053
4.962,-0.053
4.963,-0.050
4.964,-0.047
4.965,-0.044
4.966,-0.039
4.967,-0.037
4.968,-0.039
4.969,-0.037
4.970,-0.039
4.971,-0.041
4.972,-0.042
4.973,-0.044
4.974,-0.041
4.975,-0.037
4.976,-0.039
4.977,-0.037
4.978,-0.037
4.979,-0.037
4.980,-0.039
4.981,-0.037
4.982,-0.036
4.983,-0.037
4.984,-0.039
4.985,-0.044
4.986,-0.044
4.987,-0.044
4.988,-0.044
4.989,-0.047
4.990,-0.047
4.991,-0.047
4.992,-0.047
4.993,-0.047
4.994,-0.044
4.995,-0.037
4.996,-0.036
4.997,-0.034
4.998,-0.037
4.999,-0.041
5.000,-0.037
5.001,-0.037
5.002,-0.037
5.003,-0.034
5.004,-0.036
5.005,-0.034
5.006,-0.037
5.007,-0.037
5.008,-0.037
5.009,-0.037
5.010,-0.036
5.011,-0.034
5.012,-0.039
5.013,-0.041
5.014,-0.042
5.015,-0.044
5.016,-0.044
5.017,-0.044
5.018,-0.042
5.019,-0.041
5.020,-0.044
5.021,-0.044
5.022,-0.048
5.023,-0.050
5.024,-0.049
5.025,-0.050
5.026,-0.050
5.027,-0.050
5.028,-0.050
5.029,-0.050
5.030,-0.051
5.031,-0.053
5.032,-0.050
5.033,-0.047
5.034,-0.050
5.035,-0.047
5.036,-0.049
5.037,-0.050
5.038,-0.051
5.039,-0.050
5.040,-0.053
5.041,-0.053
5.042,-0.054
5.043,-0.059
5.044,-0.058
5.045,-0.056
5.046,-0.058
5.047,-0.056
5.048,-0.056
5.049,-0.059
5.050,-0.062
5.051,-0.066
5.052,-0.069
5.053,-0.066
5.054,-0.066
5.055,-0.066
5.056,-0.064
5.057,-0.066
5.058,-0.066
5.059,-0.066
5.060,-0.066
5.061,-0.066
5.062,-0.064
5.063,-0.066
5.064,-0.067
5.065,-0.069
5.066,-0.070
5.067,-0.072
5.068,-0.074
5.069,-0.072
5.070,-0.078
5.071,-0.081
5.072,-0.081
5.073,-0.081
5.074,-0.083
5.075,-0.084
5.076,-0.084
5.077,-0.084
5.078,-0.086
5.079,-0.084
5.080,-0.086
5.081,-0.087
5.082,-0.083
5.083,-0.081
5.084,-0.083
5.085,-0.084
5.086,-0.081
5.087,-0.081
5.088,-0.086
5.089,-0.087
5.090,-0.089
5.091,-0.091
5.092,-0.091
5.093,-0.091
5.094,-0.089
5.095,-0.091
5.096,-0.092
5.097,-0.094
5.098,-0.095
5.099,-0.097
5.100,-0.099
5.101,-0.100
5.102,-0.096
5.103,-0.094
5.104,-0.092
5.105,-0.094
5.106,-0.094
5.107,-0.097
5.108,-0.098
5.109,-0.103
5.110,-0.106
5.111,-0.106
5.112,-0.106
5.113,-0.106
5.114,-0.109
5.115,-0.103
5.116,-0.099
5.117,-0.097
5.118,-0.097
5.119,-0.100
5.120,-0.099
5.121,-0.100
5.122,-0.098
5.123,-0.100
5.124,-0.101
5.125,-0.103
5.126,-0.103
5.127,-0.100
5.128,-0.100
5.129,-0.100
5.130,-0.101
5.131,-0.103
5.132,-0.102
5.133,-0.103
5.134,-0.104
5.135,-0.103
5.136,-0.106
5.137,-0.106
5.138,-0.107
5.139,-0.106
5.140,-0.106
5.141,-0.109
5.142,-0.108
5.143,-0.106
5.144,-0.105
5.145,-0.100
5.146,-0.099
5.147,-0.100
5.148,-0.101
5.149,-0.103
5.150,-0.104
5.151,-0.109
5.152,-0.111
5.153,-0.109
5.154,-0.108
5.155,-0.109
5.156,-0.108
5.157,-0.109
5.158,-0.109
5.159,-0.109
5.160,-0.112
5.161,-0.116
5.162,-0.120
5.163,-0.119
5.164,-0.117
5.165,-0.116
5.166,-0.114
5.167,-0.112
5.168,-0.114
5.169,-0.116
5.170,-0.117
5.171,-0.119
5.172,-0.117
5.173,-0.119
5.174,-0.119
5.175,-0.116
5.176,-0.112
5.177,-0.109
5.178,-0.099
5.179,-0.084
5.180,-0.081
5.181,-0.075
5.182,-0.072
5.183,-0.066
5.184,-0.062
5.185,-0.053
5.186,-0.053
5.187,-0.050
5.188,-0.048
5.189,-0.047
5.190,-0.042
5.191,-0.041
5.192,-0.037
5.193,-0.044
5.194,-0.042
5.195,-0.044
5.196,-0.050
5.197,-0.044
5.198,-0.041
5.199,-0.041
5.200,-0.037
5.201,-0.031
5.202,-0.028
5.203,-0.022
5.204,-0.020
5.205,-0.016
5.206,-0.011
5.207,-0.009
5.208,-0.009
5.209,-0.009
5.210,-0.007
5.211,-0.006
5.212,0.000
5.213,0.003
5.214,0.007
5.215,0.006
5.216,-0.003
5.217,-0.009
5.218,-0.011
5.219,-0.012
5.220,-0.012
5.221,-0.016
5.222,-0.017
5.223,-0.022
5.224,-0.022
5.225,-0.025
5.226,-0.026
5.227,-0.028
5.228,-0.024
5.229,-0.019
5.230,-0.022
5.231,-0.025
5.232,-0.028
5.233,-0.028
5.234,-0.028
5.235,-0.028
5.236,-0.031
5.237,-0.034
5.238,-0.039
5.239,-0.044
5.240,-0.047
5.241,-0.047
5.242,-0.053
5.243,-0.056
5.244,-0.059
5.245,-0.072
5.246,-0.083
5.247,-0.091
5.248,-0.100
5.249,-0.106
5.250,-0.111
5.251,-0.109
5.252,-0.117
5.253,-0.125
5.254,-0.127
5.255,-0.128
5.256,-0.129
5.257,-0.134
5.258,-0.136
5.259,-0.141
5.260,-0.137
5.261,-0.141
5.262,-0.134
5.263,-0.131
5.264,-0.131
5.265,-0.131
5.266,-0.132
5.267,-0.134
5.268,-0.136
5.269,-0.141
5.270,-0.142
5.271,-0.147
5.272,-0.148
5.273,-0.147
5.274,-0.150
5.275,-0.153
5.276,-0.152
5.277,-0.150
5.278,-0.147
5.279,-0.144
5.280,-0.147
5.281,-0.147
5.282,-0.150
5.283,-0.150
5.284,-0.149
5.285,-0.150
5.286,-0.150
5.287,-0.150
5.288,-0.154
5.289,-0.159
5.290,-0.164
5.291,-0.166
5.292,-0.162
5.293,-0.159
5.294,-0.161
5.295,-0.156
5.296,-0.156
5.297,-0.153
5.298,-0.154
5.299,-0.156
5.300,-0.158
5.301,-0.159
5.302,-0.157
5.303,-0.159
5.304,-0.159
5.305,-0.159
5.306,-0.159
5.307,-0.159
5.308,-0.159
5.309,-0.162
5.310,-0.166
5.311,-0.169
5.312,-0.176
5.313,-0.184
5.314,-0.197
5.315,-0.219
5.316,-0.234
5.317,-0.256
5.318,-0.283
5.319,-0.303
5.320,-0.324
5.321,-0.325
5.322,-0.329
5.323,-0.319
5.324,-0.303
5.325,-0.284
5.326,-0.266
5.327,-0.234
5.328,-0.200
5.329,-0.169
5.330,-0.134
5.331,-0.097
5.332,-0.059
5.333,0.000
5.334,0.063
5.335,0.131
5.336,0.203
5.337,0.284
5.338,0.366
5.339,0.475
5.340,0.578
5.341,0.684
5.342,0.795
5.343,0.897
5.344,1.000
5.345,1.097
5.346,1.191
5.347,1.300
5.348,1.407
5.349,1.503
5.350,1.583
5.351,1.569
5.352,1.528
5.353,1.419
5.354,1.309
5.355,1.213
5.356,1.108
5.357,0.997
5.358,0.879
5.359,0.763
5.360,0.648
5.361,0.541
5.362,0.434
5.363,0.334
5.364,0.239
5.365,0.150
5.366,0.069
5.367,0.016
5.368,-0.039
5.369,-0.094
5.370,-0.147
5.371,-0.175
5.372,-0.203
5.373,-0.203
5.374,-0.199
5.375,-0.184
5.376,-0.175
5.377,-0.144
5.378,-0.116
5.379,-0.091
5.380,-0.064
5.381,-0.050
5.382,-0.028
5.383,-0.016
5.384,-0.012
5.385,-0.012
5.386,-0.008
5.387,-0.009
5.388,-0.008
5.389,-0.009
5.390,-0.014
5.391,-0.025
5.392,-0.028
5.393,-0.031
5.394,-0.041
5.395,-0.047
5.396,-0.053
5.397,-0.059
5.398,-0.061
5.399,-0.059
5.400,-0.066
5.401,-0.066
5.402,-0.070
5.403,-0.072
5.404,-0.075
5.405,-0.075
5.406,-0.071
5.407,-0.072
5.408,-0.073
5.409,-0.075
5.410,-0.075
5.411,-0.075
5.412,-0.075
5.413,-0.075
5.414,-0.074
5.415,-0.072
5.416,-0.072
5.417,-0.072
5.418,-0.072
5.419,-0.069
5.420,-0.073
5.421,-0.072
5.422,-0.072
5.423,-0.072
5.424,-0.072
5.425,-0.072
5.426,-0.072
5.427,-0.072
5.428,-0.073
5.429,-0.075
5.430,-0.075
5.431,-0.072
5.432,-0.069
5.433,-0.069
5.434,-0.069
5.435,-0.069
5.436,-0.070
5.437,-0.072
5.438,-0.067
5.439,-0.066
5.440,-0.066
5.441,-0.066
5.442,-0.064
5.443,-0.066
5.444,-0.061
5.445,-0.056
5.446,-0.053
5.447,-0.047
5.448,-0.048
5.449,-0.050
5.450,-0.048
5.451,-0.050
5.452,-0.048
5.453,-0.050
5.454,-0.047
5.455,-0.044
5.456,-0.042
5.457,-0.037
5.458,-0.034
5.459,-0.034
5.460,-0.036
5.461,-0.034
5.462,-0.036
5.463,-0.034
5.464,-0.034
5.465,-0.031
5.466,-0.029
5.467,-0.028
5.468,-0.024
5.469,-0.019
5.470,-0.020
5.471,-0.019
5.472,-0.019
5.473,-0.016
5.474,-0.012
5.475,-0.012
5.476,-0.009
5.477,-0.006
5.478,-0.003
5.479,0.000
5.480,0.002
5.481,0.003
5.482,0.005
5.483,0.003
5.484,0.006
5.485,0.006
5.486,0.011
5.487,0.013
5.488,0.020
5.489,0.022
5.490,0.024
5.491,0.025
5.492,0.024
5.493,0.025
5.494,0.028
5.495,0.028
5.496,0.034
5.497,0.038
5.498,0.043
5.499,0.041
5.500,0.044
5.501,0.047
5.502,0.046
5.503,0.047
5.504,0.049
5.505,0.050
5.506,0.051
5.507,0.056
5.508,0.058
5.509,0.059
5.510,0.063
5.511,0.066
5.512,0.064
5.513,0.066
5.514,0.073
5.515,0.081
5.516,0.083
5.517,0.088
5.518,0.086
5.519,0.088
5.520,0.088
5.521,0.088
5.522,0.088
5.523,0.094
5.524,0.098
5.525,0.103
5.526,0.102
5.527,0.103
5.528,0.108
5.529,0.109
5.530,0.113
5.531,0.119
5.532,0.119
5.533,0.122
5.534,0.128
5.535,0.131
5.536,0.136
5.537,0.137
5.538,0.139
5.539,0.141
5.540,0.139
5.541,0.137
5.542,0.139
5.543,0.137
5.544,0.141
5.545,0.141
5.546,0.139
5.547,0.141
5.548,0.141
5.549,0.144
5.550,0.143
5.551,0.144
5.552,0.145
5.553,0.150
5.554,0.156
5.555,0.159
5.556,0.158
5.557,0.159
5.558,0.161
5.559,0.162
5.560,0.164
5.561,0.169
5.562,0.172
5.563,0.175
5.564,0.177
5.565,0.175
5.566,0.175
5.567,0.172
5.568,0.176
5.569,0.178
5.570,0.174
5.571,0.175
5.572,0.175
5.573,0.175
5.574,0.179
5.575,0.181
5.576,0.179
5.577,0.178
5.578,0.178
5.579,0.178
5.580,0.173
5.581,0.175
5.582,0.176
5.583,0.175
5.584,0.173
5.585,0.175
5.586,0.170
5.587,0.169
5.588,0.159
5.589,0.150
5.590,0.148
5.591,0.144
5.592,0.139
5.593,0.134
5.594,0.127
5.595,0.119
5.596,0.106
5.597,0.097
5.598,0.088
5.599,0.075
5.600,0.069
5.601,0.063
5.602,0.056
5.603,0.050
5.604,0.044
5.605,0.038
5.606,0.027
5.607,0.022
5.608,0.017
5.609,0.009
5.610,0.006
5.611,0.000
5.612,-0.002
5.613,-0.006
5.614,-0.011
5.615,-0.012
5.616,-0.017
5.617,-0.025
5.618,-0.028
5.619,-0.034
5.620,-0.039
5.621,-0.044
5.622,-0.047
5.623,-0.050
5.624,-0.056
5.625,-0.062
5.626,-0.059
5.627,-0.062
5.628,-0.066
5.629,-0.069
5.630,-0.071
5.631,-0.069
5.632,-0.071
5.633,-0.072
5.634,-0.075
5.635,-0.081
5.636,-0.084
5.637,-0.084
5.638,-0.083
5.639,-0.081
5.640,-0.086
5.641,-0.091
5.642,-0.094
5.643,-0.097
5.644,-0.091
5.645,-0.091
5.646,-0.092
5.647,-0.094
5.648,-0.089
5.649,-0.091
5.650,-0.094
5.651,-0.094
5.652,-0.095
5.653,-0.097
5.654,-0.098
5.655,-0.100
5.656,-0.100
5.657,-0.097
5.658,-0.099
5.659,-0.097
5.660,-0.100
5.661,-0.100
5.662,-0.100
5.663,-0.100
5.664,-0.103
5.665,-0.103
5.666,-0.103
5.667,-0.103
5.668,-0.107
5.669,-0.109
5.670,-0.109
5.671,-0.106
5.672,-0.109
5.673,-0.106
5.674,-0.107
5.675,-0.109
5.676,-0.105
5.677,-0.106
5.678,-0.103
5.679,-0.100
5.680,-0.096
5.681,-0.094
5.682,-0.095
5.683,-0.094
5.684,-0.091
5.685,-0.087
5.686,-0.086
5.687,-0.087
5.688,-0.089
5.689,-0.087
5.690,-0.087
5.691,-0.087
5.692,-0.081
5.693,-0.078
5.694,-0.081
5.695,-0.078
5.696,-0.078
5.697,-0.078
5.698,-0.076
5.699,-0.078
5.700,-0.078
5.701,-0.075
5.702,-0.075
5.703,-0.075
5.704,-0.076
5.705,-0.075
5.706,-0.075
5.707,-0.075
5.708,-0.072
5.709,-0.072
5.710,-0.071
5.711,-0.069
5.712,-0.069
5.713,-0.072
5.714,-0.072
5.715,-0.069
5.716,-0.069
5.717,-0.069
5.718,-0.064
5.719,-0.066
5.720,-0.069
5.721,-0.066
5.722,-0.064
5.723,-0.066
5.724,-0.066
5.725,-0.066
5.726,-0.059
5.727,-0.056
5.728,-0.056
5.729,-0.056
5.730,-0.053
5.731,-0.053
5.732,-0.058
5.733,-0.056
5.734,-0.055
5.735,-0.053
5.736,-0.053
5.737,-0.053
5.738,-0.056
5.739,-0.056
5.740,-0.059
5.741,-0.062
5.742,-0.062
5.743,-0.062
5.744,-0.058
5.745,-0.056
5.746,-0.053
5.747,-0.050
5.748,-0.049
5.749,-0.047
5.750,-0.051
5.751,-0.053
5.752,-0.050
5.753,-0.053
5.754,-0.052
5.755,-0.053
5.756,-0.053
5.757,-0.053
5.758,-0.056
5.759,-0.059
5.760,-0.061
5.761,-0.066
5.762,-0.067
5.763,-0.069
5.764,-0.066
5.765,-0.062
5.766,-0.061
5.767,-0.059
5.768,-0.058
5.769,-0.059
5.770,-0.058
5.771,-0.059
5.772,-0.058
5.773,-0.056
5.774,-0.059
5.775,-0.059
5.776,-0.061
5.777,-0.062
5.778,-0.062
5.779,-0.062
5.780,-0.062
5.781,-0.062
5.782,-0.062
5.783,-0.066
5.784,-0.066
5.785,-0.072
5.786,-0.074
5.787,-0.072
5.788,-0.069
5.789,-0.072
5.790,-0.072
5.791,-0.072
5.792,-0.074
5.793,-0.072
5.794,-0.075
5.795,-0.081
5.796,-0.081
5.797,-0.081
5.798,-0.084
5.799,-0.084
5.800,-0.081
5.801,-0.081
5.802,-0.078
5.803,-0.078
5.804,-0.079
5.805,-0.081
5.806,-0.084
5.807,-0.084
5.808,-0.084
5.809,-0.084
5.810,-0.084
5.811,-0.084
5.812,-0.086
5.813,-0.084
5.814,-0.086
5.815,-0.087
5.816,-0.087
5.817,-0.091
5.818,-0.092
5.819,-0.097
5.820,-0.096
5.821,-0.094
5.822,-0.092
5.823,-0.091
5.824,-0.091
5.825,-0.091
5.826,-0.091
5.827,-0.094
5.828,-0.094
5.829,-0.094
5.830,-0.095
5.831,-0.094
5.832,-0.094
5.833,-0.094
5.834,-0.095
5.835,-0.094
5.836,-0.094
5.837,-0.094
5.838,-0.091
5.839,-0.091
5.840,-0.087
5.841,-0.087
5.842,-0.087
5.843,-0.087
5.844,-0.091
5.845,-0.091
5.846,-0.091
5.847,-0.091
5.848,-0.094
5.849,-0.097
5.850,-0.098
5.851,-0.103
5.852,-0.104
5.853,-0.103
5.854,-0.105
5.855,-0.103
5.856,-0.100
5.857,-0.094
5.858,-0.094
5.859,-0.097
5.860,-0.098
5.861,-0.100
5.862,-0.101
5.863,-0.100
5.864,-0.099
5.865,-0.100
5.866,-0.100
5.867,-0.100
5.868,-0.100
5.869,-0.103
5.870,-0.104
5.871,-0.103
5.872,-0.102
5.873,-0.103
5.874,-0.102
5.875,-0.103
5.876,-0.103
5.877,-0.103
5.878,-0.103
5.879,-0.103
5.880,-0.107
5.881,-0.106
5.882,-0.106
5.883,-0.106
5.884,-0.105
5.885,-0.103
5.886,-0.102
5.887,-0.100
5.888,-0.101
5.889,-0.103
5.890,-0.101
5.891,-0.103
5.892,-0.103
5.893,-0.100
5.894,-0.096
5.895,-0.091
5.896,-0.084
5.897,-0.075
5.898,-0.073
5.899,-0.069
5.900,-0.069
5.901,-0.066
5.902,-0.066
5.903,-0.059
5.904,-0.058
5.905,-0.053
5.906,-0.046
5.907,-0.037
5.908,-0.034
5.909,-0.034
5.910,-0.028
5.911,-0.031
5.912,-0.030
5.913,-0.031
5.914,-0.039
5.915,-0.034
5.916,-0.030
5.917,-0.028
5.918,-0.023
5.919,-0.016
5.920,-0.016
5.921,-0.012
5.922,-0.008
5.923,0.000
5.924,0.003
5.925,0.003
5.926,0.006
5.927,0.009
5.928,0.014
5.929,0.019
5.930,0.022
5.931,0.022
5.932,0.021
5.933,0.013
5.934,0.006
5.935,0.003
5.936,0.002
5.937,0.000
5.938,-0.002
5.939,-0.006
5.940,-0.006
5.941,-0.009
5.942,-0.008
5.943,-0.009
5.944,-0.008
5.945,-0.006
5.946,-0.002
5.947,0.003
5.948,0.003
5.949,0.003
5.950,-0.001
5.951,-0.003
5.952,-0.007
5.953,-0.012
5.954,-0.019
5.955,-0.025
5.956,-0.029
5.957,-0.034
5.958,-0.036
5.959,-0.034
5.960,-0.041
5.961,-0.044
5.962,-0.049
5.963,-0.062
5.964,-0.075
5.965,-0.084
5.966,-0.091
5.967,-0.094
5.968,-0.098
5.969,-0.097
5.970,-0.097
5.971,-0.097
5.972,-0.099
5.973,-0.100
5.974,-0.100
5.975,-0.103
5.976,-0.103
5.977,-0.106
5.978,-0.102
5.979,-0.103
5.980,-0.104
5.981,-0.109
5.982,-0.111
5.983,-0.112
5.984,-0.112
5.985,-0.112
5.986,-0.111
5.987,-0.112
5.988,-0.114
5.989,-0.119
5.990,-0.120
5.991,-0.119
5.992,-0.116
5.993,-0.112
5.994,-0.114
5.995,-0.116
5.996,-0.114
5.997,-0.112
5.998,-0.114
5.999,-0.112
6.000,-0.117
6.001,-0.119
6.002,-0.120
6.003,-0.125
6.004,-0.126
6.005,-0.128
6.006,-0.127
6.007,-0.125
6.008,-0.127
6.009,-0.125
6.010,-0.128
6.011,-0.131
6.012,-0.137
6.013,-0.137
6.014,-0.139
6.015,-0.137
6.016,-0.136
6.017,-0.134
6.018,-0.134
6.019,-0.134
6.020,-0.132
6.021,-0.134
6.022,-0.133
6.023,-0.131
6.024,-0.131
6.025,-0.131
6.026,-0.127
6.027,-0.125
6.028,-0.125
6.029,-0.125
6.030,-0.136
6.031,-0.147
6.032,-0.159
6.033,-0.181
6.034,-0.201
6.035,-0.228
6.036,-0.252
6.037,-0.269
6.038,-0.287
6.039,-0.287
6.040,-0.291
6.041,-0.278
6.042,-0.259
6.043,-0.237
6.044,-0.213
6.045,-0.175
6.046,-0.142
6.047,-0.112
6.048,-0.081
6.049,-0.047
6.050,-0.012
6.051,0.044
6.052,0.109
6.053,0.181
6.054,0.256
6.055,0.341
6.056,0.420
6.057,0.528
6.058,0.631
6.059,0.738
6.060,0.844
6.061,0.941
6.062,1.038
6.063,1.128
6.064,1.220
6.065,1.328
6.066,1.428
6.067,1.516
6.068,1.575
6.069,1.541
6.070,1.488
6.071,1.366
6.072,1.254
6.073,1.156
6.074,1.052
6.075,0.941
6.076,0.822
6.077,0.703
6.078,0.598
6.079,0.500
6.080,0.408
6.081,0.322
6.082,0.254
6.083,0.194
6.084,0.109
6.085,0.053
6.086,-0.003
6.087,-0.059
6.088,-0.117
6.089,-0.150
6.090,-0.197
6.091,-0.216
6.092,-0.222
6.093,-0.219
6.094,-0.211
6.095,-0.181
6.096,-0.149
6.097,-0.119
6.098,-0.086
6.099,-0.066
6.100,-0.044
6.101,-0.031
6.102,-0.019
6.103,-0.009
6.104,-0.006
6.105,-0.009
6.106,-0.008
6.107,-0.009
6.108,-0.006
6.109,-0.009
6.110,-0.009
6.111,-0.009
6.112,-0.012
6.113,-0.012
6.114,-0.014
6.115,-0.016
6.116,-0.023
6.117,-0.028
6.118,-0.033
6.119,-0.031
6.120,-0.033
6.121,-0.031
6.122,-0.036
6.123,-0.037
6.124,-0.034
6.125,-0.037
6.126,-0.036
6.127,-0.034
6.128,-0.034
6.129,-0.034
6.130,-0.034
6.131,-0.034
6.132,-0.034
6.133,-0.034
6.134,-0.033
6.135,-0.031
6.136,-0.032
6.137,-0.031
6.138,-0.034
6.139,-0.031
6.140,-0.030
6.141,-0.028
6.142,-0.028
6.143,-0.028
6.144,-0.031
6.145,-0.034
6.146,-0.036
6.147,-0.037
6.148,-0.039
6.149,-0.037
6.150,-0.036
6.151,-0.037
6.152,-0.036
6.153,-0.034
6.154,-0.034
6.155,-0.034
6.156,-0.032
6.157,-0.034
6.158,-0.033
6.159,-0.031
6.160,-0.025
6.161,-0.022
6.162,-0.019
6.163,-0.016
6.164,-0.014
6.165,-0.009
6.166,-0.008
6.167,-0.006
6.168,-0.003
6.169,-0.003
6.170,0.000
6.171,0.000
6.172,0.000
6.173,0.000
6.174,-0.001
6.175,0.000
6.176,0.003
6.177,0.003
6.178,0.004
6.179,0.009
6.180,0.011
6.181,0.016
6.182,0.017
6.183,0.022
6.184,0.024
6.185,0.025
6.186,0.026
6.187,0.028
6.188,0.029
6.189,0.034
6.190,0.034
6.191,0.038
6.192,0.041
6.193,0.041
6.194,0.044
6.195,0.047
6.196,0.046
6.197,0.044
6.198,0.044
6.199,0.044
6.200,0.054
6.201,0.063
6.202,0.066
6.203,0.066
6.204,0.066
6.205,0.063
6.206,0.066
6.207,0.063
6.208,0.063
6.209,0.063
6.210,0.066
6.211,0.072
6.212,0.076
6.213,0.078
6.214,0.078
6.215,0.075
6.216,0.081
6.217,0.081
6.218,0.084
6.219,0.088
6.220,0.089
6.221,0.094
6.222,0.097
6.223,0.100
6.224,0.099
6.225,0.100
6.226,0.104
6.227,0.109
6.228,0.109
6.229,0.109
6.230,0.109
6.231,0.113
6.232,0.119
6.233,0.125
6.234,0.124
6.235,0.125
6.236,0.126
6.237,0.131
6.238,0.133
6.239,0.134
6.240,0.134
6.241,0.141
6.242,0.143
6.243,0.144
6.244,0.143
6.245,0.144
6.246,0.148
6.247,0.150
6.248,0.154
6.249,0.162
6.250,0.161
6.251,0.162
6.252,0.162
6.253,0.159
6.254,0.161
6.255,0.159
6.256,0.162
6.257,0.166
6.258,0.169
6.259,0.172
6.260,0.175
6.261,0.175
6.262,0.177
6.263,0.175
6.264,0.175
6.265,0.178
6.266,0.183
6.267,0.191
6.268,0.191
6.269,0.194
6.270,0.191
6.271,0.191
6.272,0.193
6.273,0.191
6.274,0.192
6.275,0.197
6.276,0.200
6.277,0.203
6.278,0.204
6.279,0.209
6.280,0.208
6.281,0.206
6.282,0.209
6.283,0.209
6.284,0.214
6.285,0.216
6.286,0.218
6.287,0.216
6.288,0.211
6.289,0.213
6.290,0.211
6.291,0.209
6.292,0.214
6.293,0.216
6.294,0.214
6.295,0.213
6.296,0.214
6.297,0.216
6.298,0.208
6.299,0.206
6.300,0.204
6.301,0.200
6.302,0.194
6.303,0.191
6.304,0.186
6.305,0.184
6.306,0.178
6.307,0.172
6.308,0.164
6.309,0.153
6.310,0.147
6.311,0.141
6.312,0.134
6.313,0.128
6.314,0.118
6.315,0.109
6.316,0.104
6.317,0.097
6.318,0.095
6.319,0.094
6.320,0.089
6.321,0.084
6.322,0.075
6.323,0.066
6.324,0.055
6.325,0.050
6.326,0.047
6.327,0.041
6.328,0.038
6.329,0.031
6.330,0.028
6.331,0.022
6.332,0.014
6.333,0.009
6.334,0.006
6.335,0.000
6.336,-0.002
6.337,-0.006
6.338,-0.014
6.339,-0.022
6.340,-0.026
6.341,-0.031
6.342,-0.037
6.343,-0.044
6.344,-0.039
6.345,-0.041
6.346,-0.042
6.347,-0.044
6.348,-0.048
6.349,-0.050
6.350,-0.052
6.351,-0.053
6.352,-0.050
6.353,-0.050
6.354,-0.053
6.355,-0.053
6.356,-0.054
6.357,-0.056
6.358,-0.061
6.359,-0.066
6.360,-0.070
6.361,-0.075
6.362,-0.071
6.363,-0.072
6.364,-0.074
6.365,-0.075
6.366,-0.069
6.367,-0.069
6.368,-0.072
6.369,-0.072
6.370,-0.073
6.371,-0.075
6.372,-0.076
6.373,-0.078
6.374,-0.080
6.375,-0.078
6.376,-0.081
6.377,-0.081
6.378,-0.084
6.379,-0.084
6.380,-0.084
6.381,-0.084
6.382,-0.087
6.383,-0.087
6.384,-0.087
6.385,-0.087
6.386,-0.089
6.387,-0.087
6.388,-0.089
6.389,-0.087
6.390,-0.091
6.391,-0.087
6.392,-0.086
6.393,-0.084
6.394,-0.078
6.395,-0.078
6.396,-0.078
6.397,-0.078
6.398,-0.076
6.399,-0.078
6.400,-0.078
6.401,-0.075
6.402,-0.074
6.403,-0.072
6.404,-0.066
6.405,-0.062
6.406,-0.062
6.407,-0.059
6.408,-0.061
6.409,-0.062
6.410,-0.058
6.411,-0.056
6.412,-0.061
6.413,-0.059
6.414,-0.059
6.415,-0.059
6.416,-0.058
6.417,-0.059
6.418,-0.061
6.419,-0.059
6.420,-0.061
6.421,-0.062
6.422,-0.059
6.423,-0.053
6.424,-0.053
6.425,-0.053
6.426,-0.050
6.427,-0.050
6.428,-0.050
6.429,-0.050
6.430,-0.046
6.431,-0.044
6.432,-0.050
6.433,-0.053
6.434,-0.053
6.435,-0.053
6.436,-0.049
6.437,-0.050
6.438,-0.054
6.439,-0.053
6.440,-0.049
6.441,-0.047
6.442,-0.044
6.443,-0.041
6.444,-0.034
6.445,-0.031
6.446,-0.032
6.447,-0.034
6.448,-0.030
6.449,-0.028
6.450,-0.031
6.451,-0.028
6.452,-0.028
6.453,-0.028
6.454,-0.028
6.455,-0.028
6.456,-0.032
6.457,-0.034
6.458,-0.034
6.459,-0.034
6.460,-0.034
6.461,-0.034
6.462,-0.032
6.463,-0.034
6.464,-0.036
6.465,-0.037
6.466,-0.034
6.467,-0.031
6.468,-0.034
6.469,-0.034
6.470,-0.031
6.471,-0.034
6.472,-0.033
6.473,-0.034
6.474,-0.034
6.475,-0.034
6.476,-0.033
6.477,-0.031
6.478,-0.031
6.479,-0.034
6.480,-0.034
6.481,-0.034
6.482,-0.034
6.483,-0.034
6.484,-0.034
6.485,-0.034
6.486,-0.033
6.487,-0.034
6.488,-0.031
6.489,-0.031
6.490,-0.034
6.491,-0.037
6.492,-0.042
6.493,-0.044
6.494,-0.041
6.495,-0.037
6.496,-0.037
6.497,-0.037
6.498,-0.039
6.499,-0.041
6.500,-0.039
6.501,-0.041
6.502,-0.039
6.503,-0.044
6.504,-0.047
6.505,-0.047
6.506,-0.044
6.507,-0.047
6.508,-0.048
6.509,-0.050
6.510,-0.053
6.511,-0.053
6.512,-0.052
6.513,-0.053
6.514,-0.052
6.515,-0.050
6.516,-0.053
6.517,-0.053
6.518,-0.053
6.519,-0.056
6.520,-0.054
6.521,-0.056
6.522,-0.053
6.523,-0.050
6.524,-0.054
6.525,-0.056
6.526,-0.061
6.527,-0.066
6.528,-0.066
6.529,-0.066
6.530,-0.062
6.531,-0.056
6.532,-0.059
6.533,-0.062
6.534,-0.064
6.535,-0.069
6.536,-0.069
6.537,-0.069
6.538,-0.069
6.539,-0.069
6.540,-0.071
6.541,-0.066
6.542,-0.066
6.543,-0.066
6.544,-0.067
6.545,-0.072
6.546,-0.073
6.547,-0.075
6.548,-0.075
6.549,-0.075
6.550,-0.074
6.551,-0.072
6.552,-0.075
6.553,-0.075
6.554,-0.073
6.555,-0.078
6.556,-0.078
6.557,-0.078
6.558,-0.076
6.559,-0.078
6.560,-0.078
6.561,-0.075
6.562,-0.075
6.563,-0.075
6.564,-0.075
6.565,-0.078
6.566,-0.084
6.567,-0.087
6.568,-0.087
6.569,-0.087
6.570,-0.086
6.571,-0.081
6.572,-0.075
6.573,-0.072
6.574,-0.076
6.575,-0.078
6.576,-0.083
6.577,-0.084
6.578,-0.084
6.579,-0.084
6.580,-0.084
6.581,-0.087
6.582,-0.086
6.583,-0.087
6.584,-0.087
6.585,-0.087
6.586,-0.087
6.587,-0.087
6.588,-0.087
6.589,-0.087
6.590,-0.087
6.591,-0.084
6.592,-0.081
6.593,-0.078
6.594,-0.075
6.595,-0.072
6.596,-0.073
6.597,-0.072
6.598,-0.066
6.599,-0.066
6.600,-0.056
6.601,-0.050
6.602,-0.041
6.603,-0.037
6.604,-0.032
6.605,-0.031
6.606,-0.025
6.607,-0.022
6.608,-0.018
6.609,-0.009
6.610,-0.006
6.611,-0.003
6.612,-0.012
6.613,-0.019
6.614,-0.024
6.615,-0.028
6.616,-0.022
6.617,-0.019
6.618,-0.020
6.619,-0.016
6.620,-0.006
6.621,-0.003
6.622,0.006
6.623,0.013
6.624,0.019
6.625,0.022
6.626,0.022
6.627,0.025
6.628,0.029
6.629,0.034
6.630,0.038
6.631,0.041
6.632,0.042
6.633,0.047
6.634,0.045
6.635,0.041
6.636,0.034
6.637,0.031
6.638,0.031
6.639,0.028
6.640,0.018
6.641,0.013
6.642,0.009
6.643,0.009
6.644,0.006
6.645,0.006
6.646,0.005
6.647,0.003
6.648,0.002
6.649,0.000
6.650,0.001
6.651,0.000
6.652,0.003
6.653,0.003
6.654,0.003
6.655,0.003
6.656,-0.003
6.657,-0.009
6.658,-0.011
6.659,-0.012
6.660,-0.016
6.661,-0.025
6.662,-0.031
6.663,-0.041
6.664,-0.055
6.665,-0.066
6.666,-0.075
6.667,-0.081
6.668,-0.081
6.669,-0.081
6.670,-0.075
6.671,-0.075
6.672,-0.079
6.673,-0.084
6.674,-0.091
6.675,-0.094
6.676,-0.098
6.677,-0.100
6.678,-0.104
6.679,-0.103
6.680,-0.105
6.681,-0.103
6.682,-0.103
6.683,-0.103
6.684,-0.106
6.685,-0.106
6.686,-0.106
6.687,-0.106
6.688,-0.111
6.689,-0.112
6.690,-0.116
6.691,-0.116
6.692,-0.114
6.693,-0.116
6.694,-0.116
6.695,-0.116
6.696,-0.116
6.697,-0.116
6.698,-0.114
6.699,-0.116
6.700,-0.116
6.701,-0.119
6.702,-0.122
6.703,-0.125
6.704,-0.127
6.705,-0.125
6.706,-0.125
6.707,-0.125
6.708,-0.125
6.709,-0.128
6.710,-0.131
6.711,-0.134
6.712,-0.134
6.713,-0.137
6.714,-0.134
6.715,-0.134
6.716,-0.131
6.717,-0.131
6.718,-0.128
6.719,-0.128
6.720,-0.132
6.721,-0.131
6.722,-0.128
6.723,-0.125
6.724,-0.125
6.725,-0.125
6.726,-0.125
6.727,-0.125
6.728,-0.128
6.729,-0.131
6.730,-0.139
6.731,-0.150
6.732,-0.152
6.733,-0.156
6.734,-0.171
6.735,-0.184
6.736,-0.208
6.737,-0.234
6.738,-0.259
6.739,-0.284
6.740,-0.292
6.741,-0.300
6.742,-0.291
6.743,-0.278
6.744,-0.253
6.745,-0.228
6.746,-0.196
6.747,-0.159
6.748,-0.128
6.749,-0.097
6.750,-0.062
6.751,-0.028
6.752,0.025
6.753,0.088
6.754,0.161
6.755,0.231
6.756,0.306
6.757,0.381
6.758,0.477
6.759,0.572
6.760,0.678
6.761,0.784
6.762,0.883
6.763,0.981
6.764,1.072
6.765,1.159
6.766,1.258
6.767,1.356
6.768,1.453
6.769,1.550
6.770,1.554
6.771,1.525
6.772,1.413
6.773,1.291
6.774,1.189
6.775,1.088
6.776,0.977
6.777,0.850
6.778,0.729
6.779,0.613
6.780,0.506
6.781,0.413
6.782,0.332
6.783,0.256
6.784,0.188
6.785,0.119
6.786,0.064
6.787,0.009
6.788,-0.051
6.789,-0.112
6.790,-0.153
6.791,-0.197
6.792,-0.214
6.793,-0.225
6.794,-0.228
6.795,-0.228
6.796,-0.195
6.797,-0.169
6.798,-0.134
6.799,-0.097
6.800,-0.078
6.801,-0.056
6.802,-0.046
6.803,-0.034
6.804,-0.025
6.805,-0.019
6.806,-0.019
6.807,-0.016
6.808,-0.019
6.809,-0.019
6.810,-0.025
6.811,-0.028
6.812,-0.027
6.813,-0.028
6.814,-0.028
6.815,-0.031
6.816,-0.036
6.817,-0.037
6.818,-0.037
6.819,-0.044
6.820,-0.045
6.821,-0.050
6.822,-0.053
6.823,-0.059
6.824,-0.059
6.825,-0.056
6.826,-0.059
6.827,-0.059
6.828,-0.061
6.829,-0.062
6.830,-0.059
6.831,-0.056
6.832,-0.058
6.833,-0.059
6.834,-0.061
6.835,-0.062
6.836,-0.064
6.837,-0.066
6.838,-0.059
6.839,-0.059
6.840,-0.055
6.841,-0.053
6.842,-0.054
6.843,-0.056
6.844,-0.056
6.845,-0.056
6.846,-0.056
6.847,-0.056
6.848,-0.055
6.849,-0.053
6.850,-0.051
6.851,-0.050
6.852,-0.051
6.853,-0.053
6.854,-0.053
6.855,-0.053
6.856,-0.054
6.857,-0.053
6.858,-0.053
6.859,-0.053
6.860,-0.054
6.861,-0.053
6.862,-0.054
6.863,-0.053
6.864,-0.050
6.865,-0.050
6.866,-0.047
6.867,-0.047
6.868,-0.047
6.869,-0.044
6.870,-0.041
6.871,-0.034
6.872,-0.034
6.873,-0.031
6.874,-0.028
6.875,-0.028
6.876,-0.028
6.877,-0.028
6.878,-0.027
6.879,-0.025
6.880,-0.023
6.881,-0.025
6.882,-0.022
6.883,-0.022
6.884,-0.019
6.885,-0.016
6.886,-0.012
6.887,-0.012
6.888,-0.011
6.889,-0.009
6.890,-0.005
6.891,-0.003
6.892,0.000
6.893,0.003
6.894,0.002
6.895,0.003
6.896,0.005
6.897,0.003
6.898,0.003
6.899,0.006
6.900,0.008
6.901,0.009
6.902,0.008
6.903,0.009
6.904,0.009
6.905,0.013
6.906,0.013
6.907,0.019
6.908,0.019
6.909,0.022
6.910,0.025
6.911,0.025
6.912,0.028
6.913,0.031
6.914,0.028
6.915,0.028
6.916,0.028
6.917,0.034
6.918,0.038
6.919,0.044
6.920,0.050
6.921,0.053
6.922,0.055
6.923,0.056
6.924,0.059
6.925,0.059
6.926,0.061
6.927,0.063
6.928,0.064
6.929,0.066
6.930,0.072
6.931,0.075
6.932,0.077
6.933,0.078
6.934,0.080
6.935,0.078
6.936,0.081
6.937,0.081
6.938,0.086
6.939,0.091
6.940,0.093
6.941,0.091
6.942,0.094
6.943,0.094
6.944,0.097
6.945,0.097
6.946,0.101
6.947,0.106
6.948,0.106
6.949,0.109
6.950,0.114
6.951,0.113
6.952,0.114
6.953,0.116
6.954,0.116
6.955,0.119
6.956,0.122
6.957,0.128
6.958,0.131
6.959,0.131
6.960,0.130
6.961,0.131
6.962,0.128
6.963,0.128
6.964,0.129
6.965,0.131
6.966,0.134
6.967,0.134
6.968,0.137
6.969,0.137
6.970,0.141
6.971,0.141
6.972,0.141
6.973,0.141
6.974,0.141
6.975,0.141
6.976,0.147
6.977,0.150
6.978,0.153
6.979,0.156
6.980,0.161
6.981,0.166
6.982,0.166
6.983,0.166
6.984,0.164
6.985,0.166
6.986,0.167
6.987,0.172
6.988,0.172
6.989,0.169
6.990,0.169
6.991,0.166
6.992,0.167
6.993,0.172
6.994,0.173
6.995,0.172
6.996,0.168
6.997,0.166
6.998,0.167
6.999,0.162
7.000,0.164
7.001,0.162
7.002,0.156
7.003,0.153
7.004,0.152
7.005,0.144
7.006,0.141
7.007,0.134
7.008,0.127
7.009,0.119
7.010,0.113
7.011,0.109
7.012,0.103
7.013,0.097
7.014,0.091
7.015,0.081
7.016,0.075
7.017,0.069
7.018,0.058
7.019,0.050
7.020,0.045
7.021,0.041
7.022,0.038
7.023,0.034
7.024,0.027
7.025,0.016
7.026,0.016
7.027,0.013
7.028,0.000
7.029,-0.006
7.030,-0.011
7.031,-0.012
7.032,-0.020
7.033,-0.028
7.034,-0.032
7.035,-0.037
7.036,-0.044
7.037,-0.047
7.038,-0.053
7.039,-0.056
7.040,-0.062
7.041,-0.069
7.042,-0.075
7.043,-0.081
7.044,-0.081
7.045,-0.078
7.046,-0.081
7.047,-0.081
7.048,-0.084
7.049,-0.087
7.050,-0.086
7.051,-0.087
7.052,-0.091
7.053,-0.091
7.054,-0.097
7.055,-0.103
7.056,-0.104
7.057,-0.106
7.058,-0.103
7.059,-0.103
7.060,-0.105
7.061,-0.103
7.062,-0.103
7.063,-0.100
7.064,-0.103
7.065,-0.106
7.066,-0.109
7.067,-0.106
7.068,-0.111
7.069,-0.116
7.070,-0.114
7.071,-0.112
7.072,-0.111
7.073,-0.109
7.074,-0.108
7.075,-0.109
7.076,-0.108
7.077,-0.109
7.078,-0.114
7.079,-0.119
7.080,-0.119
7.081,-0.122
7.082,-0.121
7.083,-0.122
7.084,-0.122
7.085,-0.122
7.086,-0.123
7.087,-0.125
7.088,-0.123
7.089,-0.125
7.090,-0.122
7.091,-0.125
7.092,-0.123
7.093,-0.125
7.094,-0.122
7.095,-0.116
7.096,-0.116
7.097,-0.112
7.098,-0.114
7.099,-0.112
7.100,-0.114
7.101,-0.116
7.102,-0.112
7.103,-0.112
7.104,-0.114
7.105,-0.112
7.106,-0.112
7.107,-0.112
7.108,-0.106
7.109,-0.103
7.110,-0.104
7.111,-0.103
7.112,-0.099
7.113,-0.097
7.114,-0.095
7.115,-0.097
7.116,-0.097
7.117,-0.094
7.118,-0.094
7.119,-0.094
7.120,-0.089
7.121,-0.087
7.122,-0.089
7.123,-0.091
7.124,-0.089
7.125,-0.091
7.126,-0.091
7.127,-0.087
7.128,-0.087
7.129,-0.087
7.130,-0.089
7.131,-0.087
7.132,-0.084
7.133,-0.081
7.134,-0.077
7.135,-0.075
7.136,-0.076
7.137,-0.075
7.138,-0.077
7.139,-0.078
7.140,-0.078
7.141,-0.078
7.142,-0.078
7.143,-0.078
7.144,-0.079
7.145,-0.078
7.146,-0.075
7.147,-0.072
7.148,-0.073
7.149,-0.072
7.150,-0.069
7.151,-0.069
7.152,-0.066
7.153,-0.066
7.154,-0.066
7.155,-0.066
7.156,-0.066
7.157,-0.069
7.158,-0.069
7.159,-0.069
7.160,-0.069
7.161,-0.069
7.162,-0.067
7.163,-0.062
7.164,-0.059
7.165,-0.056
7.166,-0.058
7.167,-0.059
7.168,-0.059
7.169,-0.062
7.170,-0.061
7.171,-0.056
7.172,-0.058
7.173,-0.056
7.174,-0.061
7.175,-0.062
7.176,-0.062
7.177,-0.062
7.178,-0.062
7.179,-0.062
7.180,-0.066
7.181,-0.066
7.182,-0.066
7.183,-0.066
7.184,-0.067
7.185,-0.069
7.186,-0.069
7.187,-0.069
7.188,-0.071
7.189,-0.069
7.190,-0.072
7.191,-0.072
7.192,-0.072
7.193,-0.075
7.194,-0.078
7.195,-0.081
7.196,-0.083
7.197,-0.084
7.198,-0.083
7.199,-0.081
7.200,-0.078
7.201,-0.075
7.202,-0.077
7.203,-0.072
7.204,-0.075
7.205,-0.078
7.206,-0.078
7.207,-0.075
7.208,-0.078
7.209,-0.078
7.210,-0.081
7.211,-0.087
7.212,-0.087
7.213,-0.087
7.214,-0.089
7.215,-0.087
7.216,-0.087
7.217,-0.091
7.218,-0.091
7.219,-0.091
7.220,-0.094
7.221,-0.091
7.222,-0.091
7.223,-0.091
7.224,-0.091
7.225,-0.094
7.226,-0.094
7.227,-0.094
7.228,-0.094
7.229,-0.094
7.230,-0.098
7.231,-0.097
7.232,-0.096
7.233,-0.094
7.234,-0.094
7.235,-0.097
7.236,-0.098
7.237,-0.100
7.238,-0.101
7.239,-0.103
7.240,-0.104
7.241,-0.106
7.242,-0.108
7.243,-0.106
7.244,-0.103
7.245,-0.106
7.246,-0.106
7.247,-0.106
7.248,-0.104
7.249,-0.106
7.250,-0.108
7.251,-0.106
7.252,-0.107
7.253,-0.109
7.254,-0.106
7.255,-0.106
7.256,-0.111
7.257,-0.112
7.258,-0.111
7.259,-0.109
7.260,-0.112
7.261,-0.112
7.262,-0.108
7.263,-0.106
7.264,-0.111
7.265,-0.112
7.266,-0.116
7.267,-0.116
7.268,-0.117
7.269,-0.119
7.270,-0.117
7.271,-0.119
7.272,-0.116
7.273,-0.116
7.274,-0.116
7.275,-0.116
7.276,-0.119
7.277,-0.122
7.278,-0.121
7.279,-0.119
7.280,-0.119
7.281,-0.116
7.282,-0.116
7.283,-0.116
7.284,-0.111
7.285,-0.106
7.286,-0.107
7.287,-0.106
7.288,-0.094
7.289,-0.087
7.290,-0.083
7.291,-0.081
7.292,-0.075
7.293,-0.075
7.294,-0.069
7.295,-0.066
7.296,-0.059
7.297,-0.056
7.298,-0.052
7.299,-0.044
7.300,-0.039
7.301,-0.034
7.302,-0.042
7.303,-0.047
7.304,-0.052
7.305,-0.056
7.306,-0.050
7.307,-0.047
7.308,-0.048
7.309,-0.044
7.310,-0.033
7.311,-0.028
7.312,-0.023
7.313,-0.022
7.314,-0.016
7.315,-0.012
7.316,-0.011
7.317,-0.006
7.318,-0.003
7.319,0.000
7.320,0.000
7.321,0.000
7.322,0.001
7.323,0.006
7.324,0.007
7.325,0.006
7.326,-0.001
7.327,-0.006
7.328,-0.006
7.329,-0.009
7.330,-0.017
7.331,-0.019
7.332,-0.025
7.333,-0.028
7.334,-0.030
7.335,-0.028
7.336,-0.028
7.337,-0.028
7.338,-0.028
7.339,-0.028
7.340,-0.027
7.341,-0.028
7.342,-0.028
7.343,-0.031
7.344,-0.031
7.345,-0.031
7.346,-0.034
7.347,-0.037
7.348,-0.042
7.349,-0.047
7.350,-0.050
7.351,-0.059
7.352,-0.066
7.353,-0.075
7.354,-0.086
7.355,-0.094
7.356,-0.102
7.357,-0.106
7.358,-0.109
7.359,-0.112
7.360,-0.109
7.361,-0.112
7.362,-0.117
7.363,-0.122
7.364,-0.128
7.365,-0.131
7.366,-0.133
7.367,-0.131
7.368,-0.134
7.369,-0.131
7.370,-0.136
7.371,-0.137
7.372,-0.137
7.373,-0.137
7.374,-0.141
7.375,-0.141
7.376,-0.141
7.377,-0.141
7.378,-0.142
7.379,-0.141
7.380,-0.147
7.381,-0.150
7.382,-0.148
7.383,-0.150
7.384,-0.150
7.385,-0.150
7.386,-0.149
7.387,-0.147
7.388,-0.146
7.389,-0.147
7.390,-0.146
7.391,-0.147
7.392,-0.151
7.393,-0.156
7.394,-0.161
7.395,-0.162
7.396,-0.162
7.397,-0.162
7.398,-0.161
7.399,-0.162
7.400,-0.161
7.401,-0.159
7.402,-0.159
7.403,-0.162
7.404,-0.162
7.405,-0.166
7.406,-0.161
7.407,-0.159
7.408,-0.158
7.409,-0.159
7.410,-0.164
7.411,-0.162
7.412,-0.162
7.413,-0.162
7.414,-0.162
7.415,-0.162
7.416,-0.162
7.417,-0.162
7.418,-0.162
7.419,-0.162
7.420,-0.164
7.421,-0.169
7.422,-0.174
7.423,-0.181
7.424,-0.199
7.425,-0.216
7.426,-0.241
7.427,-0.269
7.428,-0.295
7.429,-0.322
7.430,-0.332
7.431,-0.344
7.432,-0.334
7.433,-0.322
7.434,-0.303
7.435,-0.284
7.436,-0.250
7.437,-0.213
7.438,-0.180
7.439,-0.147
7.440,-0.112
7.441,-0.078
7.442,-0.025
7.443,0.038
7.444,0.106
7.445,0.172
7.446,0.253
7.447,0.334
7.448,0.441
7.449,0.547
7.450,0.661
7.451,0.775
7.452,0.879
7.453,0.984
7.454,1.081
7.455,1.175
7.456,1.281
7.457,1.388
7.458,1.494
7.459,1.600
7.460,1.622
7.461,1.609
7.462,1.509
7.463,1.400
7.464,1.296
7.465,1.191
7.466,1.086
7.467,0.966
7.468,0.837
7.469,0.713
7.470,0.596
7.471,0.491
7.472,0.386
7.473,0.284
7.474,0.194
7.475,0.103
7.476,0.046
7.477,-0.012
7.478,-0.069
7.479,-0.125
7.480,-0.157
7.481,-0.194
7.482,-0.203
7.483,-0.206
7.484,-0.203
7.485,-0.197
7.486,-0.162
7.487,-0.134
7.488,-0.106
7.489,-0.075
7.490,-0.061
7.491,-0.044
7.492,-0.027
7.493,-0.009
7.494,-0.006
7.495,-0.006
7.496,-0.011
7.497,-0.012
7.498,-0.014
7.499,-0.012
7.500,-0.018
7.501,-0.019
7.502,-0.023
7.503,-0.031
7.504,-0.034
7.505,-0.041
7.506,-0.050
7.507,-0.056
7.508,-0.055
7.509,-0.059
7.510,-0.058
7.511,-0.059
7.512,-0.058
7.513,-0.059
7.514,-0.064
7.515,-0.066
7.516,-0.073
7.517,-0.078
7.518,-0.078
7.519,-0.078
7.520,-0.075
7.521,-0.072
7.522,-0.071
7.523,-0.069
7.524,-0.069
7.525,-0.069
7.526,-0.069
7.527,-0.069
7.528,-0.062
7.529,-0.062
7.530,-0.062
7.531,-0.066
7.532,-0.067
7.533,-0.069
7.534,-0.067
7.535,-0.066
7.536,-0.066
7.537,-0.066
7.538,-0.067
7.539,-0.069
7.540,-0.066
7.541,-0.062
7.542,-0.061
7.543,-0.059
7.544,-0.056
7.545,-0.053
7.546,-0.054
7.547,-0.053
7.548,-0.054
7.549,-0.056
7.550,-0.058
7.551,-0.056
7.552,-0.053
7.553,-0.047
7.554,-0.042
7.555,-0.041
7.556,-0.039
7.557,-0.041
7.558,-0.045
7.559,-0.047
7.560,-0.048
7.561,-0.047
7.562,-0.044
7.563,-0.037
7.564,-0.034
7.565,-0.034
7.566,-0.030
7.567,-0.025
7.568,-0.026
7.569,-0.028
7.570,-0.025
7.571,-0.025
7.572,-0.019
7.573,-0.016
7.574,-0.014
7.575,-0.012
7.576,-0.011
7.577,-0.012
7.578,-0.012
7.579,-0.012
7.580,-0.011
7.581,-0.012
7.582,-0.011
7.583,-0.009
7.584,-0.008
7.585,-0.003
7.586,0.001
7.587,0.003
7.588,0.000
7.589,0.000
7.590,0.000
7.591,0.000
7.592,0.003
7.593,0.009
7.594,0.011
7.595,0.016
7.596,0.014
7.597,0.019
7.598,0.019
7.599,0.022
7.600,0.026
7.601,0.028
7.602,0.030
7.603,0.031
7.604,0.034
7.605,0.041
7.606,0.041
7.607,0.047
7.608,0.048
7.609,0.053
7.610,0.055
7.611,0.053
7.612,0.053
7.613,0.053
7.614,0.056
7.615,0.056
7.616,0.058
7.617,0.059
7.618,0.063
7.619,0.066
7.620,0.072
7.621,0.075
7.622,0.077
7.623,0.078
7.624,0.081
7.625,0.081
7.626,0.086
7.627,0.088
7.628,0.092
7.629,0.097
7.630,0.099
7.631,0.097
7.632,0.100
7.633,0.100
7.634,0.103
7.635,0.103
7.636,0.109
7.637,0.116
7.638,0.116
7.639,0.119
7.640,0.124
7.641,0.122
7.642,0.128
7.643,0.134
7.644,0.134
7.645,0.137
7.646,0.134
7.647,0.134
7.648,0.137
7.649,0.137
7.650,0.141
7.651,0.147
7.652,0.148
7.653,0.153
7.654,0.152
7.655,0.150
7.656,0.152
7.657,0.150
7.658,0.153
7.659,0.153
7.660,0.158
7.661,0.159
7.662,0.164
7.663,0.169
7.664,0.166
7.665,0.162
7.666,0.164
7.667,0.162
7.668,0.162
7.669,0.162
7.670,0.166
7.671,0.169
7.672,0.172
7.673,0.175
7.674,0.174
7.675,0.175
7.676,0.175
7.677,0.178
7.678,0.179
7.679,0.178
7.680,0.184
7.681,0.188
7.682,0.191
7.683,0.197
7.684,0.197
7.685,0.194
7.686,0.188
7.687,0.184
7.688,0.184
7.689,0.178
7.690,0.177
7.691,0.172
7.692,0.169
7.693,0.169
7.694,0.168
7.695,0.159
7.696,0.156
7.697,0.150
7.698,0.143
7.699,0.134
7.700,0.126
7.701,0.122
7.702,0.116
7.703,0.109
7.704,0.102
7.705,0.091
7.706,0.086
7.707,0.081
7.708,0.068
7.709,0.056
7.710,0.049
7.711,0.041
7.712,0.036
7.713,0.031
7.714,0.025
7.715,0.016
7.716,0.013
7.717,0.006
7.718,-0.004
7.719,-0.009
7.720,-0.016
7.721,-0.019
7.722,-0.024
7.723,-0.028
7.724,-0.032
7.725,-0.037
7.726,-0.044
7.727,-0.047
7.728,-0.050
7.729,-0.050
7.730,-0.053
7.731,-0.056
7.732,-0.061
7.733,-0.066
7.734,-0.069
7.735,-0.069
7.736,-0.076
7.737,-0.081
7.738,-0.083
7.739,-0.084
7.740,-0.081
7.741,-0.081
7.742,-0.091
7.743,-0.097
7.744,-0.100
7.745,-0.103
7.746,-0.103
7.747,-0.103
7.748,-0.100
7.749,-0.100
7.750,-0.100
7.751,-0.097
7.752,-0.097
7.753,-0.094
7.754,-0.100
7.755,-0.106
7.756,-0.111
7.757,-0.109
7.758,-0.111
7.759,-0.112
7.760,-0.116
7.761,-0.119
7.762,-0.120
7.763,-0.122
7.764,-0.121
7.765,-0.122
7.766,-0.121
7.767,-0.122
7.768,-0.122
7.769,-0.122
7.770,-0.119
7.771,-0.119
7.772,-0.117
7.773,-0.119
7.774,-0.120
7.775,-0.122
7.776,-0.122
7.777,-0.122
7.778,-0.116
7.779,-0.112
7.780,-0.109
7.781,-0.112
7.782,-0.111
7.783,-0.112
7.784,-0.112
7.785,-0.109
7.786,-0.111
7.787,-0.109
7.788,-0.109
7.789,-0.106
7.790,-0.106
7.791,-0.106
7.792,-0.104
7.793,-0.106
7.794,-0.106
7.795,-0.103
7.796,-0.103
7.797,-0.103
7.798,-0.101
7.799,-0.103
7.800,-0.106
7.801,-0.106
7.802,-0.105
7.803,-0.106
7.804,-0.102
7.805,-0.100
7.806,-0.099
7.807,-0.094
7.808,-0.094
7.809,-0.094
7.810,-0.092
7.811,-0.094
7.812,-0.094
7.813,-0.094
7.814,-0.092
7.815,-0.094
7.816,-0.094
7.817,-0.091
7.818,-0.091
7.819,-0.091
7.820,-0.095
7.821,-0.097
7.822,-0.097
7.823,-0.097
7.824,-0.092
7.825,-0.091
7.826,-0.086
7.827,-0.078
7.828,-0.078
7.829,-0.078
7.830,-0.079
7.831,-0.081
7.832,-0.081
7.833,-0.081
7.834,-0.084
7.835,-0.084
7.836,-0.084
7.837,-0.084
7.838,-0.083
7.839,-0.078
7.840,-0.077
7.841,-0.078
7.842,-0.076
7.843,-0.078
7.844,-0.078
7.845,-0.078
7.846,-0.074
7.847,-0.072
7.848,-0.072
7.849,-0.072
7.850,-0.072
7.851,-0.072
7.852,-0.073
7.853,-0.072
7.854,-0.072
7.855,-0.072
7.856,-0.073
7.857,-0.075
7.858,-0.076
7.859,-0.081
7.860,-0.081
7.861,-0.078
7.862,-0.078
7.863,-0.075
7.864,-0.079
7.865,-0.081
7.866,-0.081
7.867,-0.081
7.868,-0.078
7.869,-0.075
7.870,-0.083
7.871,-0.087
7.872,-0.089
7.873,-0.091
7.874,-0.089
7.875,-0.087
7.876,-0.087
7.877,-0.087
7.878,-0.091
7.879,-0.091
7.880,-0.094
7.881,-0.094
7.882,-0.092
7.883,-0.094
7.884,-0.094
7.885,-0.094
7.886,-0.094
7.887,-0.094
7.888,-0.094
7.889,-0.094
7.890,-0.094
7.891,-0.094
7.892,-0.098
7.893,-0.097
7.894,-0.099
7.895,-0.100
7.896,-0.100
7.897,-0.097
7.898,-0.100
7.899,-0.100
7.900,-0.099
7.901,-0.100
7.902,-0.101
7.903,-0.103
7.904,-0.106
7.905,-0.106
7.906,-0.105
7.907,-0.106
7.908,-0.105
7.909,-0.103
7.910,-0.107
7.911,-0.106
7.912,-0.106
7.913,-0.106
7.914,-0.105
7.915,-0.106
7.916,-0.104
7.917,-0.106
7.918,-0.107
7.919,-0.109
7.920,-0.116
7.921,-0.119
7.922,-0.120
7.923,-0.122
7.924,-0.122
7.925,-0.122
7.926,-0.121
7.927,-0.122
7.928,-0.123
7.929,-0.122
7.930,-0.125
7.931,-0.125
7.932,-0.126
7.933,-0.125
7.934,-0.125
7.935,-0.128
7.936,-0.127
7.937,-0.125
7.938,-0.124
7.939,-0.119
7.940,-0.117
7.941,-0.119
7.942,-0.119
7.943,-0.119
7.944,-0.119
7.945,-0.122
7.946,-0.123
7.947,-0.122
7.948,-0.122
7.949,-0.125
7.950,-0.124
7.951,-0.125
7.952,-0.124
7.953,-0.122
7.954,-0.122
7.955,-0.122
7.956,-0.126
7.957,-0.125
7.958,-0.126
7.959,-0.128
7.960,-0.127
7.961,-0.125
7.962,-0.125
7.963,-0.125
7.964,-0.125
7.965,-0.125
7.966,-0.123
7.967,-0.125
7.968,-0.126
7.969,-0.125
7.970,-0.121
7.971,-0.116
7.972,-0.108
7.973,-0.097
7.974,-0.095
7.975,-0.091
7.976,-0.091
7.977,-0.087
7.978,-0.083
7.979,-0.072
7.980,-0.069
7.981,-0.062
7.982,-0.059
7.983,-0.056
7.984,-0.054
7.985,-0.056
7.986,-0.052
7.987,-0.056
7.988,-0.056
7.989,-0.059
7.990,-0.069
7.991,-0.066
7.992,-0.061
7.993,-0.059
7.994,-0.053
7.995,-0.044
7.996,-0.042
7.997,-0.037
7.998,-0.037
7.999,-0.034
8.000,-0.031
8.001,-0.031
8.002,-0.027
8.003,-0.022
8.004,-0.020
8.005,-0.019
8.006,-0.017
8.007,-0.019
8.008,-0.017
8.009,-0.022
8.010,-0.027
8.011,-0.028
8.012,-0.028
8.013,-0.028
8.014,-0.027
8.015,-0.028
8.016,-0.027
8.017,-0.028
8.018,-0.027
8.019,-0.028
8.020,-0.029
8.021,-0.031
8.022,-0.032
8.023,-0.034
8.024,-0.034
8.025,-0.034
8.026,-0.036
8.027,-0.034
8.028,-0.039
8.029,-0.044
8.030,-0.047
8.031,-0.050
8.032,-0.053
8.033,-0.056
8.034,-0.064
8.035,-0.069
8.036,-0.081
8.037,-0.091
8.038,-0.094
8.039,-0.106
8.040,-0.116
8.041,-0.122
8.042,-0.125
8.043,-0.125
8.044,-0.128
8.045,-0.125
8.046,-0.128
8.047,-0.131
8.048,-0.134
8.049,-0.137
8.050,-0.136
8.051,-0.137
8.052,-0.137
8.053,-0.141
8.054,-0.137
8.055,-0.141
8.056,-0.141
8.057,-0.144
8.058,-0.147
8.059,-0.150
8.060,-0.153
8.061,-0.156
8.062,-0.155
8.063,-0.156
8.064,-0.155
8.065,-0.156
8.066,-0.155
8.067,-0.150
8.068,-0.151
8.069,-0.153
8.070,-0.153
8.071,-0.153
8.072,-0.154
8.073,-0.156
8.074,-0.159
8.075,-0.159
8.076,-0.162
8.077,-0.162
8.078,-0.161
8.079,-0.162
8.080,-0.164
8.081,-0.166
8.082,-0.167
8.083,-0.169
8.084,-0.172
8.085,-0.172
8.086,-0.169
8.087,-0.166
8.088,-0.166
8.089,-0.159
8.090,-0.161
8.091,-0.159
8.092,-0.159
8.093,-0.159
8.094,-0.164
8.095,-0.169
8.096,-0.166
8.097,-0.166
8.098,-0.164
8.099,-0.162
8.100,-0.162
8.101,-0.162
8.102,-0.164
8.103,-0.169
8.104,-0.172
8.105,-0.175
8.106,-0.184
8.107,-0.194
8.108,-0.203
8.109,-0.222
8.110,-0.242
8.111,-0.269
8.112,-0.296
8.113,-0.316
8.114,-0.334
8.115,-0.334
8.116,-0.334
8.117,-0.319
8.118,-0.296
8.119,-0.269
8.120,-0.242
8.121,-0.203
8.122,-0.170
8.123,-0.141
8.124,-0.105
8.125,-0.066
8.126,-0.024
8.127,0.041
8.128,0.108
8.129,0.181
8.130,0.264
8.131,0.356
8.132,0.448
8.133,0.569
8.134,0.676
8.135,0.788
8.136,0.897
8.137,0.997
8.138,1.109
8.139,1.216
8.140,1.311
8.141,1.422
8.142,1.503
8.143,1.572
8.144,1.614
8.145,1.563
8.146,1.521
8.147,1.409
8.148,1.303
8.149,1.209
8.150,1.099
8.151,0.981
8.152,0.863
8.153,0.744
8.154,0.625
8.155,0.512
8.156,0.397
8.157,0.288
8.158,0.196
8.159,0.109
8.160,0.029
8.161,-0.022
8.162,-0.069
8.163,-0.116
8.164,-0.153
8.165,-0.166
8.166,-0.188
8.167,-0.181
8.168,-0.177
8.169,-0.162
8.170,-0.149
8.171,-0.112
8.172,-0.092
8.173,-0.075
8.174,-0.048
8.175,-0.034
8.176,-0.017
8.177,-0.009
8.178,-0.006
8.179,-0.006
8.180,0.000
8.181,0.000
8.182,0.000
8.183,-0.003
8.184,-0.007
8.185,-0.019
8.186,-0.021
8.187,-0.022
8.188,-0.029
8.189,-0.034
8.190,-0.044
8.191,-0.053
8.192,-0.058
8.193,-0.059
8.194,-0.066
8.195,-0.066
8.196,-0.064
8.197,-0.059
8.198,-0.064
8.199,-0.066
8.200,-0.061
8.201,-0.062
8.202,-0.064
8.203,-0.066
8.204,-0.066
8.205,-0.066
8.206,-0.066
8.207,-0.066
8.208,-0.066
8.209,-0.066
8.210,-0.067
8.211,-0.069
8.212,-0.070
8.213,-0.069
8.214,-0.071
8.215,-0.066
8.216,-0.061
8.217,-0.056
8.218,-0.058
8.219,-0.059
8.220,-0.059
8.221,-0.059
8.222,-0.059
8.223,-0.059
8.224,-0.058
8.225,-0.053
8.226,-0.051
8.227,-0.053
8.228,-0.054
8.229,-0.056
8.230,-0.056
8.231,-0.056
8.232,-0.053
8.233,-0.053
8.234,-0.054
8.235,-0.056
8.236,-0.052
8.237,-0.050
8.238,-0.044
8.239,-0.037
8.240,-0.039
8.241,-0.037
8.242,-0.037
8.243,-0.037
8.244,-0.030
8.245,-0.025
8.246,-0.023
8.247,-0.025
8.248,-0.025
8.249,-0.025
8.250,-0.026
8.251,-0.025
8.252,-0.019
8.253,-0.016
8.254,-0.016
8.255,-0.012
8.256,-0.011
8.257,-0.006
8.258,-0.005
8.259,0.000
8.260,0.002
8.261,0.003
8.262,0.006
8.263,0.009
8.264,0.008
8.265,0.009
8.266,0.006
8.267,0.006
8.268,0.008
8.269,0.006
8.270,0.011
8.271,0.016
8.272,0.014
8.273,0.013
8.274,0.014
8.275,0.016
8.276,0.020
8.277,0.022
8.278,0.025
8.279,0.025
8.280,0.031
8.281,0.034
8.282,0.041
8.283,0.041
8.284,0.043
8.285,0.044
8.286,0.043
8.287,0.044
8.288,0.050
8.289,0.053
8.290,0.058
8.291,0.059
8.292,0.066
8.293,0.066
8.294,0.068
8.295,0.069
8.296,0.066
8.297,0.066
8.298,0.068
8.299,0.069
8.300,0.070
8.301,0.075
8.302,0.079
8.303,0.084
8.304,0.086
8.305,0.088
8.306,0.091
8.307,0.097
8.308,0.100
8.309,0.103
8.310,0.103
8.311,0.106
8.312,0.108
8.313,0.113
8.314,0.119
8.315,0.125
8.316,0.126
8.317,0.134
8.318,0.136
8.319,0.137
8.320,0.134
8.321,0.134
8.322,0.139
8.323,0.141
8.324,0.144
8.325,0.150
8.326,0.149
8.327,0.150
8.328,0.152
8.329,0.150
8.330,0.154
8.331,0.156
8.332,0.158
8.333,0.159
8.334,0.159
8.335,0.159
8.336,0.161
8.337,0.159
8.338,0.164
8.339,0.166
8.340,0.170
8.341,0.178
8.342,0.175
8.343,0.175
8.344,0.172
8.345,0.172
8.346,0.172
8.347,0.175
8.348,0.178
8.349,0.178
8.350,0.178
8.351,0.181
8.352,0.181
8.353,0.181
8.354,0.180
8.355,0.181
8.356,0.184
8.357,0.188
8.358,0.192
8.359,0.194
8.360,0.197
8.361,0.197
8.362,0.200
8.363,0.200
8.364,0.197
8.365,0.200
8.366,0.200
8.367,0.200
8.368,0.204
8.369,0.206
8.370,0.204
8.371,0.203
8.372,0.202
8.373,0.200
8.374,0.194
8.375,0.194
8.376,0.189
8.377,0.181
8.378,0.177
8.379,0.175
8.380,0.170
8.381,0.169
8.382,0.162
8.383,0.156
8.384,0.149
8.385,0.137
8.386,0.130
8.387,0.122
8.388,0.116
8.389,0.109
8.390,0.101
8.391,0.097
8.392,0.089
8.393,0.078
8.394,0.069
8.395,0.059
8.396,0.056
8.397,0.053
8.398,0.044
8.399,0.034
8.400,0.026
8.401,0.025
8.402,0.020
8.403,0.013
8.404,0.009
8.405,0.003
8.406,0.000
8.407,-0.006
8.408,-0.014
8.409,-0.019
8.410,-0.022
8.411,-0.028
8.412,-0.031
8.413,-0.037
8.414,-0.037
8.415,-0.037
8.416,-0.041
8.417,-0.044
8.418,-0.046
8.419,-0.047
8.420,-0.046
8.421,-0.050
8.422,-0.053
8.423,-0.056
8.424,-0.062
8.425,-0.066
8.426,-0.069
8.427,-0.072
8.428,-0.071
8.429,-0.072
8.430,-0.075
8.431,-0.075
8.432,-0.074
8.433,-0.072
8.434,-0.078
8.435,-0.084
8.436,-0.086
8.437,-0.087
8.438,-0.084
8.439,-0.087
8.440,-0.089
8.441,-0.091
8.442,-0.086
8.443,-0.087
8.444,-0.091
8.445,-0.091
8.446,-0.092
8.447,-0.094
8.448,-0.092
8.449,-0.091
8.450,-0.095
8.451,-0.097
8.452,-0.100
8.453,-0.100
8.454,-0.100
8.455,-0.097
8.456,-0.096
8.457,-0.094
8.458,-0.097
8.459,-0.097
8.460,-0.098
8.461,-0.100
8.462,-0.101
8.463,-0.100
8.464,-0.099
8.465,-0.094
8.466,-0.098
8.467,-0.097
8.468,-0.098
8.469,-0.100
8.470,-0.097
8.471,-0.100
8.472,-0.099
8.473,-0.097
8.474,-0.092
8.475,-0.091
8.476,-0.092
8.477,-0.091
8.478,-0.091
8.479,-0.091
8.480,-0.086
8.481,-0.084
8.482,-0.086
8.483,-0.084
8.484,-0.083
8.485,-0.081
8.486,-0.078
8.487,-0.078
8.488,-0.081
8.489,-0.078
8.490,-0.081
8.491,-0.084
8.492,-0.083
8.493,-0.084
8.494,-0.081
8.495,-0.075
8.496,-0.076
8.497,-0.078
8.498,-0.077
8.499,-0.072
8.500,-0.072
8.501,-0.072
8.502,-0.070
8.503,-0.072
8.504,-0.067
8.505,-0.062
8.506,-0.058
8.507,-0.056
8.508,-0.059
8.509,-0.059
8.510,-0.059
8.511,-0.059
8.512,-0.053
8.513,-0.053
8.514,-0.058
8.515,-0.056
8.516,-0.056
8.517,-0.059
8.518,-0.059
8.519,-0.059
8.520,-0.058
8.521,-0.059
8.522,-0.061
8.523,-0.062
8.524,-0.059
8.525,-0.059
8.526,-0.059
8.527,-0.053
8.528,-0.052
8.529,-0.050
8.530,-0.053
8.531,-0.056
8.532,-0.062
8.533,-0.066
8.534,-0.066
8.535,-0.066
8.536,-0.066
8.537,-0.066
8.538,-0.059
8.539,-0.056
8.540,-0.056
8.541,-0.056
8.542,-0.055
8.543,-0.053
8.544,-0.058
8.545,-0.059
8.546,-0.058
8.547,-0.062
8.548,-0.061
8.549,-0.062
8.550,-0.062
8.551,-0.062
8.552,-0.064
8.553,-0.066
8.554,-0.064
8.555,-0.066
8.556,-0.066
8.557,-0.066
8.558,-0.061
8.559,-0.056
8.560,-0.056
8.561,-0.056
8.562,-0.059
8.563,-0.066
8.564,-0.067
8.565,-0.072
8.566,-0.072
8.567,-0.072
8.568,-0.074
8.569,-0.072
8.570,-0.072
8.571,-0.072
8.572,-0.071
8.573,-0.069
8.574,-0.070
8.575,-0.072
8.576,-0.072
8.577,-0.075
8.578,-0.075
8.579,-0.081
8.580,-0.083
8.581,-0.081
8.582,-0.079
8.583,-0.084
8.584,-0.083
8.585,-0.081
8.586,-0.086
8.587,-0.087
8.588,-0.091
8.589,-0.097
8.590,-0.094
8.591,-0.091
8.592,-0.094
8.593,-0.094
8.594,-0.092
8.595,-0.094
8.596,-0.092
8.597,-0.094
8.598,-0.092
8.599,-0.094
8.600,-0.092
8.601,-0.094
8.602,-0.092
8.603,-0.091
8.604,-0.094
8.605,-0.094
8.606,-0.095
8.607,-0.097
8.608,-0.098
8.609,-0.100
8.610,-0.099
8.611,-0.100
8.612,-0.100
8.613,-0.097
8.614,-0.100
8.615,-0.100
8.616,-0.101
8.617,-0.100
8.618,-0.100
8.619,-0.103
8.620,-0.104
8.621,-0.106
8.622,-0.106
8.623,-0.103
8.624,-0.102
8.625,-0.103
8.626,-0.106
8.627,-0.109
8.628,-0.109
8.629,-0.112
8.630,-0.112
8.631,-0.109
8.632,-0.108
8.633,-0.109
8.634,-0.109
8.635,-0.112
8.636,-0.112
8.637,-0.112
8.638,-0.111
8.639,-0.109
8.640,-0.112
8.641,-0.109
8.642,-0.109
8.643,-0.109
8.644,-0.114
8.645,-0.119
8.646,-0.119
8.647,-0.119
8.648,-0.116
8.649,-0.112
8.650,-0.111
8.651,-0.112
8.652,-0.114
8.653,-0.112
8.654,-0.106
8.655,-0.100
8.656,-0.097
8.657,-0.091
8.658,-0.087
8.659,-0.081
8.660,-0.078
8.661,-0.072
8.662,-0.071
8.663,-0.062
8.664,-0.062
8.665,-0.059
8.666,-0.056
8.667,-0.053
8.668,-0.050
8.669,-0.050
8.670,-0.048
8.671,-0.056
8.672,-0.056
8.673,-0.059
8.674,-0.067
8.675,-0.062
8.676,-0.056
8.677,-0.053
8.678,-0.047
8.679,-0.037
8.680,-0.036
8.681,-0.031
8.682,-0.031
8.683,-0.028
8.684,-0.024
8.685,-0.022
8.686,-0.018
8.687,-0.012
8.688,-0.009
8.689,-0.006
8.690,-0.003
8.691,-0.003
8.692,-0.001
8.693,-0.006
8.694,-0.011
8.695,-0.012
8.696,-0.012
8.697,-0.012
8.698,-0.019
8.699,-0.028
8.700,-0.028
8.701,-0.031
8.702,-0.030
8.703,-0.031
8.704,-0.030
8.705,-0.028
8.706,-0.028
8.707,-0.028
8.708,-0.027
8.709,-0.025
8.710,-0.029
8.711,-0.031
8.712,-0.037
8.713,-0.044
8.714,-0.046
8.715,-0.047
8.716,-0.046
8.717,-0.044
8.718,-0.047
8.719,-0.047
8.720,-0.061
8.721,-0.072
8.722,-0.078
8.723,-0.094
8.724,-0.102
8.725,-0.106
8.726,-0.108
8.727,-0.106
8.728,-0.116
8.729,-0.119
8.730,-0.121
8.731,-0.122
8.732,-0.125
8.733,-0.128
8.734,-0.127
8.735,-0.128
8.736,-0.128
8.737,-0.131
8.738,-0.131
8.739,-0.137
8.740,-0.136
8.741,-0.137
8.742,-0.139
8.743,-0.141
8.744,-0.144
8.745,-0.147
8.746,-0.146
8.747,-0.147
8.748,-0.142
8.749,-0.141
8.750,-0.144
8.751,-0.144
8.752,-0.145
8.753,-0.147
8.754,-0.148
8.755,-0.150
8.756,-0.149
8.757,-0.147
8.758,-0.150
8.759,-0.150
8.760,-0.153
8.761,-0.153
8.762,-0.149
8.763,-0.147
8.764,-0.147
8.765,-0.147
8.766,-0.147
8.767,-0.147
8.768,-0.154
8.769,-0.159
8.770,-0.161
8.771,-0.162
8.772,-0.167
8.773,-0.166
8.774,-0.164
8.775,-0.159
8.776,-0.158
8.777,-0.156
8.778,-0.158
8.779,-0.159
8.780,-0.157
8.781,-0.159
8.782,-0.159
8.783,-0.159
8.784,-0.161
8.785,-0.162
8.786,-0.161
8.787,-0.162
8.788,-0.164
8.789,-0.166
8.790,-0.175
8.791,-0.184
8.792,-0.197
8.793,-0.219
8.794,-0.234
8.795,-0.256
8.796,-0.281
8.797,-0.300
8.798,-0.322
8.799,-0.325
8.800,-0.328
8.801,-0.316
8.802,-0.299
8.803,-0.278
8.804,-0.256
8.805,-0.222
8.806,-0.191
8.807,-0.162
8.808,-0.131
8.809,-0.097
8.810,-0.059
8.811,0.000
8.812,0.066
8.813,0.137
8.814,0.211
8.815,0.294
8.816,0.381
8.817,0.497
8.818,0.606
8.819,0.719
8.820,0.831
8.821,0.934
8.822,1.039
8.823,1.138
8.824,1.233
8.825,1.344
8.826,1.446
8.827,1.534
8.828,1.613
8.829,1.597
8.830,1.558
8.831,1.450
8.832,1.342
8.833,1.247
8.834,1.148
8.835,1.044
8.836,0.919
8.837,0.794
8.838,0.671
8.839,0.553
8.840,0.439
8.841,0.331
8.842,0.234
8.843,0.144
8.844,0.063
8.845,0.009
8.846,-0.044
8.847,-0.097
8.848,-0.146
8.849,-0.169
8.850,-0.192
8.851,-0.188
8.852,-0.186
8.853,-0.175
8.854,-0.166
8.855,-0.134
8.856,-0.111
8.857,-0.091
8.858,-0.067
8.859,-0.056
8.860,-0.031
8.861,-0.016
8.862,-0.006
8.863,0.000
8.864,0.003
8.865,0.000
8.866,0.000
8.867,-0.003
8.868,-0.004
8.869,-0.012
8.870,-0.020
8.871,-0.028
8.872,-0.034
8.873,-0.037
8.874,-0.045
8.875,-0.053
8.876,-0.058
8.877,-0.059
8.878,-0.064
8.879,-0.062
8.880,-0.064
8.881,-0.062
8.882,-0.066
8.883,-0.066
8.884,-0.062
8.885,-0.066
8.886,-0.064
8.887,-0.062
8.888,-0.064
8.889,-0.066
8.890,-0.067
8.891,-0.069
8.892,-0.069
8.893,-0.069
8.894,-0.069
8.895,-0.069
8.896,-0.069
8.897,-0.066
8.898,-0.070
8.899,-0.069
8.900,-0.067
8.901,-0.066
8.902,-0.066
8.903,-0.066
8.904,-0.067
8.905,-0.069
8.906,-0.067
8.907,-0.066
8.908,-0.069
8.909,-0.069
8.910,-0.064
8.911,-0.062
8.912,-0.061
8.913,-0.059
8.914,-0.059
8.915,-0.059
8.916,-0.059
8.917,-0.062
8.918,-0.058
8.919,-0.053
8.920,-0.053
8.921,-0.056
8.922,-0.053
8.923,-0.050
8.924,-0.051
8.925,-0.050
8.926,-0.046
8.927,-0.041
8.928,-0.037
8.929,-0.037
8.930,-0.034
8.931,-0.034
8.932,-0.032
8.933,-0.031
8.934,-0.032
8.935,-0.031
8.936,-0.028
8.937,-0.028
8.938,-0.024
8.939,-0.016
8.940,-0.017
8.941,-0.016
8.942,-0.023
8.943,-0.028
8.944,-0.025
8.945,-0.022
8.946,-0.021
8.947,-0.019
8.948,-0.016
8.949,-0.009
8.950,-0.009
8.951,-0.006
8.952,-0.002
8.953,0.000
8.954,0.002
8.955,0.003
8.956,0.003
8.957,0.003
8.958,0.005
8.959,0.006
8.960,0.011
8.961,0.013
8.962,0.014
8.963,0.013
8.964,0.017
8.965,0.019
8.966,0.024
8.967,0.022
8.968,0.025
8.969,0.028
8.970,0.027
8.971,0.028
8.972,0.032
8.973,0.034
8.974,0.036
8.975,0.034
8.976,0.041
8.977,0.041
8.978,0.045
8.979,0.050
8.980,0.051
8.981,0.056
8.982,0.058
8.983,0.059
8.984,0.059
8.985,0.063
8.986,0.067
8.987,0.072
8.988,0.075
8.989,0.078
8.990,0.078
8.991,0.081
8.992,0.086
8.993,0.091
8.994,0.089
8.995,0.091
8.996,0.092
8.997,0.097
8.998,0.099
8.999,0.100
9.000,0.101
9.001,0.109
9.002,0.113
9.003,0.116
9.004,0.114
9.005,0.116
9.006,0.120
9.007,0.122
9.008,0.121
9.009,0.122
9.010,0.126
9.011,0.134
9.012,0.137
9.013,0.137
9.014,0.139
9.015,0.137
9.016,0.141
9.017,0.144
9.018,0.143
9.019,0.141
9.020,0.143
9.021,0.141
9.022,0.144
9.023,0.144
9.024,0.143
9.025,0.144
9.026,0.147
9.027,0.153
9.028,0.154
9.029,0.159
9.030,0.158
9.031,0.159
9.032,0.161
9.033,0.159
9.034,0.158
9.035,0.159
9.036,0.162
9.037,0.166
9.038,0.166
9.039,0.169
9.040,0.169
9.041,0.169
9.042,0.172
9.043,0.172
9.044,0.175
9.045,0.175
9.046,0.178
9.047,0.178
9.048,0.174
9.049,0.175
9.050,0.175
9.051,0.175
9.052,0.179
9.053,0.181
9.054,0.181
9.055,0.181
9.056,0.177
9.057,0.172
9.058,0.169
9.059,0.172
9.060,0.170
9.061,0.166
9.062,0.162
9.063,0.162
9.064,0.156
9.065,0.153
9.066,0.146
9.067,0.137
9.068,0.130
9.069,0.119
9.070,0.111
9.071,0.103
9.072,0.098
9.073,0.094
9.074,0.083
9.075,0.075
9.076,0.072
9.077,0.066
9.078,0.055
9.079,0.044
9.080,0.039
9.081,0.034
9.082,0.029
9.083,0.025
9.084,0.017
9.085,0.016
9.086,0.013
9.087,0.006
9.088,0.000
9.089,-0.009
9.090,-0.012
9.091,-0.019
9.092,-0.025
9.093,-0.028
9.094,-0.032
9.095,-0.041
9.096,-0.044
9.097,-0.050
9.098,-0.050
9.099,-0.050
9.100,-0.053
9.101,-0.056
9.102,-0.061
9.103,-0.066
9.104,-0.064
9.105,-0.069
9.106,-0.069
9.107,-0.069
9.108,-0.072
9.109,-0.072
9.110,-0.076
9.111,-0.081
9.112,-0.081
9.113,-0.084
9.114,-0.086
9.115,-0.084
9.116,-0.087
9.117,-0.091
9.118,-0.092
9.119,-0.094
9.120,-0.094
9.121,-0.094
9.122,-0.094
9.123,-0.100
9.124,-0.100
9.125,-0.100
9.126,-0.097
9.127,-0.100
9.128,-0.103
9.129,-0.103
9.130,-0.103
9.131,-0.103
9.132,-0.103
9.133,-0.103
9.134,-0.106
9.135,-0.106
9.136,-0.108
9.137,-0.106
9.138,-0.107
9.139,-0.106
9.140,-0.106
9.141,-0.106
9.142,-0.112
9.143,-0.116
9.144,-0.112
9.145,-0.109
9.146,-0.111
9.147,-0.109
9.148,-0.109
9.149,-0.106
9.150,-0.111
9.151,-0.109
9.152,-0.109
9.153,-0.109
9.154,-0.103
9.155,-0.103
9.156,-0.103
9.157,-0.103
9.158,-0.097
9.159,-0.094
9.160,-0.095
9.161,-0.094
9.162,-0.094
9.163,-0.094
9.164,-0.092
9.165,-0.094
9.166,-0.095
9.167,-0.094
9.168,-0.092
9.169,-0.091
9.170,-0.086
9.171,-0.084
9.172,-0.089
9.173,-0.087
9.174,-0.087
9.175,-0.087
9.176,-0.086
9.177,-0.087
9.178,-0.089
9.179,-0.087
9.180,-0.084
9.181,-0.081
9.182,-0.081
9.183,-0.078
9.184,-0.078
9.185,-0.078
9.186,-0.078
9.187,-0.081
9.188,-0.078
9.189,-0.075
9.190,-0.072
9.191,-0.072
9.192,-0.073
9.193,-0.072
9.194,-0.073
9.195,-0.075
9.196,-0.069
9.197,-0.069
9.198,-0.072
9.199,-0.069
9.200,-0.066
9.201,-0.066
9.202,-0.066
9.203,-0.066
9.204,-0.064
9.205,-0.066
9.206,-0.062
9.207,-0.059
9.208,-0.058
9.209,-0.059
9.210,-0.066
9.211,-0.066
9.212,-0.064
9.213,-0.062
9.214,-0.062
9.215,-0.062
9.216,-0.066
9.217,-0.066
9.218,-0.066
9.219,-0.066
9.220,-0.067
9.221,-0.069
9.222,-0.066
9.223,-0.066
9.224,-0.062
9.225,-0.059
9.226,-0.058
9.227,-0.056
9.228,-0.064
9.229,-0.069
9.230,-0.066
9.231,-0.069
9.232,-0.067
9.233,-0.069
9.234,-0.069
9.235,-0.069
9.236,-0.069
9.237,-0.069
9.238,-0.069
9.239,-0.072
9.240,-0.073
9.241,-0.075
9.242,-0.075
9.243,-0.075
9.244,-0.075
9.245,-0.075
9.246,-0.074
9.247,-0.075
9.248,-0.075
9.249,-0.078
9.250,-0.077
9.251,-0.075
9.252,-0.078
9.253,-0.078
9.254,-0.079
9.255,-0.081
9.256,-0.083
9.257,-0.084
9.258,-0.084
9.259,-0.084
9.260,-0.083
9.261,-0.084
9.262,-0.081
9.263,-0.084
9.264,-0.089
9.265,-0.091
9.266,-0.086
9.267,-0.087
9.268,-0.087
9.269,-0.087
9.270,-0.087
9.271,-0.084
9.272,-0.087
9.273,-0.094
9.274,-0.095
9.275,-0.097
9.276,-0.101
9.277,-0.103
9.278,-0.103
9.279,-0.106
9.280,-0.103
9.281,-0.103
9.282,-0.103
9.283,-0.103
9.284,-0.103
9.285,-0.106
9.286,-0.104
9.287,-0.106
9.288,-0.105
9.289,-0.103
9.290,-0.106
9.291,-0.106
9.292,-0.107
9.293,-0.109
9.294,-0.109
9.295,-0.109
9.296,-0.108
9.297,-0.109
9.298,-0.109
9.299,-0.106
9.300,-0.109
9.301,-0.109
9.302,-0.112
9.303,-0.112
9.304,-0.111
9.305,-0.112
9.306,-0.112
9.307,-0.112
9.308,-0.114
9.309,-0.112
9.310,-0.108
9.311,-0.106
9.312,-0.107
9.313,-0.109
9.314,-0.106
9.315,-0.106
9.316,-0.109
9.317,-0.109
9.318,-0.108
9.319,-0.109
9.320,-0.108
9.321,-0.109
9.322,-0.109
9.323,-0.109
9.324,-0.111
9.325,-0.112
9.326,-0.117
9.327,-0.116
9.328,-0.116
9.329,-0.116
9.330,-0.116
9.331,-0.116
9.332,-0.114
9.333,-0.112
9.334,-0.114
9.335,-0.116
9.336,-0.111
9.337,-0.109
9.338,-0.112
9.339,-0.112
9.340,-0.086
9.341,-0.059
9.342,-0.033
9.343,-0.003
9.344,-0.004
9.345,-0.003
9.346,-0.004
9.347,-0.003
9.348,-0.022
9.349,-0.034
9.350,-0.047
9.351,-0.056
9.352,-0.050
9.353,-0.044
9.354,-0.042
9.355,-0.044
9.356,-0.042
9.357,-0.050
9.358,-0.054
9.359,-0.062
9.360,-0.072
9.361,-0.069
9.362,-0.064
9.363,-0.062
9.364,-0.055
9.365,-0.044
9.366,-0.041
9.367,-0.034
9.368,-0.028
9.369,-0.019
9.370,-0.014
9.371,-0.012
9.372,-0.009
9.373,-0.006
9.374,-0.007
9.375,-0.009
9.376,-0.007
9.377,-0.009
9.378,-0.006
9.379,-0.009
9.380,-0.012
9.381,-0.012
9.382,-0.012
9.383,-0.012
9.384,-0.016
9.385,-0.022
9.386,-0.022
9.387,-0.025
9.388,-0.024
9.389,-0.025
9.390,-0.026
9.391,-0.028
9.392,-0.029
9.393,-0.031
9.394,-0.030
9.395,-0.028
9.396,-0.030
9.397,-0.028
9.398,-0.030
9.399,-0.031
9.400,-0.037
9.401,-0.044
9.402,-0.047
9.403,-0.050
9.404,-0.054
9.405,-0.056
9.406,-0.066
9.407,-0.072
9.408,-0.077
9.409,-0.091
9.410,-0.100
9.411,-0.106
9.412,-0.109
9.413,-0.109
9.414,-0.116
9.415,-0.116
9.416,-0.120
9.417,-0.125
9.418,-0.128
9.419,-0.131
9.420,-0.131
