'Elapsed time','II'
'seconds','mV'
0.000,-0.093
0.001,-0.093
0.002,-0.095
0.003,-0.098
0.004,-0.103
0.005,-0.110
0.006,-0.115
0.007,-0.110
0.008,-0.105
0.009,-0.120
0.010,-0.148
0.011,-0.160
0.012,-0.165
0.013,-0.173
0.014,-0.173
0.015,-0.163
0.016,-0.163
0.017,-0.160
0.018,-0.125
0.019,-0.080
0.020,-0.065
0.021,-0.045
0.022,0.013
0.023,0.063
0.024,0.093
0.025,0.158
0.026,0.238
0.027,0.315
0.028,0.408
0.029,0.515
0.030,0.625
0.031,0.725
0.032,0.820
0.033,0.918
0.034,1.018
0.035,1.120
0.036,1.220
0.037,1.300
0.038,1.350
0.039,1.370
0.040,1.375
0.041,1.388
0.042,1.415
0.043,1.428
0.044,1.383
0.045,1.243
0.046,1.010
0.047,0.730
0.048,0.448
0.049,0.190
0.050,-0.025
0.051,-0.180
0.052,-0.255
0.053,-0.268
0.054,-0.255
0.055,-0.248
0.056,-0.240
0.057,-0.228
0.058,-0.223
0.059,-0.233
0.060,-0.248
0.061,-0.253
0.062,-0.250
0.063,-0.255
0.064,-0.263
0.065,-0.260
0.066,-0.240
0.067,-0.218
0.068,-0.195
0.069,-0.165
0.070,-0.133
0.071,-0.110
0.072,-0.105
0.073,-0.103
0.074,-0.093
0.075,-0.083
0.076,-0.083
0.077,-0.083
0.078,-0.073
0.079,-0.055
0.080,-0.048
0.081,-0.050
0.082,-0.053
0.083,-0.053
0.084,-0.050
0.085,-0.053
0.086,-0.055
0.087,-0.058
0.088,-0.058
0.089,-0.058
0.090,-0.058
0.091,-0.058
0.092,-0.058
0.093,-0.055
0.094,-0.050
0.095,-0.048
0.096,-0.048
0.097,-0.048
0.098,-0.048
0.099,-0.048
0.100,-0.048
0.101,-0.045
0.102,-0.043
0.103,-0.043
0.104,-0.045
0.105,-0.048
0.106,-0.048
0.107,-0.048
0.108,-0.048
0.109,-0.050
0.110,-0.048
0.111,-0.045
0.112,-0.045
0.113,-0.045
0.114,-0.038
0.115,-0.030
0.116,-0.025
0.117,-0.030
0.118,-0.038
0.119,-0.043
0.120,-0.038
0.121,-0.033
0.122,-0.028
0.123,-0.030
0.124,-0.033
0.125,-0.033
0.126,-0.028
0.127,-0.025
0.128,-0.028
0.129,-0.025
0.130,-0.023
0.131,-0.020
0.132,-0.025
0.133,-0.025
0.134,-0.020
0.135,-0.008
0.136,-0.003
0.137,0.003
0.138,0.000
0.139,0.005
0.140,0.000
0.141,0.003
0.142,-0.003
0.143,0.003
0.144,-0.003
0.145,0.000
0.146,-0.003
0.147,0.003
0.148,0.003
0.149,0.008
0.150,0.008
0.151,0.010
0.152,0.013
0.153,0.013
0.154,0.013
0.155,0.013
0.156,0.015
0.157,0.015
0.158,0.018
0.159,0.020
0.160,0.025
0.161,0.025
0.162,0.025
0.163,0.025
0.164,0.028
0.165,0.025
0.166,0.025
0.167,0.023
0.168,0.028
0.169,0.030
0.170,0.030
0.171,0.030
0.172,0.035
0.173,0.038
0.174,0.038
0.175,0.033
0.176,0.035
0.177,0.038
0.178,0.040
0.179,0.038
0.180,0.038
0.181,0.043
0.182,0.050
0.183,0.050
0.184,0.050
0.185,0.050
0.186,0.055
0.187,0.058
0.188,0.058
0.189,0.058
0.190,0.060
0.191,0.063
0.192,0.063
0.193,0.058
0.194,0.055
0.195,0.058
0.196,0.065
0.197,0.065
0.198,0.063
0.199,0.063
0.200,0.068
0.201,0.073
0.202,0.073
0.203,0.065
0.204,0.063
0.205,0.070
0.206,0.083
0.207,0.093
0.208,0.093
0.209,0.088
0.210,0.088
0.211,0.093
0.212,0.095
0.213,0.093
0.214,0.090
0.215,0.090
0.216,0.095
0.217,0.098
0.218,0.100
0.219,0.105
0.220,0.108
0.221,0.105
0.222,0.098
0.223,0.098
0.224,0.108
0.225,0.113
0.226,0.110
0.227,0.110
0.228,0.120
0.229,0.130
0.230,0.128
0.231,0.118
0.232,0.113
0.233,0.120
0.234,0.125
0.235,0.125
0.236,0.123
0.237,0.125
0.238,0.125
0.239,0.125
0.240,0.128
0.241,0.135
0.242,0.135
0.243,0.128
0.244,0.123
0.245,0.125
0.246,0.130
0.247,0.133
0.248,0.135
0.249,0.138
0.250,0.138
0.251,0.135
0.252,0.133
0.253,0.135
0.254,0.140
0.255,0.143
0.256,0.143
0.257,0.148
0.258,0.155
0.259,0.158
0.260,0.155
0.261,0.155
0.262,0.155
0.263,0.155
0.264,0.153
0.265,0.155
0.266,0.158
0.267,0.158
0.268,0.155
0.269,0.153
0.270,0.150
0.271,0.148
0.272,0.145
0.273,0.145
0.274,0.148
0.275,0.150
0.276,0.153
0.277,0.153
0.278,0.153
0.279,0.148
0.280,0.140
0.281,0.133
0.282,0.130
0.283,0.130
0.284,0.128
0.285,0.128
0.286,0.125
0.287,0.120
0.288,0.113
0.289,0.105
0.290,0.100
0.291,0.098
0.292,0.095
0.293,0.093
0.294,0.090
0.295,0.085
0.296,0.080
0.297,0.075
0.298,0.068
0.299,0.058
0.300,0.048
0.301,0.045
0.302,0.045
0.303,0.040
0.304,0.030
0.305,0.025
0.306,0.028
0.307,0.028
0.308,0.023
0.309,0.018
0.310,0.018
0.311,0.018
0.312,0.013
0.313,0.005
0.314,0.003
0.315,0.005
0.316,0.003
0.317,-0.005
0.318,-0.008
0.319,-0.003
0.320,0.000
0.321,-0.003
0.322,-0.010
0.323,-0.015
0.324,-0.015
0.325,-0.013
0.326,-0.013
0.327,-0.013
0.328,-0.013
0.329,-0.015
0.330,-0.020
0.331,-0.023
0.332,-0.025
0.333,-0.023
0.334,-0.018
0.335,-0.015
0.336,-0.018
0.337,-0.020
0.338,-0.020
0.339,-0.020
0.340,-0.025
0.341,-0.028
0.342,-0.030
0.343,-0.028
0.344,-0.030
0.345,-0.030
0.346,-0.030
0.347,-0.025
0.348,-0.025
0.349,-0.028
0.350,-0.030
0.351,-0.030
0.352,-0.033
0.353,-0.035
0.354,-0.035
0.355,-0.033
0.356,-0.030
0.357,-0.028
0.358,-0.028
0.359,-0.028
0.360,-0.025
0.361,-0.020
0.362,-0.018
0.363,-0.020
0.364,-0.030
0.365,-0.033
0.366,-0.028
0.367,-0.023
0.368,-0.030
0.369,-0.040
0.370,-0.043
0.371,-0.033
0.372,-0.025
0.373,-0.025
0.374,-0.028
0.375,-0.025
0.376,-0.020
0.377,-0.020
0.378,-0.025
0.379,-0.025
0.380,-0.020
0.381,-0.015
0.382,-0.015
0.383,-0.018
0.384,-0.018
0.385,-0.015
0.386,-0.015
0.387,-0.013
0.388,-0.013
0.389,-0.010
0.390,-0.010
0.391,-0.010
0.392,-0.010
0.393,-0.010
0.394,-0.010
0.395,-0.010
0.396,-0.013
0.397,-0.013
0.398,-0.008
0.399,0.000
0.400,-0.003
0.401,-0.010
0.402,-0.015
0.403,-0.010
0.404,-0.005
0.405,-0.005
0.406,-0.008
0.407,-0.005
0.408,0.003
0.409,0.003
0.410,-0.005
0.411,-0.013
0.412,-0.015
0.413,-0.013
0.414,-0.013
0.415,-0.013
0.416,-0.013
0.417,-0.010
0.418,-0.008
0.419,-0.008
0.420,-0.008
0.421,-0.008
0.422,-0.008
0.423,-0.005
0.424,-0.005
0.425,-0.008
0.426,-0.010
0.427,-0.010
0.428,-0.008
0.429,-0.003
0.430,-0.003
0.431,-0.008
0.432,-0.013
0.433,-0.015
0.434,-0.018
0.435,-0.018
0.436,-0.020
0.437,-0.020
0.438,-0.020
0.439,-0.018
0.440,-0.018
0.441,-0.020
0.442,-0.023
0.443,-0.023
0.444,-0.023
0.445,-0.025
0.446,-0.028
0.447,-0.025
0.448,-0.023
0.449,-0.023
0.450,-0.028
0.451,-0.028
0.452,-0.023
0.453,-0.020
0.454,-0.025
0.455,-0.030
0.456,-0.025
0.457,-0.020
0.458,-0.020
0.459,-0.025
0.460,-0.025
0.461,-0.023
0.462,-0.025
0.463,-0.030
0.464,-0.033
0.465,-0.030
0.466,-0.028
0.467,-0.028
0.468,-0.030
0.469,-0.033
0.470,-0.035
0.471,-0.038
0.472,-0.035
0.473,-0.033
0.474,-0.033
0.475,-0.035
0.476,-0.038
0.477,-0.038
0.478,-0.035
0.479,-0.035
0.480,-0.035
0.481,-0.033
0.482,-0.030
0.483,-0.030
0.484,-0.033
0.485,-0.040
0.486,-0.045
0.487,-0.043
0.488,-0.038
0.489,-0.038
0.490,-0.043
0.491,-0.045
0.492,-0.040
0.493,-0.038
0.494,-0.045
0.495,-0.050
0.496,-0.045
0.497,-0.038
0.498,-0.038
0.499,-0.048
0.500,-0.050
0.501,-0.043
0.502,-0.038
0.503,-0.043
0.504,-0.048
0.505,-0.048
0.506,-0.048
0.507,-0.050
0.508,-0.053
0.509,-0.045
0.510,-0.040
0.511,-0.043
0.512,-0.048
0.513,-0.048
0.514,-0.043
0.515,-0.045
0.516,-0.053
0.517,-0.053
0.518,-0.048
0.519,-0.043
0.520,-0.048
0.521,-0.053
0.522,-0.055
0.523,-0.050
0.524,-0.045
0.525,-0.043
0.526,-0.043
0.527,-0.045
0.528,-0.045
0.529,-0.043
0.530,-0.045
0.531,-0.050
0.532,-0.055
0.533,-0.050
0.534,-0.040
0.535,-0.035
0.536,-0.035
0.537,-0.030
0.538,-0.023
0.539,-0.015
0.540,-0.013
0.541,-0.008
0.542,0.003
0.543,0.010
0.544,0.010
0.545,0.013
0.546,0.018
0.547,0.023
0.548,0.018
0.549,0.010
0.550,0.005
0.551,0.008
0.552,0.013
0.553,0.015
0.554,0.020
0.555,0.028
0.556,0.033
0.557,0.038
0.558,0.043
0.559,0.045
0.560,0.048
0.561,0.058
0.562,0.073
0.563,0.088
0.564,0.090
0.565,0.088
0.566,0.085
0.567,0.090
0.568,0.095
0.569,0.103
0.570,0.108
0.571,0.110
0.572,0.105
0.573,0.100
0.574,0.100
0.575,0.103
0.576,0.105
0.577,0.108
0.578,0.115
0.579,0.123
0.580,0.125
0.581,0.123
0.582,0.120
0.583,0.123
0.584,0.123
0.585,0.118
0.586,0.113
0.587,0.113
0.588,0.113
0.589,0.105
0.590,0.095
0.591,0.085
0.592,0.078
0.593,0.068
0.594,0.060
0.595,0.053
0.596,0.048
0.597,0.033
0.598,0.018
0.599,0.005
0.600,0.005
0.601,-0.003
0.602,-0.010
0.603,-0.030
0.604,-0.035
0.605,-0.045
0.606,-0.045
0.607,-0.058
0.608,-0.055
0.609,-0.058
0.610,-0.055
0.611,-0.068
0.612,-0.068
0.613,-0.068
0.614,-0.060
0.615,-0.063
0.616,-0.068
0.617,-0.070
0.618,-0.068
0.619,-0.065
0.620,-0.068
0.621,-0.070
0.622,-0.070
0.623,-0.068
0.624,-0.070
0.625,-0.075
0.626,-0.078
0.627,-0.075
0.628,-0.075
0.629,-0.078
0.630,-0.083
0.631,-0.080
0.632,-0.075
0.633,-0.075
0.634,-0.078
0.635,-0.080
0.636,-0.080
0.637,-0.083
0.638,-0.088
0.639,-0.090
0.640,-0.088
0.641,-0.083
0.642,-0.083
0.643,-0.085
0.644,-0.090
0.645,-0.093
0.646,-0.093
0.647,-0.093
0.648,-0.095
0.649,-0.098
0.650,-0.098
0.651,-0.095
0.652,-0.093
0.653,-0.093
0.654,-0.098
0.655,-0.103
0.656,-0.103
0.657,-0.100
0.658,-0.100
0.659,-0.100
0.660,-0.098
0.661,-0.098
0.662,-0.100
0.663,-0.103
0.664,-0.103
0.665,-0.100
0.666,-0.100
0.667,-0.105
0.668,-0.110
0.669,-0.108
0.670,-0.103
0.671,-0.103
0.672,-0.105
0.673,-0.108
0.674,-0.110
0.675,-0.120
0.676,-0.135
0.677,-0.150
0.678,-0.158
0.679,-0.160
0.680,-0.163
0.681,-0.160
0.682,-0.153
0.683,-0.140
0.684,-0.123
0.685,-0.095
0.686,-0.058
0.687,-0.018
0.688,0.020
0.689,0.060
0.690,0.115
0.691,0.193
0.692,0.280
0.693,0.373
0.694,0.470
0.695,0.575
0.696,0.685
0.697,0.788
0.698,0.880
0.699,0.968
0.700,1.065
0.701,1.173
0.702,1.268
0.703,1.330
0.704,1.355
0.705,1.365
0.706,1.375
0.707,1.393
0.708,1.413
0.709,1.418
0.710,1.378
0.711,1.245
0.712,1.005
0.713,0.695
0.714,0.380
0.715,0.108
0.716,-0.108
0.717,-0.255
0.718,-0.330
0.719,-0.350
0.720,-0.343
0.721,-0.330
0.722,-0.310
0.723,-0.288
0.724,-0.275
0.725,-0.280
0.726,-0.283
0.727,-0.273
0.728,-0.258
0.729,-0.253
0.730,-0.258
0.731,-0.255
0.732,-0.238
0.733,-0.218
0.734,-0.195
0.735,-0.170
0.736,-0.140
0.737,-0.115
0.738,-0.098
0.739,-0.088
0.740,-0.080
0.741,-0.078
0.742,-0.075
0.743,-0.073
0.744,-0.063
0.745,-0.053
0.746,-0.043
0.747,-0.038
0.748,-0.035
0.749,-0.035
0.750,-0.035
0.751,-0.035
0.752,-0.038
0.753,-0.048
0.754,-0.055
0.755,-0.055
0.756,-0.048
0.757,-0.040
0.758,-0.040
0.759,-0.043
0.760,-0.043
0.761,-0.040
0.762,-0.033
0.763,-0.028
0.764,-0.025
0.765,-0.030
0.766,-0.038
0.767,-0.040
0.768,-0.035
0.769,-0.033
0.770,-0.038
0.771,-0.045
0.772,-0.045
0.773,-0.040
0.774,-0.035
0.775,-0.033
0.776,-0.030
0.777,-0.028
0.778,-0.028
0.779,-0.028
0.780,-0.025
0.781,-0.020
0.782,-0.018
0.783,-0.020
0.784,-0.020
0.785,-0.020
0.786,-0.015
0.787,-0.013
0.788,-0.015
0.789,-0.020
0.790,-0.023
0.791,-0.020
0.792,-0.010
0.793,0.000
0.794,0.000
0.795,-0.005
0.796,-0.010
0.797,-0.005
0.798,-0.003
0.799,0.000
0.800,-0.005
0.801,0.000
0.802,0.008
0.803,0.015
0.804,0.008
0.805,0.003
0.806,0.000
0.807,0.010
0.808,0.010
0.809,0.010
0.810,0.003
0.811,0.010
0.812,0.013
0.813,0.018
0.814,0.013
0.815,0.015
0.816,0.015
0.817,0.013
0.818,0.010
0.819,0.010
0.820,0.018
0.821,0.018
0.822,0.018
0.823,0.015
0.824,0.023
0.825,0.028
0.826,0.033
0.827,0.028
0.828,0.028
0.829,0.028
0.830,0.033
0.831,0.030
0.832,0.030
0.833,0.033
0.834,0.045
0.835,0.050
0.836,0.050
0.837,0.043
0.838,0.043
0.839,0.045
0.840,0.045
0.841,0.043
0.842,0.045
0.843,0.048
0.844,0.048
0.845,0.045
0.846,0.045
0.847,0.048
0.848,0.050
0.849,0.048
0.850,0.048
0.851,0.050
0.852,0.053
0.853,0.050
0.854,0.053
0.855,0.058
0.856,0.063
0.857,0.060
0.858,0.058
0.859,0.055
0.860,0.060
0.861,0.065
0.862,0.070
0.863,0.073
0.864,0.075
0.865,0.073
0.866,0.073
0.867,0.075
0.868,0.078
0.869,0.080
0.870,0.085
0.871,0.090
0.872,0.095
0.873,0.095
0.874,0.095
0.875,0.100
0.876,0.105
0.877,0.108
0.878,0.108
0.879,0.105
0.880,0.103
0.881,0.100
0.882,0.100
0.883,0.108
0.884,0.115
0.885,0.118
0.886,0.113
0.887,0.110
0.888,0.113
0.889,0.115
0.890,0.115
0.891,0.118
0.892,0.118
0.893,0.115
0.894,0.113
0.895,0.115
0.896,0.120
0.897,0.125
0.898,0.125
0.899,0.125
0.900,0.130
0.901,0.133
0.902,0.133
0.903,0.130
0.904,0.133
0.905,0.135
0.906,0.138
0.907,0.140
0.908,0.143
0.909,0.143
0.910,0.138
0.911,0.133
0.912,0.135
0.913,0.143
0.914,0.148
0.915,0.150
0.916,0.150
0.917,0.153
0.918,0.155
0.919,0.155
0.920,0.155
0.921,0.158
0.922,0.158
0.923,0.158
0.924,0.155
0.925,0.158
0.926,0.160
0.927,0.163
0.928,0.158
0.929,0.153
0.930,0.153
0.931,0.155
0.932,0.155
0.933,0.153
0.934,0.150
0.935,0.155
0.936,0.158
0.937,0.155
0.938,0.148
0.939,0.145
0.940,0.153
0.941,0.160
0.942,0.158
0.943,0.150
0.944,0.143
0.945,0.138
0.946,0.133
0.947,0.130
0.948,0.128
0.949,0.123
0.950,0.118
0.951,0.115
0.952,0.115
0.953,0.113
0.954,0.100
0.955,0.088
0.956,0.080
0.957,0.080
0.958,0.080
0.959,0.080
0.960,0.078
0.961,0.070
0.962,0.060
0.963,0.055
0.964,0.055
0.965,0.058
0.966,0.050
0.967,0.038
0.968,0.028
0.969,0.023
0.970,0.020
0.971,0.018
0.972,0.018
0.973,0.020
0.974,0.018
0.975,0.010
0.976,0.005
0.977,0.003
0.978,-0.003
0.979,-0.010
0.980,-0.013
0.981,-0.010
0.982,-0.010
0.983,-0.015
0.984,-0.023
0.985,-0.025
0.986,-0.025
0.987,-0.028
0.988,-0.030
0.989,-0.028
0.990,-0.025
0.991,-0.025
0.992,-0.028
0.993,-0.030
0.994,-0.033
0.995,-0.033
0.996,-0.035
0.997,-0.035
0.998,-0.038
0.999,-0.040
1.000,-0.043
1.001,-0.040
1.002,-0.040
1.003,-0.040
1.004,-0.040
1.005,-0.040
1.006,-0.043
1.007,-0.045
1.008,-0.045
1.009,-0.040
1.010,-0.040
1.011,-0.043
1.012,-0.048
1.013,-0.045
1.014,-0.043
1.015,-0.040
1.016,-0.040
1.017,-0.040
1.018,-0.045
1.019,-0.050
1.020,-0.055
1.021,-0.055
1.022,-0.053
1.023,-0.048
1.024,-0.048
1.025,-0.048
1.026,-0.048
1.027,-0.048
1.028,-0.045
1.029,-0.040
1.030,-0.043
1.031,-0.048
1.032,-0.050
1.033,-0.048
1.034,-0.048
1.035,-0.053
1.036,-0.058
1.037,-0.055
1.038,-0.048
1.039,-0.043
1.040,-0.043
1.041,-0.040
1.042,-0.038
1.043,-0.040
1.044,-0.045
1.045,-0.043
1.046,-0.038
1.047,-0.035
1.048,-0.040
1.049,-0.045
1.050,-0.045
1.051,-0.040
1.052,-0.038
1.053,-0.038
1.054,-0.038
1.055,-0.035
1.056,-0.035
1.057,-0.033
1.058,-0.033
1.059,-0.033
1.060,-0.033
1.061,-0.033
1.062,-0.033
1.063,-0.033
1.064,-0.035
1.065,-0.033
1.066,-0.028
1.067,-0.025
1.068,-0.028
1.069,-0.030
1.070,-0.030
1.071,-0.033
1.072,-0.035
1.073,-0.035
1.074,-0.033
1.075,-0.030
1.076,-0.033
1.077,-0.035
1.078,-0.033
1.079,-0.030
1.080,-0.035
1.081,-0.040
1.082,-0.038
1.083,-0.030
1.084,-0.028
1.085,-0.030
1.086,-0.035
1.087,-0.035
1.088,-0.033
1.089,-0.030
1.090,-0.033
1.091,-0.038
1.092,-0.040
1.093,-0.038
1.094,-0.035
1.095,-0.033
1.096,-0.035
1.097,-0.038
1.098,-0.038
1.099,-0.038
1.100,-0.040
1.101,-0.040
1.102,-0.038
1.103,-0.035
1.104,-0.035
1.105,-0.040
1.106,-0.043
1.107,-0.043
1.108,-0.043
1.109,-0.043
1.110,-0.043
1.111,-0.043
1.112,-0.045
1.113,-0.053
1.114,-0.055
1.115,-0.050
1.116,-0.040
1.117,-0.035
1.118,-0.038
1.119,-0.043
1.120,-0.045
1.121,-0.045
1.122,-0.043
1.123,-0.045
1.124,-0.050
1.125,-0.055
1.126,-0.058
1.127,-0.060
1.128,-0.060
1.129,-0.060
1.130,-0.060
1.131,-0.060
1.132,-0.060
1.133,-0.058
1.134,-0.055
1.135,-0.058
1.136,-0.063
1.137,-0.063
1.138,-0.060
1.139,-0.060
1.140,-0.065
1.141,-0.065
1.142,-0.063
1.143,-0.065
1.144,-0.073
1.145,-0.078
1.146,-0.075
1.147,-0.070
1.148,-0.070
1.149,-0.073
1.150,-0.070
1.151,-0.065
1.152,-0.068
1.153,-0.073
1.154,-0.075
1.155,-0.070
1.156,-0.065
1.157,-0.068
1.158,-0.073
1.159,-0.073
1.160,-0.075
1.161,-0.080
1.162,-0.083
1.163,-0.080
1.164,-0.075
1.165,-0.075
1.166,-0.075
1.167,-0.073
1.168,-0.068
1.169,-0.068
1.170,-0.070
1.171,-0.070
1.172,-0.068
1.173,-0.063
1.174,-0.058
1.175,-0.050
1.176,-0.043
1.177,-0.038
1.178,-0.035
1.179,-0.030
1.180,-0.023
1.181,-0.020
1.182,-0.025
1.183,-0.028
1.184,-0.023
1.185,-0.015
1.186,-0.013
1.187,-0.020
1.188,-0.030
1.189,-0.038
1.190,-0.035
1.191,-0.028
1.192,-0.023
1.193,-0.020
1.194,-0.018
1.195,-0.013
1.196,-0.005
1.197,0.005
1.198,0.023
1.199,0.045
1.200,0.060
1.201,0.063
1.202,0.055
1.203,0.050
1.204,0.053
1.205,0.060
1.206,0.065
1.207,0.070
1.208,0.073
1.209,0.070
1.210,0.063
1.211,0.058
1.212,0.058
1.213,0.060
1.214,0.060
1.215,0.065
1.216,0.075
1.217,0.083
1.218,0.083
1.219,0.080
1.220,0.080
1.221,0.080
1.222,0.078
1.223,0.070
1.224,0.065
1.225,0.063
1.226,0.058
1.227,0.053
1.228,0.048
1.229,0.043
1.230,0.035
1.231,0.023
1.232,0.015
1.233,0.010
1.234,0.008
1.235,-0.003
1.236,-0.010
1.237,-0.023
1.238,-0.030
1.239,-0.045
1.240,-0.050
1.241,-0.063
1.242,-0.070
1.243,-0.088
1.244,-0.095
1.245,-0.105
1.246,-0.100
1.247,-0.105
1.248,-0.103
1.249,-0.110
1.250,-0.113
1.251,-0.120
1.252,-0.120
1.253,-0.115
1.254,-0.110
1.255,-0.108
1.256,-0.113
1.257,-0.113
1.258,-0.110
1.259,-0.108
1.260,-0.115
1.261,-0.123
1.262,-0.125
1.263,-0.123
1.264,-0.123
1.265,-0.128
1.266,-0.133
1.267,-0.130
1.268,-0.128
1.269,-0.125
1.270,-0.128
1.271,-0.130
1.272,-0.133
1.273,-0.135
1.274,-0.138
1.275,-0.138
1.276,-0.140
1.277,-0.140
1.278,-0.138
1.279,-0.135
1.280,-0.140
1.281,-0.148
1.282,-0.153
1.283,-0.148
1.284,-0.143
1.285,-0.145
1.286,-0.150
1.287,-0.150
1.288,-0.148
1.289,-0.148
1.290,-0.150
1.291,-0.150
1.292,-0.148
1.293,-0.148
1.294,-0.153
1.295,-0.155
1.296,-0.155
1.297,-0.158
1.298,-0.160
1.299,-0.160
1.300,-0.155
1.301,-0.153
1.302,-0.158
1.303,-0.160
1.304,-0.158
1.305,-0.155
1.306,-0.160
1.307,-0.163
1.308,-0.158
1.309,-0.153
1.310,-0.155
1.311,-0.163
1.312,-0.173
1.313,-0.185
1.314,-0.200
1.315,-0.213
1.316,-0.218
1.317,-0.218
1.318,-0.218
1.319,-0.213
1.320,-0.203
1.321,-0.185
1.322,-0.170
1.323,-0.150
1.324,-0.118
1.325,-0.075
1.326,-0.033
1.327,0.008
1.328,0.055
1.329,0.123
1.330,0.205
1.331,0.303
1.332,0.405
1.333,0.513
1.334,0.623
1.335,0.730
1.336,0.833
1.337,0.925
1.338,1.015
1.339,1.115
1.340,1.218
1.341,1.295
1.342,1.328
1.343,1.328
1.344,1.335
1.345,1.360
1.346,1.380
1.347,1.375
1.348,1.333
1.349,1.223
1.350,1.015
1.351,0.713
1.352,0.383
1.353,0.095
1.354,-0.125
1.355,-0.283
1.356,-0.383
1.357,-0.420
1.358,-0.415
1.359,-0.398
1.360,-0.385
1.361,-0.373
1.362,-0.358
1.363,-0.348
1.364,-0.345
1.365,-0.343
1.366,-0.333
1.367,-0.325
1.368,-0.323
1.369,-0.315
1.370,-0.295
1.371,-0.265
1.372,-0.233
1.373,-0.205
1.374,-0.180
1.375,-0.165
1.376,-0.155
1.377,-0.150
1.378,-0.143
1.379,-0.138
1.380,-0.135
1.381,-0.128
1.382,-0.118
1.383,-0.110
1.384,-0.108
1.385,-0.105
1.386,-0.098
1.387,-0.093
1.388,-0.098
1.389,-0.108
1.390,-0.115
1.391,-0.118
1.392,-0.118
1.393,-0.120
1.394,-0.118
1.395,-0.115
1.396,-0.113
1.397,-0.113
1.398,-0.113
1.399,-0.110
1.400,-0.105
1.401,-0.105
1.402,-0.103
1.403,-0.103
1.404,-0.103
1.405,-0.105
1.406,-0.108
1.407,-0.108
1.408,-0.105
1.409,-0.105
1.410,-0.105
1.411,-0.108
1.412,-0.108
1.413,-0.108
1.414,-0.105
1.415,-0.103
1.416,-0.103
1.417,-0.105
1.418,-0.103
1.419,-0.100
1.420,-0.093
1.421,-0.090
1.422,-0.090
1.423,-0.095
1.424,-0.095
1.425,-0.095
1.426,-0.093
1.427,-0.093
1.428,-0.093
1.429,-0.090
1.430,-0.088
1.431,-0.085
1.432,-0.085
1.433,-0.085
1.434,-0.088
1.435,-0.088
1.436,-0.088
1.437,-0.080
1.438,-0.075
1.439,-0.068
1.440,-0.073
1.441,-0.073
1.442,-0.078
1.443,-0.070
1.444,-0.070
1.445,-0.068
1.446,-0.073
1.447,-0.068
1.448,-0.068
1.449,-0.065
1.450,-0.073
1.451,-0.070
1.452,-0.065
1.453,-0.055
1.454,-0.055
1.455,-0.060
1.456,-0.060
1.457,-0.055
1.458,-0.050
1.459,-0.050
1.460,-0.048
1.461,-0.048
1.462,-0.048
1.463,-0.053
1.464,-0.050
1.465,-0.045
1.466,-0.038
1.467,-0.040
1.468,-0.040
1.469,-0.040
1.470,-0.035
1.471,-0.038
1.472,-0.040
1.473,-0.038
1.474,-0.028
1.475,-0.025
1.476,-0.025
1.477,-0.028
1.478,-0.025
1.479,-0.023
1.480,-0.020
1.481,-0.018
1.482,-0.015
1.483,-0.015
1.484,-0.018
1.485,-0.020
1.486,-0.018
1.487,-0.013
1.488,-0.008
1.489,-0.005
1.490,-0.005
1.491,-0.005
1.492,-0.005
1.493,-0.003
1.494,0.003
1.495,0.005
1.496,0.003
1.497,0.000
1.498,0.000
1.499,0.003
1.500,0.005
1.501,0.010
1.502,0.015
1.503,0.018
1.504,0.015
1.505,0.013
1.506,0.015
1.507,0.020
1.508,0.023
1.509,0.020
1.510,0.023
1.511,0.025
1.512,0.028
1.513,0.025
1.514,0.028
1.515,0.035
1.516,0.043
1.517,0.048
1.518,0.050
1.519,0.053
1.520,0.050
1.521,0.045
1.522,0.043
1.523,0.045
1.524,0.053
1.525,0.055
1.526,0.055
1.527,0.053
1.528,0.053
1.529,0.050
1.530,0.050
1.531,0.053
1.532,0.058
1.533,0.060
1.534,0.063
1.535,0.065
1.536,0.070
1.537,0.073
1.538,0.070
1.539,0.070
1.540,0.073
1.541,0.078
1.542,0.078
1.543,0.075
1.544,0.078
1.545,0.083
1.546,0.083
1.547,0.080
1.548,0.080
1.549,0.083
1.550,0.085
1.551,0.083
1.552,0.085
1.553,0.095
1.554,0.103
1.555,0.103
1.556,0.095
1.557,0.093
1.558,0.098
1.559,0.100
1.560,0.098
1.561,0.095
1.562,0.098
1.563,0.100
1.564,0.103
1.565,0.105
1.566,0.108
1.567,0.108
1.568,0.105
1.569,0.103
1.570,0.100
1.571,0.100
1.572,0.100
1.573,0.103
1.574,0.105
1.575,0.105
1.576,0.100
1.577,0.093
1.578,0.090
1.579,0.090
1.580,0.085
1.581,0.078
1.582,0.075
1.583,0.075
1.584,0.073
1.585,0.065
1.586,0.058
1.587,0.055
1.588,0.055
1.589,0.050
1.590,0.045
1.591,0.043
1.592,0.040
1.593,0.033
1.594,0.023
1.595,0.015
1.596,0.013
1.597,0.008
1.598,0.000
1.599,-0.005
1.600,-0.010
1.601,-0.013
1.602,-0.018
1.603,-0.020
1.604,-0.023
1.605,-0.028
1.606,-0.035
1.607,-0.040
1.608,-0.040
1.609,-0.040
1.610,-0.045
1.611,-0.050
1.612,-0.053
1.613,-0.058
1.614,-0.065
1.615,-0.070
1.616,-0.068
1.617,-0.063
1.618,-0.063
1.619,-0.065
1.620,-0.068
1.621,-0.073
1.622,-0.080
1.623,-0.083
1.624,-0.078
1.625,-0.070
1.626,-0.073
1.627,-0.078
1.628,-0.083
1.629,-0.083
1.630,-0.085
1.631,-0.093
1.632,-0.098
1.633,-0.098
1.634,-0.095
1.635,-0.095
1.636,-0.095
1.637,-0.093
1.638,-0.093
1.639,-0.095
1.640,-0.098
1.641,-0.095
1.642,-0.093
1.643,-0.090
1.644,-0.090
1.645,-0.085
1.646,-0.085
1.647,-0.090
1.648,-0.098
1.649,-0.098
1.650,-0.095
1.651,-0.098
1.652,-0.103
1.653,-0.103
1.654,-0.100
1.655,-0.095
1.656,-0.098
1.657,-0.098
1.658,-0.095
1.659,-0.093
1.660,-0.095
1.661,-0.098
1.662,-0.095
1.663,-0.090
1.664,-0.090
1.665,-0.090
1.666,-0.090
1.667,-0.088
1.668,-0.085
1.669,-0.085
1.670,-0.085
1.671,-0.088
1.672,-0.093
1.673,-0.095
1.674,-0.090
1.675,-0.080
1.676,-0.078
1.677,-0.083
1.678,-0.088
1.679,-0.085
1.680,-0.083
1.681,-0.083
1.682,-0.085
1.683,-0.085
1.684,-0.083
1.685,-0.078
1.686,-0.075
1.687,-0.075
1.688,-0.075
1.689,-0.075
1.690,-0.078
1.691,-0.075
1.692,-0.073
1.693,-0.068
1.694,-0.063
1.695,-0.060
1.696,-0.063
1.697,-0.070
1.698,-0.075
1.699,-0.075
1.700,-0.073
1.701,-0.073
1.702,-0.075
1.703,-0.078
1.704,-0.075
1.705,-0.073
1.706,-0.073
1.707,-0.073
1.708,-0.070
1.709,-0.065
1.710,-0.065
1.711,-0.068
1.712,-0.065
1.713,-0.063
1.714,-0.063
1.715,-0.068
1.716,-0.073
1.717,-0.070
1.718,-0.068
1.719,-0.068
1.720,-0.068
1.721,-0.068
1.722,-0.065
1.723,-0.068
1.724,-0.073
1.725,-0.075
1.726,-0.070
1.727,-0.068
1.728,-0.068
1.729,-0.073
1.730,-0.078
1.731,-0.078
1.732,-0.073
1.733,-0.068
1.734,-0.065
1.735,-0.068
1.736,-0.068
1.737,-0.068
1.738,-0.068
1.739,-0.070
1.740,-0.073
1.741,-0.073
1.742,-0.070
1.743,-0.068
1.744,-0.068
1.745,-0.073
1.746,-0.078
1.747,-0.083
1.748,-0.080
1.749,-0.075
1.750,-0.073
1.751,-0.073
1.752,-0.075
1.753,-0.075
1.754,-0.078
1.755,-0.085
1.756,-0.090
1.757,-0.093
1.758,-0.088
1.759,-0.085
1.760,-0.085
1.761,-0.085
1.762,-0.085
1.763,-0.085
1.764,-0.090
1.765,-0.098
1.766,-0.100
1.767,-0.098
1.768,-0.093
1.769,-0.093
1.770,-0.093
1.771,-0.093
1.772,-0.090
1.773,-0.090
1.774,-0.090
1.775,-0.093
1.776,-0.095
1.777,-0.098
1.778,-0.100
1.779,-0.098
1.780,-0.093
1.781,-0.090
1.782,-0.095
1.783,-0.100
1.784,-0.103
1.785,-0.100
1.786,-0.098
1.787,-0.095
1.788,-0.095
1.789,-0.098
1.790,-0.100
1.791,-0.103
1.792,-0.105
1.793,-0.105
1.794,-0.103
1.795,-0.098
1.796,-0.088
1.797,-0.078
1.798,-0.075
1.799,-0.075
1.800,-0.073
1.801,-0.065
1.802,-0.060
1.803,-0.055
1.804,-0.050
1.805,-0.043
1.806,-0.040
1.807,-0.043
1.808,-0.045
1.809,-0.043
1.810,-0.043
1.811,-0.048
1.812,-0.058
1.813,-0.060
1.814,-0.053
1.815,-0.043
1.816,-0.040
1.817,-0.040
1.818,-0.038
1.819,-0.030
1.820,-0.018
1.821,-0.003
1.822,0.013
1.823,0.023
1.824,0.023
1.825,0.018
1.826,0.018
1.827,0.023
1.828,0.030
1.829,0.035
1.830,0.040
1.831,0.045
1.832,0.045
1.833,0.043
1.834,0.040
1.835,0.038
1.836,0.038
1.837,0.040
1.838,0.043
1.839,0.048
1.840,0.050
1.841,0.053
1.842,0.053
1.843,0.053
1.844,0.048
1.845,0.040
1.846,0.035
1.847,0.035
1.848,0.035
1.849,0.033
1.850,0.028
1.851,0.020
1.852,0.015
1.853,0.010
1.854,0.005
1.855,-0.003
1.856,-0.013
1.857,-0.023
1.858,-0.033
1.859,-0.045
1.860,-0.058
1.861,-0.070
1.862,-0.075
1.863,-0.080
1.864,-0.085
1.865,-0.100
1.866,-0.110
1.867,-0.123
1.868,-0.125
1.869,-0.135
1.870,-0.135
1.871,-0.145
1.872,-0.145
1.873,-0.158
1.874,-0.158
1.875,-0.163
1.876,-0.153
1.877,-0.155
1.878,-0.150
1.879,-0.153
1.880,-0.148
1.881,-0.143
1.882,-0.140
1.883,-0.140
1.884,-0.145
1.885,-0.150
1.886,-0.155
1.887,-0.158
1.888,-0.160
1.889,-0.163
1.890,-0.165
1.891,-0.165
1.892,-0.168
1.893,-0.170
1.894,-0.173
1.895,-0.175
1.896,-0.175
1.897,-0.173
1.898,-0.170
1.899,-0.168
1.900,-0.173
1.901,-0.175
1.902,-0.175
1.903,-0.170
1.904,-0.173
1.905,-0.180
1.906,-0.183
1.907,-0.178
1.908,-0.170
1.909,-0.173
1.910,-0.180
1.911,-0.185
1.912,-0.183
1.913,-0.183
1.914,-0.188
1.915,-0.193
1.916,-0.193
1.917,-0.190
1.918,-0.188
1.919,-0.188
1.920,-0.185
1.921,-0.183
1.922,-0.183
1.923,-0.185
1.924,-0.185
1.925,-0.183
1.926,-0.180
1.927,-0.178
1.928,-0.180
1.929,-0.180
1.930,-0.183
1.931,-0.183
1.932,-0.183
1.933,-0.183
1.934,-0.180
1.935,-0.178
1.936,-0.180
1.937,-0.188
1.938,-0.195
1.939,-0.198
1.940,-0.198
1.941,-0.205
1.942,-0.223
1.943,-0.235
1.944,-0.240
1.945,-0.240
1.946,-0.243
1.947,-0.240
1.948,-0.225
1.949,-0.205
1.950,-0.188
1.951,-0.168
1.952,-0.135
1.953,-0.093
1.954,-0.053
1.955,-0.008
1.956,0.050
1.957,0.128
1.958,0.215
1.959,0.305
1.960,0.408
1.961,0.528
1.962,0.648
1.963,0.753
1.964,0.843
1.965,0.935
1.966,1.043
1.967,1.153
1.968,1.240
1.969,1.295
1.970,1.323
1.971,1.335
1.972,1.348
1.973,1.368
1.974,1.393
1.975,1.390
1.976,1.323
1.977,1.155
1.978,0.898
1.979,0.595
1.980,0.303
1.981,0.055
1.982,-0.135
1.983,-0.263
1.984,-0.330
1.985,-0.353
1.986,-0.348
1.987,-0.335
1.988,-0.323
1.989,-0.313
1.990,-0.305
1.991,-0.305
1.992,-0.308
1.993,-0.313
1.994,-0.318
1.995,-0.325
1.996,-0.325
1.997,-0.310
1.998,-0.283
1.999,-0.250
2.000,-0.220
2.001,-0.198
2.002,-0.180
2.003,-0.168
2.004,-0.155
2.005,-0.150
2.006,-0.145
2.007,-0.143
2.008,-0.133
2.009,-0.123
2.010,-0.115
2.011,-0.113
2.012,-0.113
2.013,-0.110
2.014,-0.108
2.015,-0.105
2.016,-0.105
2.017,-0.110
2.018,-0.115
2.019,-0.120
2.020,-0.120
2.021,-0.118
2.022,-0.118
2.023,-0.120
2.024,-0.120
2.025,-0.120
2.026,-0.118
2.027,-0.118
2.028,-0.113
2.029,-0.108
2.030,-0.105
2.031,-0.110
2.032,-0.110
2.033,-0.108
2.034,-0.108
2.035,-0.110
2.036,-0.110
2.037,-0.105
2.038,-0.103
2.039,-0.105
2.040,-0.108
2.041,-0.108
2.042,-0.105
2.043,-0.110
2.044,-0.110
2.045,-0.105
2.046,-0.093
2.047,-0.088
2.048,-0.088
2.049,-0.090
2.050,-0.093
2.051,-0.098
2.052,-0.098
2.053,-0.095
2.054,-0.090
2.055,-0.093
2.056,-0.095
2.057,-0.095
2.058,-0.088
2.059,-0.083
2.060,-0.085
2.061,-0.085
2.062,-0.083
2.063,-0.078
2.064,-0.078
2.065,-0.078
2.066,-0.080
2.067,-0.075
2.068,-0.075
2.069,-0.068
2.070,-0.065
2.071,-0.060
2.072,-0.065
2.073,-0.063
2.074,-0.065
2.075,-0.060
2.076,-0.065
2.077,-0.063
2.078,-0.065
2.079,-0.058
2.080,-0.060
2.081,-0.058
2.082,-0.055
2.083,-0.050
2.084,-0.050
2.085,-0.053
2.086,-0.050
2.087,-0.045
2.088,-0.038
2.089,-0.038
2.090,-0.038
2.091,-0.038
2.092,-0.035
2.093,-0.040
2.094,-0.043
2.095,-0.043
2.096,-0.038
2.097,-0.038
2.098,-0.040
2.099,-0.043
2.100,-0.035
2.101,-0.030
2.102,-0.030
2.103,-0.033
2.104,-0.030
2.105,-0.030
2.106,-0.030
2.107,-0.033
2.108,-0.025
2.109,-0.018
2.110,-0.015
2.111,-0.023
2.112,-0.023
2.113,-0.018
2.114,-0.010
2.115,-0.010
2.116,-0.013
2.117,-0.010
2.118,-0.008
2.119,-0.008
2.120,-0.008
2.121,-0.003
2.122,0.000
2.123,-0.003
2.124,-0.005
2.125,-0.003
2.126,0.005
2.127,0.008
2.128,0.005
2.129,0.005
2.130,0.010
2.131,0.013
2.132,0.013
2.133,0.015
2.134,0.018
2.135,0.018
2.136,0.015
2.137,0.018
2.138,0.025
2.139,0.030
2.140,0.030
2.141,0.033
2.142,0.040
2.143,0.043
2.144,0.040
2.145,0.038
2.146,0.038
2.147,0.040
2.148,0.043
2.149,0.050
2.150,0.055
2.151,0.055
2.152,0.053
2.153,0.055
2.154,0.060
2.155,0.060
2.156,0.055
2.157,0.055
2.158,0.065
2.159,0.073
2.160,0.068
2.161,0.060
2.162,0.058
2.163,0.063
2.164,0.068
2.165,0.070
2.166,0.075
2.167,0.080
2.168,0.080
2.169,0.078
2.170,0.080
2.171,0.083
2.172,0.083
2.173,0.078
2.174,0.078
2.175,0.083
2.176,0.088
2.177,0.090
2.178,0.093
2.179,0.090
2.180,0.088
2.181,0.088
2.182,0.093
2.183,0.100
2.184,0.100
2.185,0.100
2.186,0.108
2.187,0.115
2.188,0.110
2.189,0.100
2.190,0.098
2.191,0.108
2.192,0.113
2.193,0.105
2.194,0.098
2.195,0.100
2.196,0.110
2.197,0.113
2.198,0.108
2.199,0.105
2.200,0.105
2.201,0.103
2.202,0.095
2.203,0.090
2.204,0.088
2.205,0.088
2.206,0.085
2.207,0.083
2.208,0.080
2.209,0.073
2.210,0.065
2.211,0.060
2.212,0.055
2.213,0.048
2.214,0.038
2.215,0.035
2.216,0.035
2.217,0.033
2.218,0.025
2.219,0.020
2.220,0.020
2.221,0.020
2.222,0.013
2.223,0.005
2.224,-0.003
2.225,-0.008
2.226,-0.015
2.227,-0.020
2.228,-0.023
2.229,-0.020
2.230,-0.023
2.231,-0.028
2.232,-0.035
2.233,-0.043
2.234,-0.045
2.235,-0.045
2.236,-0.045
2.237,-0.050
2.238,-0.060
2.239,-0.063
2.240,-0.058
2.241,-0.055
2.242,-0.063
2.243,-0.068
2.244,-0.068
2.245,-0.065
2.246,-0.073
2.247,-0.085
2.248,-0.090
2.249,-0.085
2.250,-0.078
2.251,-0.075
2.252,-0.078
2.253,-0.080
2.254,-0.083
2.255,-0.083
2.256,-0.083
2.257,-0.083
2.258,-0.088
2.259,-0.093
2.260,-0.098
2.261,-0.098
2.262,-0.098
2.263,-0.095
2.264,-0.090
2.265,-0.088
2.266,-0.093
2.267,-0.100
2.268,-0.103
2.269,-0.098
2.270,-0.095
2.271,-0.093
2.272,-0.093
2.273,-0.090
2.274,-0.093
2.275,-0.098
2.276,-0.100
2.277,-0.098
2.278,-0.093
2.279,-0.090
2.280,-0.093
2.281,-0.093
2.282,-0.095
2.283,-0.095
2.284,-0.095
2.285,-0.095
2.286,-0.098
2.287,-0.095
2.288,-0.090
2.289,-0.090
2.290,-0.098
2.291,-0.103
2.292,-0.100
2.293,-0.093
2.294,-0.090
2.295,-0.093
2.296,-0.090
2.297,-0.085
2.298,-0.083
2.299,-0.085
2.300,-0.085
2.301,-0.080
2.302,-0.078
2.303,-0.078
2.304,-0.075
2.305,-0.070
2.306,-0.070
2.307,-0.075
2.308,-0.080
2.309,-0.075
2.310,-0.073
2.311,-0.075
2.312,-0.080
2.313,-0.073
2.314,-0.063
2.315,-0.060
2.316,-0.065
2.317,-0.068
2.318,-0.065
2.319,-0.060
2.320,-0.060
2.321,-0.063
2.322,-0.068
2.323,-0.073
2.324,-0.073
2.325,-0.068
2.326,-0.065
2.327,-0.065
2.328,-0.065
2.329,-0.063
2.330,-0.060
2.331,-0.063
2.332,-0.065
2.333,-0.060
2.334,-0.058
2.335,-0.060
2.336,-0.063
2.337,-0.058
2.338,-0.053
2.339,-0.053
2.340,-0.060
2.341,-0.063
2.342,-0.060
2.343,-0.060
2.344,-0.065
2.345,-0.063
2.346,-0.058
2.347,-0.058
2.348,-0.065
2.349,-0.068
2.350,-0.060
2.351,-0.050
2.352,-0.050
2.353,-0.055
2.354,-0.058
2.355,-0.053
2.356,-0.050
2.357,-0.053
2.358,-0.058
2.359,-0.063
2.360,-0.065
2.361,-0.063
2.362,-0.058
2.363,-0.058
2.364,-0.060
2.365,-0.063
2.366,-0.063
2.367,-0.063
2.368,-0.065
2.369,-0.065
2.370,-0.063
2.371,-0.060
2.372,-0.060
2.373,-0.060
2.374,-0.060
2.375,-0.063
2.376,-0.070
2.377,-0.075
2.378,-0.073
2.379,-0.068
2.380,-0.065
2.381,-0.065
2.382,-0.065
2.383,-0.063
2.384,-0.065
2.385,-0.068
2.386,-0.065
2.387,-0.060
2.388,-0.063
2.389,-0.073
2.390,-0.080
2.391,-0.083
2.392,-0.080
2.393,-0.080
2.394,-0.083
2.395,-0.080
2.396,-0.075
2.397,-0.073
2.398,-0.078
2.399,-0.085
2.400,-0.088
2.401,-0.088
2.402,-0.085
2.403,-0.085
2.404,-0.083
2.405,-0.080
2.406,-0.080
2.407,-0.085
2.408,-0.090
2.409,-0.093
2.410,-0.093
2.411,-0.095
2.412,-0.095
2.413,-0.093
2.414,-0.090
2.415,-0.090
2.416,-0.090
2.417,-0.090
2.418,-0.090
2.419,-0.090
2.420,-0.088
2.421,-0.085
2.422,-0.085
2.423,-0.090
2.424,-0.093
2.425,-0.093
2.426,-0.093
2.427,-0.098
2.428,-0.103
2.429,-0.103
2.430,-0.098
2.431,-0.095
2.432,-0.100
2.433,-0.108
2.434,-0.105
2.435,-0.098
2.436,-0.095
2.437,-0.098
2.438,-0.100
2.439,-0.100
2.440,-0.098
2.441,-0.095
2.442,-0.095
2.443,-0.100
2.444,-0.108
2.445,-0.113
2.446,-0.110
2.447,-0.105
2.448,-0.103
2.449,-0.105
2.450,-0.105
2.451,-0.105
2.452,-0.105
2.453,-0.105
2.454,-0.103
2.455,-0.100
2.456,-0.103
2.457,-0.108
2.458,-0.108
2.459,-0.103
2.460,-0.100
2.461,-0.105
2.462,-0.110
2.463,-0.110
2.464,-0.108
2.465,-0.108
2.466,-0.110
2.467,-0.113
2.468,-0.113
2.469,-0.113
2.470,-0.110
2.471,-0.105
2.472,-0.100
2.473,-0.100
2.474,-0.105
2.475,-0.108
2.476,-0.105
2.477,-0.103
2.478,-0.100
2.479,-0.095
2.480,-0.088
2.481,-0.080
2.482,-0.075
2.483,-0.065
2.484,-0.055
2.485,-0.048
2.486,-0.045
2.487,-0.045
2.488,-0.043
2.489,-0.040
2.490,-0.043
2.491,-0.048
2.492,-0.053
2.493,-0.050
2.494,-0.045
2.495,-0.040
2.496,-0.040
2.497,-0.038
2.498,-0.038
2.499,-0.038
2.500,-0.040
2.501,-0.035
2.502,-0.025
2.503,-0.010
2.504,0.000
2.505,0.010
2.506,0.020
2.507,0.028
2.508,0.025
2.509,0.023
2.510,0.025
2.511,0.035
2.512,0.043
2.513,0.038
2.514,0.030
2.515,0.028
2.516,0.033
2.517,0.038
2.518,0.043
2.519,0.045
2.520,0.045
2.521,0.043
2.522,0.038
2.523,0.040
2.524,0.045
2.525,0.050
2.526,0.045
2.527,0.038
2.528,0.033
2.529,0.035
2.530,0.040
2.531,0.040
2.532,0.033
2.533,0.018
2.534,0.008
2.535,0.003
2.536,0.003
2.537,-0.003
2.538,-0.010
2.539,-0.020
2.540,-0.028
2.541,-0.043
2.542,-0.055
2.543,-0.065
2.544,-0.063
2.545,-0.063
2.546,-0.060
2.547,-0.075
2.548,-0.088
2.549,-0.105
2.550,-0.105
2.551,-0.110
2.552,-0.113
2.553,-0.128
2.554,-0.130
2.555,-0.135
2.556,-0.128
2.557,-0.133
2.558,-0.130
2.559,-0.125
2.560,-0.115
2.561,-0.115
2.562,-0.120
2.563,-0.123
2.564,-0.123
2.565,-0.123
2.566,-0.128
2.567,-0.133
2.568,-0.133
2.569,-0.130
2.570,-0.135
2.571,-0.143
2.572,-0.148
2.573,-0.143
2.574,-0.135
2.575,-0.135
2.576,-0.138
2.577,-0.138
2.578,-0.135
2.579,-0.133
2.580,-0.133
2.581,-0.133
2.582,-0.130
2.583,-0.130
2.584,-0.135
2.585,-0.143
2.586,-0.148
2.587,-0.148
2.588,-0.148
2.589,-0.145
2.590,-0.143
2.591,-0.140
2.592,-0.143
2.593,-0.145
2.594,-0.148
2.595,-0.145
2.596,-0.140
2.597,-0.140
2.598,-0.143
2.599,-0.148
2.600,-0.153
2.601,-0.155
2.602,-0.150
2.603,-0.143
2.604,-0.143
2.605,-0.150
2.606,-0.155
2.607,-0.150
2.608,-0.140
2.609,-0.138
2.610,-0.145
2.611,-0.150
2.612,-0.148
2.613,-0.140
2.614,-0.140
2.615,-0.145
2.616,-0.150
2.617,-0.150
2.618,-0.150
2.619,-0.158
2.620,-0.173
2.621,-0.188
2.622,-0.198
2.623,-0.205
2.624,-0.210
2.625,-0.213
2.626,-0.208
2.627,-0.195
2.628,-0.180
2.629,-0.160
2.630,-0.138
2.631,-0.108
2.632,-0.070
2.633,-0.033
2.634,0.005
2.635,0.053
2.636,0.118
2.637,0.195
2.638,0.280
2.639,0.373
2.640,0.475
2.641,0.588
2.642,0.695
2.643,0.790
2.644,0.880
2.645,0.983
2.646,1.095
2.647,1.200
2.648,1.278
2.649,1.318
2.650,1.333
2.651,1.340
2.652,1.355
2.653,1.380
2.654,1.398
2.655,1.365
2.656,1.243
2.657,1.023
2.658,0.743
2.659,0.455
2.660,0.200
2.661,-0.005
2.662,-0.155
2.663,-0.243
2.664,-0.270
2.665,-0.268
2.666,-0.258
2.667,-0.255
2.668,-0.248
2.669,-0.240
2.670,-0.238
2.671,-0.248
2.672,-0.260
2.673,-0.268
2.674,-0.273
2.675,-0.280
2.676,-0.280
2.677,-0.268
2.678,-0.243
2.679,-0.215
2.680,-0.188
2.681,-0.168
2.682,-0.148
2.683,-0.133
2.684,-0.120
2.685,-0.115
2.686,-0.113
2.687,-0.110
2.688,-0.100
2.689,-0.088
2.690,-0.080
2.691,-0.083
2.692,-0.085
2.693,-0.085
2.694,-0.080
2.695,-0.080
2.696,-0.083
2.697,-0.085
2.698,-0.088
2.699,-0.093
2.700,-0.093
2.701,-0.088
2.702,-0.080
2.703,-0.080
2.704,-0.085
2.705,-0.088
2.706,-0.083
2.707,-0.078
2.708,-0.078
2.709,-0.080
2.710,-0.078
2.711,-0.073
2.712,-0.068
2.713,-0.068
2.714,-0.070
2.715,-0.073
2.716,-0.075
2.717,-0.078
2.718,-0.075
2.719,-0.073
2.720,-0.065
2.721,-0.063
2.722,-0.063
2.723,-0.068
2.724,-0.068
2.725,-0.063
2.726,-0.053
2.727,-0.050
2.728,-0.053
2.729,-0.058
2.730,-0.058
2.731,-0.060
2.732,-0.063
2.733,-0.063
2.734,-0.055
2.735,-0.050
2.736,-0.048
2.737,-0.048
2.738,-0.045
2.739,-0.045
2.740,-0.048
2.741,-0.048
2.742,-0.045
2.743,-0.038
2.744,-0.035
2.745,-0.033
2.746,-0.038
2.747,-0.035
2.748,-0.040
2.749,-0.038
2.750,-0.038
2.751,-0.030
2.752,-0.030
2.753,-0.025
2.754,-0.028
2.755,-0.020
2.756,-0.020
2.757,-0.018
2.758,-0.025
2.759,-0.020
2.760,-0.020
2.761,-0.018
2.762,-0.020
2.763,-0.023
2.764,-0.023
2.765,-0.020
2.766,-0.015
2.767,-0.018
2.768,-0.018
2.769,-0.018
2.770,-0.013
2.771,-0.010
2.772,-0.010
2.773,-0.010
2.774,-0.008
2.775,-0.005
2.776,0.000
2.777,0.000
2.778,0.000
2.779,-0.005
2.780,-0.005
2.781,-0.005
2.782,0.000
2.783,0.005
2.784,0.010
2.785,0.010
2.786,0.010
2.787,0.008
2.788,0.010
2.789,0.013
2.790,0.018
2.791,0.018
2.792,0.018
2.793,0.018
2.794,0.018
2.795,0.015
2.796,0.015
2.797,0.018
2.798,0.023
2.799,0.025
2.800,0.025
2.801,0.023
2.802,0.025
2.803,0.028
2.804,0.028
2.805,0.030
2.806,0.038
2.807,0.045
2.808,0.048
2.809,0.045
2.810,0.043
2.811,0.040
2.812,0.040
2.813,0.040
2.814,0.045
2.815,0.053
2.816,0.055
2.817,0.053
2.818,0.055
2.819,0.060
2.820,0.063
2.821,0.063
2.822,0.063
2.823,0.068
2.824,0.070
2.825,0.068
2.826,0.068
2.827,0.073
2.828,0.075
2.829,0.070
2.830,0.065
2.831,0.068
2.832,0.080
2.833,0.090
2.834,0.090
2.835,0.088
2.836,0.088
2.837,0.090
2.838,0.088
2.839,0.085
2.840,0.085
2.841,0.088
2.842,0.093
2.843,0.095
2.844,0.095
2.845,0.095
2.846,0.100
2.847,0.105
2.848,0.108
2.849,0.105
2.850,0.103
2.851,0.105
2.852,0.113
2.853,0.115
2.854,0.115
2.855,0.118
2.856,0.123
2.857,0.123
2.858,0.115
2.859,0.113
2.860,0.118
2.861,0.125
2.862,0.125
2.863,0.120
2.864,0.123
2.865,0.133
2.866,0.138
2.867,0.135
2.868,0.133
2.869,0.133
2.870,0.138
2.871,0.140
2.872,0.140
2.873,0.140
2.874,0.140
2.875,0.143
2.876,0.148
2.877,0.150
2.878,0.145
2.879,0.138
2.880,0.133
2.881,0.135
2.882,0.140
2.883,0.140
2.884,0.135
2.885,0.133
2.886,0.138
2.887,0.143
2.888,0.138
2.889,0.123
2.890,0.110
2.891,0.108
2.892,0.110
2.893,0.110
2.894,0.103
2.895,0.098
2.896,0.095
2.897,0.093
2.898,0.088
2.899,0.080
2.900,0.078
2.901,0.078
2.902,0.073
2.903,0.065
2.904,0.058
2.905,0.053
2.906,0.050
2.907,0.045
2.908,0.040
2.909,0.033
2.910,0.025
2.911,0.023
2.912,0.023
2.913,0.020
2.914,0.015
2.915,0.010
2.916,0.008
2.917,0.008
2.918,0.000
2.919,-0.008
2.920,-0.008
2.921,-0.005
2.922,-0.008
2.923,-0.018
2.924,-0.025
2.925,-0.023
2.926,-0.018
2.927,-0.018
2.928,-0.023
2.929,-0.028
2.930,-0.033
2.931,-0.035
2.932,-0.035
2.933,-0.033
2.934,-0.033
2.935,-0.033
2.936,-0.035
2.937,-0.035
2.938,-0.035
2.939,-0.040
2.940,-0.050
2.941,-0.053
2.942,-0.050
2.943,-0.045
2.944,-0.043
2.945,-0.043
2.946,-0.043
2.947,-0.045
2.948,-0.053
2.949,-0.055
2.950,-0.053
2.951,-0.048
2.952,-0.045
2.953,-0.045
2.954,-0.048
2.955,-0.048
2.956,-0.048
2.957,-0.050
2.958,-0.055
2.959,-0.055
2.960,-0.053
2.961,-0.045
2.962,-0.043
2.963,-0.043
2.964,-0.045
2.965,-0.043
2.966,-0.043
2.967,-0.048
2.968,-0.053
2.969,-0.053
2.970,-0.045
2.971,-0.038
2.972,-0.035
2.973,-0.038
2.974,-0.040
2.975,-0.043
2.976,-0.043
2.977,-0.043
2.978,-0.043
2.979,-0.043
2.980,-0.045
2.981,-0.043
2.982,-0.038
2.983,-0.033
2.984,-0.033
2.985,-0.033
2.986,-0.035
2.987,-0.033
2.988,-0.033
2.989,-0.030
2.990,-0.030
2.991,-0.025
2.992,-0.020
2.993,-0.018
2.994,-0.023
2.995,-0.030
2.996,-0.035
2.997,-0.033
2.998,-0.030
2.999,-0.025
3.000,-0.023
3.001,-0.015
3.002,-0.013
3.003,-0.015
3.004,-0.020
3.005,-0.023
3.006,-0.020
3.007,-0.015
3.008,-0.018
3.009,-0.023
3.010,-0.028
3.011,-0.028
3.012,-0.023
3.013,-0.018
3.014,-0.018
3.015,-0.018
3.016,-0.020
3.017,-0.020
3.018,-0.020
3.019,-0.020
3.020,-0.018
3.021,-0.015
3.022,-0.013
3.023,-0.010
3.024,-0.013
3.025,-0.018
3.026,-0.023
3.027,-0.028
3.028,-0.028
3.029,-0.025
3.030,-0.023
3.031,-0.020
3.032,-0.018
3.033,-0.015
3.034,-0.015
3.035,-0.013
3.036,-0.013
3.037,-0.013
3.038,-0.013
3.039,-0.010
3.040,-0.008
3.041,-0.008
3.042,-0.010
3.043,-0.013
3.044,-0.013
3.045,-0.013
3.046,-0.018
3.047,-0.028
3.048,-0.030
3.049,-0.025
3.050,-0.020
3.051,-0.018
3.052,-0.018
3.053,-0.013
3.054,-0.008
3.055,-0.008
3.056,-0.015
3.057,-0.023
3.058,-0.023
3.059,-0.020
3.060,-0.018
3.061,-0.020
3.062,-0.025
3.063,-0.025
3.064,-0.020
3.065,-0.018
3.066,-0.023
3.067,-0.033
3.068,-0.035
3.069,-0.030
3.070,-0.025
3.071,-0.030
3.072,-0.035
3.073,-0.035
3.074,-0.033
3.075,-0.035
3.076,-0.040
3.077,-0.040
3.078,-0.035
3.079,-0.033
3.080,-0.033
3.081,-0.033
3.082,-0.035
3.083,-0.040
3.084,-0.045
3.085,-0.048
3.086,-0.045
3.087,-0.045
3.088,-0.043
3.089,-0.040
3.090,-0.038
3.091,-0.040
3.092,-0.045
3.093,-0.048
3.094,-0.045
3.095,-0.045
3.096,-0.048
3.097,-0.050
3.098,-0.053
3.099,-0.055
3.100,-0.058
3.101,-0.058
3.102,-0.055
3.103,-0.053
3.104,-0.053
3.105,-0.053
3.106,-0.050
3.107,-0.048
3.108,-0.050
3.109,-0.055
3.110,-0.058
3.111,-0.055
3.112,-0.053
3.113,-0.058
3.114,-0.063
3.115,-0.065
3.116,-0.063
3.117,-0.058
3.118,-0.055
3.119,-0.053
3.120,-0.055
3.121,-0.060
3.122,-0.065
3.123,-0.068
3.124,-0.065
3.125,-0.063
3.126,-0.063
3.127,-0.063
3.128,-0.063
3.129,-0.063
3.130,-0.065
3.131,-0.068
3.132,-0.065
3.133,-0.060
3.134,-0.060
3.135,-0.063
3.136,-0.068
3.137,-0.068
3.138,-0.068
3.139,-0.068
3.140,-0.068
3.141,-0.065
3.142,-0.065
3.143,-0.068
3.144,-0.068
3.145,-0.068
3.146,-0.070
3.147,-0.075
3.148,-0.078
3.149,-0.073
3.150,-0.063
3.151,-0.055
3.152,-0.053
3.153,-0.048
3.154,-0.040
3.155,-0.033
3.156,-0.025
3.157,-0.020
3.158,-0.015
3.159,-0.013
3.160,-0.008
3.161,0.000
3.162,0.003
3.163,0.003
3.164,-0.003
3.165,-0.005
3.166,-0.008
3.167,-0.008
3.168,-0.005
3.169,0.000
3.170,0.005
3.171,0.005
3.172,0.000
3.173,0.003
3.174,0.010
3.175,0.023
3.176,0.030
3.177,0.038
3.178,0.048
3.179,0.060
3.180,0.068
3.181,0.065
3.182,0.055
3.183,0.055
3.184,0.065
3.185,0.080
3.186,0.088
3.187,0.085
3.188,0.083
3.189,0.083
3.190,0.078
3.191,0.073
3.192,0.070
3.193,0.078
3.194,0.088
3.195,0.088
3.196,0.083
3.197,0.083
3.198,0.088
3.199,0.090
3.200,0.085
3.201,0.078
3.202,0.078
3.203,0.080
3.204,0.080
3.205,0.073
3.206,0.063
3.207,0.053
3.208,0.043
3.209,0.033
3.210,0.025
3.211,0.018
3.212,0.013
3.213,0.003
3.214,-0.008
3.215,-0.020
3.216,-0.023
3.217,-0.030
3.218,-0.035
3.219,-0.048
3.220,-0.050
3.221,-0.063
3.222,-0.068
3.223,-0.080
3.224,-0.078
3.225,-0.085
3.226,-0.088
3.227,-0.103
3.228,-0.100
3.229,-0.100
3.230,-0.090
3.231,-0.090
3.232,-0.088
3.233,-0.088
3.234,-0.085
3.235,-0.085
3.236,-0.085
3.237,-0.083
3.238,-0.085
3.239,-0.093
3.240,-0.103
3.241,-0.103
3.242,-0.098
3.243,-0.095
3.244,-0.098
3.245,-0.103
3.246,-0.105
3.247,-0.108
3.248,-0.108
3.249,-0.108
3.250,-0.108
3.251,-0.108
3.252,-0.108
3.253,-0.100
3.254,-0.098
3.255,-0.103
3.256,-0.115
3.257,-0.120
3.258,-0.115
3.259,-0.110
3.260,-0.113
3.261,-0.118
3.262,-0.118
3.263,-0.115
3.264,-0.118
3.265,-0.120
3.266,-0.118
3.267,-0.113
3.268,-0.110
3.269,-0.115
3.270,-0.125
3.271,-0.128
3.272,-0.125
3.273,-0.120
3.274,-0.118
3.275,-0.120
3.276,-0.125
3.277,-0.128
3.278,-0.128
3.279,-0.128
3.280,-0.128
3.281,-0.125
3.282,-0.120
3.283,-0.118
3.284,-0.120
3.285,-0.123
3.286,-0.123
3.287,-0.120
3.288,-0.123
3.289,-0.125
3.290,-0.128
3.291,-0.125
3.292,-0.125
3.293,-0.138
3.294,-0.158
3.295,-0.175
3.296,-0.183
3.297,-0.183
3.298,-0.185
3.299,-0.185
3.300,-0.180
3.301,-0.165
3.302,-0.143
3.303,-0.110
3.304,-0.075
3.305,-0.043
3.306,-0.013
3.307,0.020
3.308,0.070
3.309,0.138
3.310,0.213
3.311,0.290
3.312,0.375
3.313,0.475
3.314,0.583
3.315,0.690
3.316,0.790
3.317,0.890
3.318,0.995
3.319,1.105
3.320,1.205
3.321,1.283
3.322,1.328
3.323,1.348
3.324,1.358
3.325,1.375
3.326,1.405
3.327,1.420
3.328,1.383
3.329,1.258
3.330,1.045
3.331,0.775
3.332,0.493
3.333,0.228
3.334,0.010
3.335,-0.145
3.336,-0.225
3.337,-0.248
3.338,-0.240
3.339,-0.230
3.340,-0.223
3.341,-0.220
3.342,-0.223
3.343,-0.235
3.344,-0.245
3.345,-0.245
3.346,-0.235
3.347,-0.233
3.348,-0.243
3.349,-0.253
3.350,-0.245
3.351,-0.225
3.352,-0.195
3.353,-0.165
3.354,-0.138
3.355,-0.120
3.356,-0.110
3.357,-0.103
3.358,-0.093
3.359,-0.083
3.360,-0.075
3.361,-0.073
3.362,-0.065
3.363,-0.058
3.364,-0.055
3.365,-0.060
3.366,-0.063
3.367,-0.058
3.368,-0.050
3.369,-0.048
3.370,-0.048
3.371,-0.050
3.372,-0.053
3.373,-0.058
3.374,-0.060
3.375,-0.063
3.376,-0.060
3.377,-0.058
3.378,-0.055
3.379,-0.050
3.380,-0.045
3.381,-0.043
3.382,-0.043
3.383,-0.048
3.384,-0.048
3.385,-0.045
3.386,-0.043
3.387,-0.043
3.388,-0.045
3.389,-0.050
3.390,-0.050
3.391,-0.050
3.392,-0.048
3.393,-0.043
3.394,-0.035
3.395,-0.033
3.396,-0.033
3.397,-0.035
3.398,-0.033
3.399,-0.030
3.400,-0.028
3.401,-0.030
3.402,-0.030
3.403,-0.030
3.404,-0.028
3.405,-0.028
3.406,-0.028
3.407,-0.028
3.408,-0.028
3.409,-0.025
3.410,-0.025
3.411,-0.025
3.412,-0.025
3.413,-0.018
3.414,-0.008
3.415,-0.003
3.416,-0.010
3.417,-0.013
3.418,-0.013
3.419,-0.003
3.420,-0.005
3.421,-0.008
3.422,-0.013
3.423,-0.005
3.424,-0.003
3.425,0.003
3.426,-0.003
3.427,0.005
3.428,0.005
3.429,0.010
3.430,0.003
3.431,0.008
3.432,0.005
3.433,0.008
3.434,0.008
3.435,0.010
3.436,0.015
3.437,0.015
3.438,0.015
3.439,0.013
3.440,0.015
3.441,0.015
3.442,0.015
3.443,0.015
3.444,0.018
3.445,0.018
3.446,0.018
3.447,0.018
3.448,0.020
3.449,0.023
3.450,0.025
3.451,0.025
3.452,0.025
3.453,0.023
3.454,0.025
3.455,0.025
3.456,0.028
3.457,0.030
3.458,0.038
3.459,0.040
3.460,0.040
3.461,0.035
3.462,0.038
3.463,0.043
3.464,0.050
3.465,0.050
3.466,0.048
3.467,0.045
3.468,0.045
3.469,0.045
3.470,0.045
3.471,0.048
3.472,0.055
3.473,0.058
3.474,0.058
3.475,0.055
3.476,0.058
3.477,0.063
3.478,0.065
3.479,0.065
3.480,0.063
3.481,0.060
3.482,0.060
3.483,0.063
3.484,0.065
3.485,0.070
3.486,0.073
3.487,0.073
3.488,0.075
3.489,0.078
3.490,0.083
3.491,0.085
3.492,0.085
3.493,0.083
3.494,0.083
3.495,0.085
3.496,0.090
3.497,0.090
3.498,0.090
3.499,0.093
3.500,0.095
3.501,0.098
3.502,0.100
3.503,0.100
3.504,0.100
3.505,0.100
3.506,0.100
3.507,0.103
3.508,0.103
3.509,0.103
3.510,0.103
3.511,0.103
3.512,0.105
3.513,0.108
3.514,0.113
3.515,0.115
3.516,0.115
3.517,0.113
3.518,0.110
3.519,0.113
3.520,0.118
3.521,0.120
3.522,0.120
3.523,0.120
3.524,0.123
3.525,0.123
3.526,0.125
3.527,0.130
3.528,0.135
3.529,0.135
3.530,0.133
3.531,0.133
3.532,0.135
3.533,0.135
3.534,0.130
3.535,0.128
3.536,0.130
3.537,0.135
3.538,0.143
3.539,0.150
3.540,0.153
3.541,0.150
3.542,0.145
3.543,0.143
3.544,0.145
3.545,0.150
3.546,0.150
3.547,0.153
3.548,0.155
3.549,0.155
3.550,0.150
3.551,0.143
3.552,0.143
3.553,0.148
3.554,0.148
3.555,0.145
3.556,0.145
3.557,0.148
3.558,0.148
3.559,0.143
3.560,0.135
3.561,0.130
3.562,0.123
3.563,0.118
3.564,0.113
3.565,0.113
3.566,0.113
3.567,0.110
3.568,0.105
3.569,0.103
3.570,0.100
3.571,0.098
3.572,0.095
3.573,0.090
3.574,0.083
3.575,0.075
3.576,0.068
3.577,0.065
3.578,0.065
3.579,0.060
3.580,0.053
3.581,0.045
3.582,0.043
3.583,0.040
3.584,0.033
3.585,0.025
3.586,0.020
3.587,0.020
3.588,0.023
3.589,0.020
3.590,0.010
3.591,0.003
3.592,0.003
3.593,0.005
3.594,0.003
3.595,-0.003
3.596,-0.008
3.597,-0.010
3.598,-0.013
3.599,-0.018
3.600,-0.020
3.601,-0.018
3.602,-0.018
3.603,-0.020
3.604,-0.023
3.605,-0.025
3.606,-0.030
3.607,-0.035
3.608,-0.038
3.609,-0.035
3.610,-0.033
3.611,-0.035
3.612,-0.040
3.613,-0.043
3.614,-0.043
3.615,-0.040
3.616,-0.040
3.617,-0.040
3.618,-0.043
3.619,-0.045
3.620,-0.050
3.621,-0.050
3.622,-0.048
3.623,-0.045
3.624,-0.048
3.625,-0.048
3.626,-0.048
3.627,-0.048
3.628,-0.050
3.629,-0.053
3.630,-0.053
3.631,-0.050
3.632,-0.050
3.633,-0.048
3.634,-0.043
3.635,-0.035
3.636,-0.035
3.637,-0.038
3.638,-0.043
3.639,-0.043
3.640,-0.045
3.641,-0.048
3.642,-0.050
3.643,-0.048
3.644,-0.043
3.645,-0.035
3.646,-0.035
3.647,-0.038
3.648,-0.038
3.649,-0.035
3.650,-0.033
3.651,-0.035
3.652,-0.040
3.653,-0.038
3.654,-0.030
3.655,-0.025
3.656,-0.028
3.657,-0.033
3.658,-0.035
3.659,-0.030
3.660,-0.030
3.661,-0.033
3.662,-0.033
3.663,-0.028
3.664,-0.025
3.665,-0.025
3.666,-0.028
3.667,-0.023
3.668,-0.020
3.669,-0.023
3.670,-0.028
3.671,-0.025
3.672,-0.018
3.673,-0.010
3.674,-0.013
3.675,-0.015
3.676,-0.013
3.677,-0.010
3.678,-0.015
3.679,-0.020
3.680,-0.020
3.681,-0.015
3.682,-0.015
3.683,-0.018
3.684,-0.018
3.685,-0.015
3.686,-0.015
3.687,-0.015
3.688,-0.013
3.689,-0.005
3.690,-0.003
3.691,-0.005
3.692,-0.010
3.693,-0.010
3.694,-0.008
3.695,-0.008
3.696,-0.010
3.697,-0.008
3.698,-0.003
3.699,-0.003
3.700,-0.005
3.701,-0.005
3.702,-0.003
3.703,0.000
3.704,-0.003
3.705,-0.008
3.706,-0.008
3.707,-0.005
3.708,-0.005
3.709,-0.008
3.710,-0.008
3.711,-0.005
3.712,-0.003
3.713,-0.003
3.714,-0.005
3.715,-0.010
3.716,-0.010
3.717,-0.010
3.718,-0.013
3.719,-0.018
3.720,-0.020
3.721,-0.015
3.722,-0.010
3.723,-0.010
3.724,-0.013
3.725,-0.013
3.726,-0.013
3.727,-0.015
3.728,-0.020
3.729,-0.020
3.730,-0.015
3.731,-0.015
3.732,-0.020
3.733,-0.028
3.734,-0.030
3.735,-0.030
3.736,-0.028
3.737,-0.025
3.738,-0.025
3.739,-0.028
3.740,-0.030
3.741,-0.028
3.742,-0.023
3.743,-0.025
3.744,-0.033
3.745,-0.033
3.746,-0.028
3.747,-0.028
3.748,-0.038
3.749,-0.045
3.750,-0.038
3.751,-0.023
3.752,-0.020
3.753,-0.030
3.754,-0.040
3.755,-0.038
3.756,-0.033
3.757,-0.033
3.758,-0.040
3.759,-0.045
3.760,-0.043
3.761,-0.040
3.762,-0.045
3.763,-0.053
3.764,-0.055
3.765,-0.050
3.766,-0.045
3.767,-0.045
3.768,-0.050
3.769,-0.053
3.770,-0.050
3.771,-0.048
3.772,-0.050
3.773,-0.055
3.774,-0.058
3.775,-0.058
3.776,-0.058
3.777,-0.060
3.778,-0.058
3.779,-0.055
3.780,-0.053
3.781,-0.055
3.782,-0.055
3.783,-0.055
3.784,-0.055
3.785,-0.055
3.786,-0.055
3.787,-0.053
3.788,-0.053
3.789,-0.055
3.790,-0.058
3.791,-0.058
3.792,-0.058
3.793,-0.063
3.794,-0.065
3.795,-0.063
3.796,-0.060
3.797,-0.063
3.798,-0.065
3.799,-0.068
3.800,-0.068
3.801,-0.073
3.802,-0.075
3.803,-0.070
3.804,-0.063
3.805,-0.060
3.806,-0.068
3.807,-0.070
3.808,-0.065
3.809,-0.058
3.810,-0.058
3.811,-0.063
3.812,-0.068
3.813,-0.068
3.814,-0.065
3.815,-0.065
3.816,-0.068
3.817,-0.075
3.818,-0.085
3.819,-0.085
3.820,-0.073
3.821,-0.060
3.822,-0.060
3.823,-0.073
3.824,-0.080
3.825,-0.078
3.826,-0.073
3.827,-0.068
3.828,-0.068
3.829,-0.068
3.830,-0.073
3.831,-0.078
3.832,-0.078
3.833,-0.078
3.834,-0.080
3.835,-0.080
3.836,-0.075
3.837,-0.065
3.838,-0.063
3.839,-0.070
3.840,-0.075
3.841,-0.070
3.842,-0.065
3.843,-0.065
3.844,-0.068
3.845,-0.068
3.846,-0.065
3.847,-0.060
3.848,-0.055
3.849,-0.048
3.850,-0.038
3.851,-0.028
3.852,-0.023
3.853,-0.020
3.854,-0.018
3.855,-0.013
3.856,-0.005
3.857,-0.003
3.858,-0.005
3.859,-0.010
3.860,-0.010
3.861,-0.008
3.862,-0.008
3.863,-0.013
3.864,-0.013
3.865,-0.010
3.866,-0.008
3.867,-0.008
3.868,-0.005
3.869,0.010
3.870,0.028
3.871,0.043
3.872,0.055
3.873,0.065
3.874,0.065
3.875,0.058
3.876,0.055
3.877,0.065
3.878,0.080
3.879,0.088
3.880,0.080
3.881,0.070
3.882,0.065
3.883,0.065
3.884,0.065
3.885,0.070
3.886,0.078
3.887,0.085
3.888,0.088
3.889,0.090
3.890,0.088
3.891,0.083
3.892,0.080
3.893,0.083
3.894,0.085
3.895,0.083
3.896,0.078
3.897,0.075
3.898,0.075
3.899,0.068
3.900,0.053
3.901,0.038
3.902,0.033
3.903,0.033
3.904,0.035
3.905,0.030
3.906,0.025
3.907,0.013
3.908,0.003
3.909,-0.010
3.910,-0.010
3.911,-0.018
3.912,-0.025
3.913,-0.043
3.914,-0.053
3.915,-0.068
3.916,-0.073
3.917,-0.083
3.918,-0.078
3.919,-0.085
3.920,-0.088
3.921,-0.100
3.922,-0.095
3.923,-0.095
3.924,-0.090
3.925,-0.095
3.926,-0.093
3.927,-0.090
3.928,-0.088
3.929,-0.085
3.930,-0.090
3.931,-0.095
3.932,-0.100
3.933,-0.100
3.934,-0.098
3.935,-0.100
3.936,-0.108
3.937,-0.110
3.938,-0.108
3.939,-0.103
3.940,-0.105
3.941,-0.110
3.942,-0.110
3.943,-0.108
3.944,-0.108
3.945,-0.108
3.946,-0.108
3.947,-0.105
3.948,-0.110
3.949,-0.118
3.950,-0.123
3.951,-0.120
3.952,-0.118
3.953,-0.120
3.954,-0.123
3.955,-0.120
3.956,-0.120
3.957,-0.123
3.958,-0.125
3.959,-0.125
3.960,-0.123
3.961,-0.118
3.962,-0.115
3.963,-0.113
3.964,-0.118
3.965,-0.125
3.966,-0.130
3.967,-0.128
3.968,-0.125
3.969,-0.128
3.970,-0.130
3.971,-0.130
3.972,-0.130
3.973,-0.130
3.974,-0.128
3.975,-0.123
3.976,-0.120
3.977,-0.123
3.978,-0.128
3.979,-0.130
3.980,-0.130
3.981,-0.130
3.982,-0.130
3.983,-0.125
3.984,-0.120
3.985,-0.128
3.986,-0.145
3.987,-0.160
3.988,-0.168
3.989,-0.173
3.990,-0.180
3.991,-0.188
3.992,-0.188
3.993,-0.178
3.994,-0.165
3.995,-0.148
3.996,-0.123
3.997,-0.090
3.998,-0.058
3.999,-0.023
4.000,0.015
4.001,0.060
4.002,0.115
4.003,0.188
4.004,0.275
4.005,0.368
4.006,0.465
4.007,0.568
4.008,0.668
4.009,0.760
4.010,0.848
4.011,0.950
4.012,1.068
4.013,1.180
4.014,1.263
4.015,1.315
4.016,1.348
4.017,1.368
4.018,1.380
4.019,1.395
4.020,1.423
4.021,1.428
4.022,1.350
4.023,1.163
4.024,0.903
4.025,0.625
4.026,0.363
4.027,0.125
4.028,-0.073
4.029,-0.198
4.030,-0.248
4.031,-0.250
4.032,-0.243
4.033,-0.238
4.034,-0.230
4.035,-0.225
4.036,-0.228
4.037,-0.238
4.038,-0.245
4.039,-0.248
4.040,-0.248
4.041,-0.255
4.042,-0.260
4.043,-0.260
4.044,-0.245
4.045,-0.220
4.046,-0.190
4.047,-0.160
4.048,-0.138
4.049,-0.123
4.050,-0.110
4.051,-0.100
4.052,-0.090
4.053,-0.088
4.054,-0.085
4.055,-0.080
4.056,-0.070
4.057,-0.060
4.058,-0.055
4.059,-0.055
4.060,-0.058
4.061,-0.058
4.062,-0.055
4.063,-0.058
4.064,-0.063
4.065,-0.068
4.066,-0.068
4.067,-0.063
4.068,-0.060
4.069,-0.060
4.070,-0.058
4.071,-0.053
4.072,-0.045
4.073,-0.045
4.074,-0.048
4.075,-0.048
4.076,-0.045
4.077,-0.045
4.078,-0.048
4.079,-0.048
4.080,-0.043
4.081,-0.043
4.082,-0.048
4.083,-0.055
4.084,-0.053
4.085,-0.048
4.086,-0.043
4.087,-0.045
4.088,-0.048
4.089,-0.048
4.090,-0.043
4.091,-0.043
4.092,-0.045
4.093,-0.045
4.094,-0.038
4.095,-0.035
4.096,-0.033
4.097,-0.035
4.098,-0.033
4.099,-0.035
4.100,-0.038
4.101,-0.043
4.102,-0.040
4.103,-0.035
4.104,-0.028
4.105,-0.025
4.106,-0.023
4.107,-0.020
4.108,-0.018
4.109,-0.015
4.110,-0.018
4.111,-0.018
4.112,-0.020
4.113,-0.015
4.114,-0.018
4.115,-0.015
4.116,-0.020
4.117,-0.015
4.118,-0.015
4.119,-0.013
4.120,-0.023
4.121,-0.020
4.122,-0.018
4.123,-0.005
4.124,-0.005
4.125,0.000
4.126,-0.003
4.127,0.003
4.128,0.003
4.129,0.000
4.130,0.000
4.131,-0.003
4.132,-0.005
4.133,-0.010
4.134,-0.005
4.135,0.003
4.136,0.010
4.137,0.008
4.138,0.005
4.139,0.003
4.140,0.008
4.141,0.008
4.142,0.008
4.143,0.005
4.144,0.010
4.145,0.013
4.146,0.015
4.147,0.015
4.148,0.018
4.149,0.015
4.150,0.015
4.151,0.013
4.152,0.018
4.153,0.023
4.154,0.028
4.155,0.025
4.156,0.023
4.157,0.023
4.158,0.025
4.159,0.025
4.160,0.023
4.161,0.023
4.162,0.030
4.163,0.035
4.164,0.035
4.165,0.030
4.166,0.030
4.167,0.035
4.168,0.038
4.169,0.038
4.170,0.040
4.171,0.045
4.172,0.050
4.173,0.050
4.174,0.050
4.175,0.055
4.176,0.058
4.177,0.058
4.178,0.055
4.179,0.058
4.180,0.063
4.181,0.065
4.182,0.065
4.183,0.068
4.184,0.070
4.185,0.070
4.186,0.070
4.187,0.070
4.188,0.070
4.189,0.070
4.190,0.070
4.191,0.073
4.192,0.080
4.193,0.085
4.194,0.088
4.195,0.088
4.196,0.085
4.197,0.085
4.198,0.085
4.199,0.088
4.200,0.093
4.201,0.098
4.202,0.100
4.203,0.098
4.204,0.093
4.205,0.090
4.206,0.093
4.207,0.095
4.208,0.095
4.209,0.098
4.210,0.103
4.211,0.103
4.212,0.100
4.213,0.100
4.214,0.105
4.215,0.113
4.216,0.113
4.217,0.110
4.218,0.113
4.219,0.120
4.220,0.123
4.221,0.120
4.222,0.118
4.223,0.123
4.224,0.128
4.225,0.128
4.226,0.128
4.227,0.130
4.228,0.133
4.229,0.133
4.230,0.130
4.231,0.133
4.232,0.135
4.233,0.135
4.234,0.135
4.235,0.138
4.236,0.143
4.237,0.145
4.238,0.145
4.239,0.148
4.240,0.148
4.241,0.148
4.242,0.148
4.243,0.150
4.244,0.148
4.245,0.143
4.246,0.138
4.247,0.140
4.248,0.145
4.249,0.143
4.250,0.135
4.251,0.128
4.252,0.125
4.253,0.125
4.254,0.125
4.255,0.120
4.256,0.113
4.257,0.108
4.258,0.108
4.259,0.110
4.260,0.108
4.261,0.100
4.262,0.093
4.263,0.088
4.264,0.083
4.265,0.078
4.266,0.073
4.267,0.070
4.268,0.068
4.269,0.065
4.270,0.060
4.271,0.058
4.272,0.055
4.273,0.053
4.274,0.045
4.275,0.038
4.276,0.030
4.277,0.025
4.278,0.025
4.279,0.025
4.280,0.018
4.281,0.008
4.282,0.003
4.283,0.005
4.284,0.008
4.285,0.005
4.286,-0.003
4.287,-0.008
4.288,-0.010
4.289,-0.013
4.290,-0.018
4.291,-0.020
4.292,-0.020
4.293,-0.020
4.294,-0.018
4.295,-0.015
4.296,-0.020
4.297,-0.030
4.298,-0.038
4.299,-0.038
4.300,-0.033
4.301,-0.033
4.302,-0.040
4.303,-0.045
4.304,-0.045
4.305,-0.043
4.306,-0.045
4.307,-0.048
4.308,-0.050
4.309,-0.050
4.310,-0.050
4.311,-0.050
4.312,-0.053
4.313,-0.058
4.314,-0.063
4.315,-0.060
4.316,-0.055
4.317,-0.055
4.318,-0.060
4.319,-0.058
4.320,-0.053
4.321,-0.053
4.322,-0.060
4.323,-0.065
4.324,-0.065
4.325,-0.060
4.326,-0.058
4.327,-0.058
4.328,-0.058
4.329,-0.058
4.330,-0.060
4.331,-0.063
4.332,-0.063
4.333,-0.058
4.334,-0.053
4.335,-0.050
4.336,-0.053
4.337,-0.055
4.338,-0.053
4.339,-0.045
4.340,-0.043
4.341,-0.045
4.342,-0.053
4.343,-0.053
4.344,-0.053
4.345,-0.053
4.346,-0.053
4.347,-0.048
4.348,-0.045
4.349,-0.048
4.350,-0.053
4.351,-0.053
4.352,-0.045
4.353,-0.038
4.354,-0.038
4.355,-0.040
4.356,-0.043
4.357,-0.043
4.358,-0.045
4.359,-0.045
4.360,-0.045
4.361,-0.040
4.362,-0.035
4.363,-0.035
4.364,-0.038
4.365,-0.040
4.366,-0.038
4.367,-0.033
4.368,-0.030
4.369,-0.033
4.370,-0.038
4.371,-0.035
4.372,-0.030
4.373,-0.030
4.374,-0.038
4.375,-0.040
4.376,-0.035
4.377,-0.028
4.378,-0.020
4.379,-0.015
4.380,-0.013
4.381,-0.015
4.382,-0.023
4.383,-0.028
4.384,-0.025
4.385,-0.023
4.386,-0.023
4.387,-0.025
4.388,-0.023
4.389,-0.020
4.390,-0.023
4.391,-0.030
4.392,-0.038
4.393,-0.038
4.394,-0.038
4.395,-0.038
4.396,-0.035
4.397,-0.030
4.398,-0.028
4.399,-0.030
4.400,-0.030
4.401,-0.025
4.402,-0.018
4.403,-0.018
4.404,-0.025
4.405,-0.028
4.406,-0.025
4.407,-0.023
4.408,-0.023
4.409,-0.023
4.410,-0.020
4.411,-0.018
4.412,-0.018
4.413,-0.015
4.414,-0.010
4.415,-0.013
4.416,-0.023
4.417,-0.028
4.418,-0.025
4.419,-0.023
4.420,-0.028
4.421,-0.038
4.422,-0.040
4.423,-0.035
4.424,-0.030
4.425,-0.030
4.426,-0.028
4.427,-0.025
4.428,-0.030
4.429,-0.040
4.430,-0.045
4.431,-0.040
4.432,-0.033
4.433,-0.035
4.434,-0.040
4.435,-0.043
4.436,-0.040
4.437,-0.040
4.438,-0.040
4.439,-0.040
4.440,-0.038
4.441,-0.040
4.442,-0.045
4.443,-0.048
4.444,-0.045
4.445,-0.043
4.446,-0.045
4.447,-0.048
4.448,-0.048
4.449,-0.045
4.450,-0.043
4.451,-0.045
4.452,-0.050
4.453,-0.055
4.454,-0.058
4.455,-0.055
4.456,-0.055
4.457,-0.058
4.458,-0.060
4.459,-0.060
4.460,-0.058
4.461,-0.058
4.462,-0.058
4.463,-0.055
4.464,-0.055
4.465,-0.060
4.466,-0.068
4.467,-0.070
4.468,-0.068
4.469,-0.065
4.470,-0.065
4.471,-0.065
4.472,-0.063
4.473,-0.065
4.474,-0.065
4.475,-0.060
4.476,-0.055
4.477,-0.058
4.478,-0.065
4.479,-0.070
4.480,-0.070
4.481,-0.075
4.482,-0.083
4.483,-0.085
4.484,-0.075
4.485,-0.065
4.486,-0.065
4.487,-0.075
4.488,-0.078
4.489,-0.073
4.490,-0.068
4.491,-0.073
4.492,-0.080
4.493,-0.080
4.494,-0.075
4.495,-0.073
4.496,-0.078
4.497,-0.080
4.498,-0.080
4.499,-0.078
4.500,-0.075
4.501,-0.078
4.502,-0.080
4.503,-0.080
4.504,-0.078
4.505,-0.073
4.506,-0.073
4.507,-0.075
4.508,-0.078
4.509,-0.080
4.510,-0.078
4.511,-0.073
4.512,-0.073
4.513,-0.075
4.514,-0.083
4.515,-0.085
4.516,-0.080
4.517,-0.078
4.518,-0.080
4.519,-0.085
4.520,-0.085
4.521,-0.080
4.522,-0.075
4.523,-0.075
4.524,-0.080
4.525,-0.080
4.526,-0.080
4.527,-0.080
4.528,-0.080
4.529,-0.080
4.530,-0.075
4.531,-0.065
4.532,-0.053
4.533,-0.040
4.534,-0.033
4.535,-0.025
4.536,-0.018
4.537,-0.015
4.538,-0.018
4.539,-0.018
4.540,-0.015
4.541,-0.010
4.542,-0.010
4.543,-0.015
4.544,-0.023
4.545,-0.028
4.546,-0.033
4.547,-0.033
4.548,-0.028
4.549,-0.020
4.550,-0.018
4.551,-0.013
4.552,-0.005
4.553,0.010
4.554,0.023
4.555,0.033
4.556,0.040
4.557,0.048
4.558,0.053
4.559,0.053
4.560,0.050
4.561,0.053
4.562,0.060
4.563,0.070
4.564,0.078
4.565,0.083
4.566,0.080
4.567,0.075
4.568,0.073
4.569,0.075
4.570,0.075
4.571,0.075
4.572,0.075
4.573,0.078
4.574,0.080
4.575,0.080
4.576,0.078
4.577,0.078
4.578,0.073
4.579,0.068
4.580,0.068
4.581,0.073
4.582,0.075
4.583,0.068
4.584,0.055
4.585,0.045
4.586,0.043
4.587,0.035
4.588,0.025
4.589,0.010
4.590,0.003
4.591,-0.005
4.592,-0.008
4.593,-0.018
4.594,-0.025
4.595,-0.038
4.596,-0.045
4.597,-0.060
4.598,-0.068
4.599,-0.080
4.600,-0.080
4.601,-0.088
4.602,-0.085
4.603,-0.095
4.604,-0.098
4.605,-0.113
4.606,-0.115
4.607,-0.120
4.608,-0.110
4.609,-0.108
4.610,-0.103
4.611,-0.100
4.612,-0.098
4.613,-0.098
4.614,-0.103
4.615,-0.103
4.616,-0.100
4.617,-0.098
4.618,-0.105
4.619,-0.115
4.620,-0.118
4.621,-0.113
4.622,-0.110
4.623,-0.115
4.624,-0.123
4.625,-0.125
4.626,-0.128
4.627,-0.128
4.628,-0.123
4.629,-0.115
4.630,-0.113
4.631,-0.118
4.632,-0.123
4.633,-0.123
4.634,-0.120
4.635,-0.120
4.636,-0.125
4.637,-0.130
4.638,-0.133
4.639,-0.135
4.640,-0.138
4.641,-0.135
4.642,-0.133
4.643,-0.130
4.644,-0.128
4.645,-0.128
4.646,-0.130
4.647,-0.133
4.648,-0.133
4.649,-0.130
4.650,-0.130
4.651,-0.135
4.652,-0.140
4.653,-0.140
4.654,-0.138
4.655,-0.135
4.656,-0.135
4.657,-0.133
4.658,-0.130
4.659,-0.130
4.660,-0.130
4.661,-0.130
4.662,-0.133
4.663,-0.135
4.664,-0.135
4.665,-0.135
4.666,-0.138
4.667,-0.145
4.668,-0.153
4.669,-0.158
4.670,-0.165
4.671,-0.178
4.672,-0.190
4.673,-0.193
4.674,-0.195
4.675,-0.200
4.676,-0.205
4.677,-0.198
4.678,-0.178
4.679,-0.155
4.680,-0.138
4.681,-0.110
4.682,-0.068
4.683,-0.020
4.684,0.023
4.685,0.075
4.686,0.145
4.687,0.230
4.688,0.315
4.689,0.405
4.690,0.510
4.691,0.630
4.692,0.743
4.693,0.830
4.694,0.910
4.695,1.010
4.696,1.125
4.697,1.230
4.698,1.300
4.699,1.343
4.700,1.368
4.701,1.383
4.702,1.393
4.703,1.413
4.704,1.435
4.705,1.418
4.706,1.298
4.707,1.063
4.708,0.765
4.709,0.465
4.710,0.193
4.711,-0.040
4.712,-0.213
4.713,-0.305
4.714,-0.328
4.715,-0.325
4.716,-0.323
4.717,-0.315
4.718,-0.293
4.719,-0.275
4.720,-0.275
4.721,-0.288
4.722,-0.293
4.723,-0.288
4.724,-0.278
4.725,-0.273
4.726,-0.268
4.727,-0.263
4.728,-0.255
4.729,-0.235
4.730,-0.203
4.731,-0.170
4.732,-0.150
4.733,-0.143
4.734,-0.133
4.735,-0.120
4.736,-0.108
4.737,-0.103
4.738,-0.098
4.739,-0.090
4.740,-0.080
4.741,-0.075
4.742,-0.075
4.743,-0.078
4.744,-0.078
4.745,-0.078
4.746,-0.078
4.747,-0.083
4.748,-0.088
4.749,-0.090
4.750,-0.085
4.751,-0.083
4.752,-0.085
4.753,-0.088
4.754,-0.080
4.755,-0.070
4.756,-0.065
4.757,-0.068
4.758,-0.068
4.759,-0.068
4.760,-0.065
4.761,-0.068
4.762,-0.070
4.763,-0.073
4.764,-0.075
4.765,-0.078
4.766,-0.073
4.767,-0.068
4.768,-0.068
4.769,-0.073
4.770,-0.073
4.771,-0.070
4.772,-0.063
4.773,-0.060
4.774,-0.058
4.775,-0.055
4.776,-0.053
4.777,-0.055
4.778,-0.055
4.779,-0.058
4.780,-0.058
4.781,-0.060
4.782,-0.060
4.783,-0.058
4.784,-0.055
4.785,-0.055
4.786,-0.058
4.787,-0.058
4.788,-0.060
4.789,-0.060
4.790,-0.058
4.791,-0.048
4.792,-0.045
4.793,-0.045
4.794,-0.050
4.795,-0.045
4.796,-0.045
4.797,-0.045
4.798,-0.050
4.799,-0.045
4.800,-0.045
4.801,-0.038
4.802,-0.040
4.803,-0.033
4.804,-0.033
4.805,-0.028
4.806,-0.030
4.807,-0.018
4.808,-0.018
4.809,-0.018
4.810,-0.023
4.811,-0.015
4.812,-0.008
4.813,-0.008
4.814,-0.015
4.815,-0.020
4.816,-0.013
4.817,-0.010
4.818,-0.015
4.819,-0.023
4.820,-0.018
4.821,-0.015
4.822,-0.015
4.823,-0.023
4.824,-0.020
4.825,-0.018
4.826,-0.010
4.827,-0.008
4.828,-0.003
4.829,-0.003
4.830,-0.003
4.831,-0.003
4.832,0.003
4.833,0.008
4.834,0.008
4.835,0.005
4.836,0.008
4.837,0.010
4.838,0.010
4.839,0.010
4.840,0.013
4.841,0.015
4.842,0.013
4.843,0.008
4.844,0.013
4.845,0.020
4.846,0.025
4.847,0.023
4.848,0.023
4.849,0.028
4.850,0.030
4.851,0.025
4.852,0.023
4.853,0.028
4.854,0.035
4.855,0.038
4.856,0.038
4.857,0.038
4.858,0.043
4.859,0.043
4.860,0.040
4.861,0.035
4.862,0.038
4.863,0.040
4.864,0.045
4.865,0.050
4.866,0.055
4.867,0.060
4.868,0.063
4.869,0.063
4.870,0.063
4.871,0.068
4.872,0.073
4.873,0.075
4.874,0.073
4.875,0.068
4.876,0.065
4.877,0.065
4.878,0.070
4.879,0.075
4.880,0.078
4.881,0.080
4.882,0.083
4.883,0.083
4.884,0.083
4.885,0.085
4.886,0.093
4.887,0.098
4.888,0.103
4.889,0.105
4.890,0.105
4.891,0.100
4.892,0.095
4.893,0.095
4.894,0.103
4.895,0.108
4.896,0.108
4.897,0.105
4.898,0.108
4.899,0.115
4.900,0.118
4.901,0.118
4.902,0.120
4.903,0.125
4.904,0.128
4.905,0.125
4.906,0.120
4.907,0.120
4.908,0.118
4.909,0.113
4.910,0.110
4.911,0.113
4.912,0.118
4.913,0.125
4.914,0.133
4.915,0.138
4.916,0.140
4.917,0.138
4.918,0.138
4.919,0.140
4.920,0.140
4.921,0.138
4.922,0.135
4.923,0.140
4.924,0.145
4.925,0.145
4.926,0.138
4.927,0.135
4.928,0.135
4.929,0.135
4.930,0.133
4.931,0.130
4.932,0.130
4.933,0.133
4.934,0.130
4.935,0.123
4.936,0.115
4.937,0.113
4.938,0.110
4.939,0.105
4.940,0.100
4.941,0.098
4.942,0.100
4.943,0.103
4.944,0.098
4.945,0.088
4.946,0.078
4.947,0.075
4.948,0.075
4.949,0.070
4.950,0.063
4.951,0.058
4.952,0.058
4.953,0.058
4.954,0.053
4.955,0.045
4.956,0.038
4.957,0.030
4.958,0.023
4.959,0.018
4.960,0.015
4.961,0.015
4.962,0.013
4.963,0.010
4.964,0.005
4.965,0.000
4.966,-0.005
4.967,-0.005
4.968,-0.003
4.969,-0.005
4.970,-0.015
4.971,-0.023
4.972,-0.023
4.973,-0.023
4.974,-0.028
4.975,-0.033
4.976,-0.035
4.977,-0.033
4.978,-0.035
4.979,-0.043
4.980,-0.053
4.981,-0.055
4.982,-0.055
4.983,-0.053
4.984,-0.053
4.985,-0.055
4.986,-0.060
4.987,-0.063
4.988,-0.060
4.989,-0.055
4.990,-0.058
4.991,-0.063
4.992,-0.068
4.993,-0.068
4.994,-0.068
4.995,-0.068
4.996,-0.068
4.997,-0.068
4.998,-0.068
4.999,-0.068
5.000,-0.068
5.001,-0.065
5.002,-0.068
5.003,-0.073
5.004,-0.075
5.005,-0.073
5.006,-0.068
5.007,-0.065
5.008,-0.065
5.009,-0.065
5.010,-0.068
5.011,-0.070
5.012,-0.075
5.013,-0.078
5.014,-0.075
5.015,-0.070
5.016,-0.068
5.017,-0.065
5.018,-0.065
5.019,-0.065
5.020,-0.068
5.021,-0.068
5.022,-0.068
5.023,-0.065
5.024,-0.065
5.025,-0.065
5.026,-0.068
5.027,-0.068
5.028,-0.068
5.029,-0.063
5.030,-0.060
5.031,-0.058
5.032,-0.060
5.033,-0.060
5.034,-0.060
5.035,-0.055
5.036,-0.053
5.037,-0.053
5.038,-0.058
5.039,-0.063
5.040,-0.068
5.041,-0.065
5.042,-0.060
5.043,-0.055
5.044,-0.055
5.045,-0.053
5.046,-0.050
5.047,-0.048
5.048,-0.050
5.049,-0.053
5.050,-0.050
5.051,-0.040
5.052,-0.035
5.053,-0.040
5.054,-0.048
5.055,-0.050
5.056,-0.050
5.057,-0.050
5.058,-0.050
5.059,-0.048
5.060,-0.048
5.061,-0.048
5.062,-0.050
5.063,-0.048
5.064,-0.043
5.065,-0.043
5.066,-0.045
5.067,-0.048
5.068,-0.045
5.069,-0.043
5.070,-0.043
5.071,-0.040
5.072,-0.040
5.073,-0.043
5.074,-0.045
5.075,-0.043
5.076,-0.038
5.077,-0.035
5.078,-0.040
5.079,-0.048
5.080,-0.050
5.081,-0.048
5.082,-0.045
5.083,-0.043
5.084,-0.038
5.085,-0.033
5.086,-0.035
5.087,-0.045
5.088,-0.050
5.089,-0.045
5.090,-0.040
5.091,-0.040
5.092,-0.045
5.093,-0.045
5.094,-0.040
5.095,-0.040
5.096,-0.043
5.097,-0.045
5.098,-0.045
5.099,-0.045
5.100,-0.045
5.101,-0.043
5.102,-0.043
5.103,-0.045
5.104,-0.048
5.105,-0.048
5.106,-0.048
5.107,-0.048
5.108,-0.048
5.109,-0.048
5.110,-0.050
5.111,-0.055
5.112,-0.060
5.113,-0.063
5.114,-0.060
5.115,-0.058
5.116,-0.058
5.117,-0.058
5.118,-0.055
5.119,-0.055
5.120,-0.055
5.121,-0.058
5.122,-0.058
5.123,-0.058
5.124,-0.058
5.125,-0.063
5.126,-0.065
5.127,-0.063
5.128,-0.058
5.129,-0.055
5.130,-0.055
5.131,-0.060
5.132,-0.063
5.133,-0.063
5.134,-0.063
5.135,-0.063
5.136,-0.060
5.137,-0.060
5.138,-0.063
5.139,-0.068
5.140,-0.070
5.141,-0.070
5.142,-0.070
5.143,-0.075
5.144,-0.078
5.145,-0.075
5.146,-0.068
5.147,-0.065
5.148,-0.070
5.149,-0.075
5.150,-0.078
5.151,-0.078
5.152,-0.078
5.153,-0.080
5.154,-0.078
5.155,-0.073
5.156,-0.068
5.157,-0.068
5.158,-0.070
5.159,-0.075
5.160,-0.078
5.161,-0.078
5.162,-0.078
5.163,-0.075
5.164,-0.078
5.165,-0.080
5.166,-0.083
5.167,-0.080
5.168,-0.078
5.169,-0.080
5.170,-0.085
5.171,-0.088
5.172,-0.088
5.173,-0.088
5.174,-0.093
5.175,-0.095
5.176,-0.090
5.177,-0.085
5.178,-0.083
5.179,-0.083
5.180,-0.083
5.181,-0.078
5.182,-0.078
5.183,-0.083
5.184,-0.088
5.185,-0.088
5.186,-0.083
5.187,-0.075
5.188,-0.073
5.189,-0.073
5.190,-0.073
5.191,-0.070
5.192,-0.065
5.193,-0.055
5.194,-0.045
5.195,-0.038
5.196,-0.033
5.197,-0.028
5.198,-0.025
5.199,-0.023
5.200,-0.018
5.201,-0.015
5.202,-0.020
5.203,-0.028
5.204,-0.033
5.205,-0.030
5.206,-0.030
5.207,-0.033
5.208,-0.033
5.209,-0.028
5.210,-0.023
5.211,-0.020
5.212,-0.020
5.213,-0.013
5.214,0.000
5.215,0.018
5.216,0.030
5.217,0.040
5.218,0.043
5.219,0.040
5.220,0.040
5.221,0.045
5.222,0.053
5.223,0.060
5.224,0.063
5.225,0.063
5.226,0.060
5.227,0.058
5.228,0.055
5.229,0.053
5.230,0.050
5.231,0.050
5.232,0.055
5.233,0.065
5.234,0.070
5.235,0.073
5.236,0.073
5.237,0.073
5.238,0.068
5.239,0.063
5.240,0.058
5.241,0.055
5.242,0.053
5.243,0.048
5.244,0.045
5.245,0.050
5.246,0.050
5.247,0.038
5.248,0.020
5.249,0.005
5.250,0.003
5.251,-0.005
5.252,-0.010
5.253,-0.023
5.254,-0.028
5.255,-0.040
5.256,-0.045
5.257,-0.060
5.258,-0.065
5.259,-0.078
5.260,-0.080
5.261,-0.088
5.262,-0.085
5.263,-0.098
5.264,-0.100
5.265,-0.108
5.266,-0.103
5.267,-0.108
5.268,-0.110
5.269,-0.118
5.270,-0.115
5.271,-0.110
5.272,-0.108
5.273,-0.105
5.274,-0.103
5.275,-0.100
5.276,-0.103
5.277,-0.108
5.278,-0.113
5.279,-0.115
5.280,-0.118
5.281,-0.120
5.282,-0.123
5.283,-0.123
5.284,-0.125
5.285,-0.125
5.286,-0.123
5.287,-0.120
5.288,-0.120
5.289,-0.125
5.290,-0.130
5.291,-0.133
5.292,-0.133
5.293,-0.130
5.294,-0.125
5.295,-0.123
5.296,-0.128
5.297,-0.140
5.298,-0.150
5.299,-0.150
5.300,-0.145
5.301,-0.143
5.302,-0.145
5.303,-0.145
5.304,-0.143
5.305,-0.143
5.306,-0.148
5.307,-0.153
5.308,-0.150
5.309,-0.143
5.310,-0.138
5.311,-0.138
5.312,-0.140
5.313,-0.140
5.314,-0.145
5.315,-0.150
5.316,-0.150
5.317,-0.145
5.318,-0.143
5.319,-0.143
5.320,-0.143
5.321,-0.140
5.322,-0.138
5.323,-0.140
5.324,-0.143
5.325,-0.143
5.326,-0.140
5.327,-0.140
5.328,-0.145
5.329,-0.153
5.330,-0.163
5.331,-0.175
5.332,-0.190
5.333,-0.200
5.334,-0.208
5.335,-0.208
5.336,-0.200
5.337,-0.185
5.338,-0.170
5.339,-0.153
5.340,-0.130
5.341,-0.098
5.342,-0.055
5.343,-0.008
5.344,0.038
5.345,0.090
5.346,0.155
5.347,0.240
5.348,0.335
5.349,0.435
5.350,0.543
5.351,0.660
5.352,0.773
5.353,0.870
5.354,0.955
5.355,1.050
5.356,1.160
5.357,1.263
5.358,1.328
5.359,1.355
5.360,1.368
5.361,1.380
5.362,1.390
5.363,1.400
5.364,1.405
5.365,1.370
5.366,1.245
5.367,1.008
5.368,0.698
5.369,0.388
5.370,0.125
5.371,-0.083
5.372,-0.233
5.373,-0.318
5.374,-0.350
5.375,-0.353
5.376,-0.343
5.377,-0.328
5.378,-0.313
5.379,-0.303
5.380,-0.300
5.381,-0.298
5.382,-0.288
5.383,-0.283
5.384,-0.288
5.385,-0.290
5.386,-0.278
5.387,-0.253
5.388,-0.228
5.389,-0.203
5.390,-0.175
5.391,-0.150
5.392,-0.133
5.393,-0.128
5.394,-0.123
5.395,-0.118
5.396,-0.110
5.397,-0.105
5.398,-0.100
5.399,-0.093
5.400,-0.083
5.401,-0.078
5.402,-0.073
5.403,-0.070
5.404,-0.070
5.405,-0.073
5.406,-0.073
5.407,-0.075
5.408,-0.080
5.409,-0.083
5.410,-0.083
5.411,-0.083
5.412,-0.083
5.413,-0.085
5.414,-0.085
5.415,-0.083
5.416,-0.078
5.417,-0.078
5.418,-0.080
5.419,-0.083
5.420,-0.080
5.421,-0.075
5.422,-0.070
5.423,-0.070
5.424,-0.070
5.425,-0.073
5.426,-0.073
5.427,-0.073
5.428,-0.073
5.429,-0.075
5.430,-0.073
5.431,-0.070
5.432,-0.065
5.433,-0.065
5.434,-0.065
5.435,-0.070
5.436,-0.068
5.437,-0.063
5.438,-0.058
5.439,-0.060
5.440,-0.065
5.441,-0.068
5.442,-0.063
5.443,-0.058
5.444,-0.055
5.445,-0.058
5.446,-0.055
5.447,-0.053
5.448,-0.050
5.449,-0.050
5.450,-0.053
5.451,-0.055
5.452,-0.058
5.453,-0.053
5.454,-0.048
5.455,-0.038
5.456,-0.040
5.457,-0.040
5.458,-0.040
5.459,-0.035
5.460,-0.043
5.461,-0.045
5.462,-0.045
5.463,-0.033
5.464,-0.035
5.465,-0.038
5.466,-0.043
5.467,-0.030
5.468,-0.025
5.469,-0.023
5.470,-0.033
5.471,-0.035
5.472,-0.035
5.473,-0.035
5.474,-0.033
5.475,-0.025
5.476,-0.015
5.477,-0.018
5.478,-0.023
5.479,-0.028
5.480,-0.023
5.481,-0.020
5.482,-0.018
5.483,-0.015
5.484,-0.010
5.485,-0.010
5.486,-0.010
5.487,-0.010
5.488,-0.005
5.489,-0.005
5.490,-0.010
5.491,-0.013
5.492,-0.008
5.493,0.000
5.494,0.003
5.495,0.000
5.496,0.003
5.497,0.005
5.498,0.008
5.499,0.010
5.500,0.013
5.501,0.013
5.502,0.010
5.503,0.008
5.504,0.010
5.505,0.013
5.506,0.013
5.507,0.010
5.508,0.015
5.509,0.025
5.510,0.030
5.511,0.028
5.512,0.023
5.513,0.023
5.514,0.030
5.515,0.035
5.516,0.035
5.517,0.035
5.518,0.043
5.519,0.050
5.520,0.053
5.521,0.053
5.522,0.053
5.523,0.058
5.524,0.063
5.525,0.063
5.526,0.063
5.527,0.065
5.528,0.070
5.529,0.075
5.530,0.075
5.531,0.075
5.532,0.075
5.533,0.078
5.534,0.083
5.535,0.088
5.536,0.090
5.537,0.090
5.538,0.085
5.539,0.083
5.540,0.085
5.541,0.090
5.542,0.093
5.543,0.090
5.544,0.090
5.545,0.093
5.546,0.095
5.547,0.095
5.548,0.095
5.549,0.098
5.550,0.103
5.551,0.105
5.552,0.105
5.553,0.103
5.554,0.105
5.555,0.110
5.556,0.115
5.557,0.115
5.558,0.115
5.559,0.115
5.560,0.113
5.561,0.113
5.562,0.115
5.563,0.123
5.564,0.130
5.565,0.130
5.566,0.130
5.567,0.133
5.568,0.138
5.569,0.140
5.570,0.138
5.571,0.138
5.572,0.140
5.573,0.143
5.574,0.143
5.575,0.143
5.576,0.143
5.577,0.140
5.578,0.140
5.579,0.143
5.580,0.145
5.581,0.143
5.582,0.135
5.583,0.135
5.584,0.143
5.585,0.148
5.586,0.145
5.587,0.140
5.588,0.140
5.589,0.145
5.590,0.148
5.591,0.145
5.592,0.143
5.593,0.145
5.594,0.140
5.595,0.128
5.596,0.115
5.597,0.113
5.598,0.113
5.599,0.110
5.600,0.108
5.601,0.108
5.602,0.108
5.603,0.100
5.604,0.090
5.605,0.083
5.606,0.083
5.607,0.080
5.608,0.075
5.609,0.070
5.610,0.065
5.611,0.063
5.612,0.055
5.613,0.050
5.614,0.048
5.615,0.045
5.616,0.040
5.617,0.033
5.618,0.028
5.619,0.028
5.620,0.023
5.621,0.015
5.622,0.010
5.623,0.010
5.624,0.010
5.625,0.008
5.626,0.000
5.627,-0.005
5.628,-0.013
5.629,-0.023
5.630,-0.030
5.631,-0.030
5.632,-0.028
5.633,-0.025
5.634,-0.025
5.635,-0.025
5.636,-0.023
5.637,-0.025
5.638,-0.030
5.639,-0.035
5.640,-0.035
5.641,-0.038
5.642,-0.045
5.643,-0.053
5.644,-0.053
5.645,-0.048
5.646,-0.045
5.647,-0.045
5.648,-0.048
5.649,-0.050
5.650,-0.055
5.651,-0.058
5.652,-0.055
5.653,-0.050
5.654,-0.050
5.655,-0.053
5.656,-0.055
5.657,-0.053
5.658,-0.050
5.659,-0.050
5.660,-0.050
5.661,-0.050
5.662,-0.053
5.663,-0.055
5.664,-0.055
5.665,-0.053
5.666,-0.053
5.667,-0.058
5.668,-0.060
5.669,-0.055
5.670,-0.053
5.671,-0.055
5.672,-0.060
5.673,-0.058
5.674,-0.055
5.675,-0.055
5.676,-0.060
5.677,-0.063
5.678,-0.060
5.679,-0.053
5.680,-0.050
5.681,-0.048
5.682,-0.050
5.683,-0.050
5.684,-0.053
5.685,-0.053
5.686,-0.053
5.687,-0.053
5.688,-0.053
5.689,-0.048
5.690,-0.043
5.691,-0.045
5.692,-0.050
5.693,-0.050
5.694,-0.050
5.695,-0.050
5.696,-0.050
5.697,-0.045
5.698,-0.040
5.699,-0.038
5.700,-0.040
5.701,-0.043
5.702,-0.043
5.703,-0.040
5.704,-0.043
5.705,-0.043
5.706,-0.043
5.707,-0.045
5.708,-0.050
5.709,-0.053
5.710,-0.050
5.711,-0.045
5.712,-0.048
5.713,-0.050
5.714,-0.048
5.715,-0.043
5.716,-0.043
5.717,-0.045
5.718,-0.045
5.719,-0.043
5.720,-0.040
5.721,-0.038
5.722,-0.038
5.723,-0.035
5.724,-0.035
5.725,-0.035
5.726,-0.033
5.727,-0.030
5.728,-0.030
5.729,-0.030
5.730,-0.030
5.731,-0.028
5.732,-0.025
5.733,-0.025
5.734,-0.028
5.735,-0.030
5.736,-0.030
5.737,-0.030
5.738,-0.030
5.739,-0.030
5.740,-0.033
5.741,-0.033
5.742,-0.030
5.743,-0.023
5.744,-0.020
5.745,-0.023
5.746,-0.030
5.747,-0.035
5.748,-0.033
5.749,-0.028
5.750,-0.028
5.751,-0.033
5.752,-0.038
5.753,-0.035
5.754,-0.028
5.755,-0.023
5.756,-0.025
5.757,-0.033
5.758,-0.035
5.759,-0.030
5.760,-0.025
5.761,-0.025
5.762,-0.028
5.763,-0.033
5.764,-0.038
5.765,-0.043
5.766,-0.043
5.767,-0.040
5.768,-0.038
5.769,-0.038
5.770,-0.038
5.771,-0.040
5.772,-0.043
5.773,-0.043
5.774,-0.038
5.775,-0.035
5.776,-0.035
5.777,-0.038
5.778,-0.040
5.779,-0.040
5.780,-0.043
5.781,-0.045
5.782,-0.048
5.783,-0.048
5.784,-0.050
5.785,-0.055
5.786,-0.060
5.787,-0.060
5.788,-0.055
5.789,-0.053
5.790,-0.053
5.791,-0.055
5.792,-0.058
5.793,-0.060
5.794,-0.058
5.795,-0.050
5.796,-0.048
5.797,-0.053
5.798,-0.058
5.799,-0.058
5.800,-0.055
5.801,-0.058
5.802,-0.063
5.803,-0.065
5.804,-0.063
5.805,-0.063
5.806,-0.068
5.807,-0.068
5.808,-0.065
5.809,-0.065
5.810,-0.073
5.811,-0.078
5.812,-0.075
5.813,-0.070
5.814,-0.068
5.815,-0.065
5.816,-0.063
5.817,-0.063
5.818,-0.070
5.819,-0.078
5.820,-0.075
5.821,-0.068
5.822,-0.065
5.823,-0.068
5.824,-0.070
5.825,-0.070
5.826,-0.073
5.827,-0.078
5.828,-0.083
5.829,-0.080
5.830,-0.078
5.831,-0.075
5.832,-0.075
5.833,-0.075
5.834,-0.073
5.835,-0.068
5.836,-0.058
5.837,-0.048
5.838,-0.043
5.839,-0.043
5.840,-0.043
5.841,-0.035
5.842,-0.028
5.843,-0.023
5.844,-0.025
5.845,-0.028
5.846,-0.025
5.847,-0.020
5.848,-0.018
5.849,-0.023
5.850,-0.033
5.851,-0.038
5.852,-0.033
5.853,-0.025
5.854,-0.025
5.855,-0.025
5.856,-0.020
5.857,-0.010
5.858,0.000
5.859,0.013
5.860,0.030
5.861,0.045
5.862,0.053
5.863,0.053
5.864,0.053
5.865,0.055
5.866,0.058
5.867,0.060
5.868,0.068
5.869,0.078
5.870,0.078
5.871,0.073
5.872,0.068
5.873,0.068
5.874,0.063
5.875,0.058
5.876,0.060
5.877,0.073
5.878,0.083
5.879,0.083
5.880,0.078
5.881,0.078
5.882,0.080
5.883,0.080
5.884,0.075
5.885,0.073
5.886,0.073
5.887,0.070
5.888,0.065
5.889,0.060
5.890,0.055
5.891,0.050
5.892,0.043
5.893,0.030
5.894,0.018
5.895,0.005
5.896,0.000
5.897,-0.008
5.898,-0.020
5.899,-0.040
5.900,-0.048
5.901,-0.053
5.902,-0.050
5.903,-0.063
5.904,-0.073
5.905,-0.085
5.906,-0.090
5.907,-0.108
5.908,-0.115
5.909,-0.120
5.910,-0.110
5.911,-0.118
5.912,-0.120
5.913,-0.128
5.914,-0.118
5.915,-0.120
5.916,-0.123
5.917,-0.128
5.918,-0.120
5.919,-0.118
5.920,-0.120
5.921,-0.125
5.922,-0.128
5.923,-0.130
5.924,-0.138
5.925,-0.143
5.926,-0.138
5.927,-0.128
5.928,-0.128
5.929,-0.133
5.930,-0.138
5.931,-0.135
5.932,-0.135
5.933,-0.138
5.934,-0.143
5.935,-0.143
5.936,-0.143
5.937,-0.140
5.938,-0.140
5.939,-0.143
5.940,-0.150
5.941,-0.153
5.942,-0.150
5.943,-0.148
5.944,-0.150
5.945,-0.155
5.946,-0.158
5.947,-0.153
5.948,-0.150
5.949,-0.153
5.950,-0.158
5.951,-0.160
5.952,-0.158
5.953,-0.158
5.954,-0.158
5.955,-0.158
5.956,-0.155
5.957,-0.153
5.958,-0.158
5.959,-0.163
5.960,-0.165
5.961,-0.160
5.962,-0.158
5.963,-0.160
5.964,-0.165
5.965,-0.163
5.966,-0.158
5.967,-0.158
5.968,-0.165
5.969,-0.165
5.970,-0.158
5.971,-0.153
5.972,-0.158
5.973,-0.165
5.974,-0.165
5.975,-0.163
5.976,-0.165
5.977,-0.170
5.978,-0.178
5.979,-0.185
5.980,-0.198
5.981,-0.210
5.982,-0.213
5.983,-0.208
5.984,-0.208
5.985,-0.208
5.986,-0.203
5.987,-0.183
5.988,-0.155
5.989,-0.125
5.990,-0.095
5.991,-0.058
5.992,-0.020
5.993,0.025
5.994,0.085
5.995,0.168
5.996,0.260
5.997,0.353
5.998,0.455
5.999,0.575
6.000,0.703
6.001,0.813
6.002,0.903
6.003,0.995
6.004,1.100
6.005,1.205
6.006,1.285
6.007,1.330
6.008,1.353
6.009,1.365
6.010,1.380
6.011,1.400
6.012,1.420
6.013,1.410
6.014,1.323
6.015,1.130
6.016,0.855
6.017,0.553
6.018,0.270
6.019,0.035
6.020,-0.145
6.021,-0.260
6.022,-0.315
6.023,-0.325
6.024,-0.315
6.025,-0.303
6.026,-0.290
6.027,-0.283
6.028,-0.280
6.029,-0.280
6.030,-0.280
6.031,-0.278
6.032,-0.280
6.033,-0.290
6.034,-0.298
6.035,-0.290
6.036,-0.260
6.037,-0.223
6.038,-0.193
6.039,-0.173
6.040,-0.158
6.041,-0.143
6.042,-0.128
6.043,-0.120
6.044,-0.118
6.045,-0.115
6.046,-0.108
6.047,-0.100
6.048,-0.098
6.049,-0.098
6.050,-0.098
6.051,-0.095
6.052,-0.093
6.053,-0.093
6.054,-0.095
6.055,-0.100
6.056,-0.105
6.057,-0.108
6.058,-0.103
6.059,-0.100
6.060,-0.100
6.061,-0.103
6.062,-0.098
6.063,-0.093
6.064,-0.090
6.065,-0.093
6.066,-0.093
6.067,-0.095
6.068,-0.095
6.069,-0.098
6.070,-0.095
6.071,-0.093
6.072,-0.093
6.073,-0.093
6.074,-0.090
6.075,-0.088
6.076,-0.090
6.077,-0.098
6.078,-0.100
6.079,-0.098
6.080,-0.093
6.081,-0.093
6.082,-0.093
6.083,-0.090
6.084,-0.085
6.085,-0.085
6.086,-0.085
6.087,-0.088
6.088,-0.088
6.089,-0.088
6.090,-0.085
6.091,-0.083
6.092,-0.083
6.093,-0.085
6.094,-0.083
6.095,-0.078
6.096,-0.075
6.097,-0.078
6.098,-0.078
6.099,-0.073
6.100,-0.073
6.101,-0.073
6.102,-0.073
6.103,-0.063
6.104,-0.063
6.105,-0.063
6.106,-0.070
6.107,-0.063
6.108,-0.060
6.109,-0.058
6.110,-0.065
6.111,-0.060
6.112,-0.060
6.113,-0.055
6.114,-0.063
6.115,-0.058
6.116,-0.055
6.117,-0.045
6.118,-0.050
6.119,-0.055
6.120,-0.058
6.121,-0.055
6.122,-0.055
6.123,-0.058
6.124,-0.053
6.125,-0.048
6.126,-0.043
6.127,-0.045
6.128,-0.045
6.129,-0.045
6.130,-0.038
6.131,-0.038
6.132,-0.040
6.133,-0.045
6.134,-0.040
6.135,-0.035
6.136,-0.030
6.137,-0.033
6.138,-0.028
6.139,-0.023
6.140,-0.020
6.141,-0.025
6.142,-0.030
6.143,-0.028
6.144,-0.023
6.145,-0.023
6.146,-0.023
6.147,-0.020
6.148,-0.015
6.149,-0.015
6.150,-0.015
6.151,-0.013
6.152,-0.008
6.153,-0.005
6.154,-0.008
6.155,-0.010
6.156,-0.008
6.157,-0.003
6.158,0.000
6.159,0.000
6.160,0.003
6.161,0.005
6.162,0.008
6.163,0.008
6.164,0.008
6.165,0.005
6.166,0.008
6.167,0.015
6.168,0.023
6.169,0.025
6.170,0.025
6.171,0.023
6.172,0.023
6.173,0.020
6.174,0.023
6.175,0.028
6.176,0.033
6.177,0.033
6.178,0.030
6.179,0.033
6.180,0.038
6.181,0.043
6.182,0.045
6.183,0.048
6.184,0.053
6.185,0.055
6.186,0.053
6.187,0.053
6.188,0.053
6.189,0.053
6.190,0.055
6.191,0.060
6.192,0.065
6.193,0.065
6.194,0.063
6.195,0.063
6.196,0.068
6.197,0.073
6.198,0.073
6.199,0.070
6.200,0.070
6.201,0.073
6.202,0.073
6.203,0.075
6.204,0.083
6.205,0.088
6.206,0.088
6.207,0.085
6.208,0.088
6.209,0.093
6.210,0.095
6.211,0.093
6.212,0.093
6.213,0.095
6.214,0.095
6.215,0.093
6.216,0.093
6.217,0.098
6.218,0.103
6.219,0.105
6.220,0.105
6.221,0.110
6.222,0.115
6.223,0.118
6.224,0.115
6.225,0.115
6.226,0.120
6.227,0.125
6.228,0.125
6.229,0.125
6.230,0.123
6.231,0.118
6.232,0.113
6.233,0.110
6.234,0.113
6.235,0.115
6.236,0.115
6.237,0.115
6.238,0.118
6.239,0.118
6.240,0.118
6.241,0.118
6.242,0.115
6.243,0.110
6.244,0.100
6.245,0.090
6.246,0.085
6.247,0.085
6.248,0.088
6.249,0.085
6.250,0.080
6.251,0.073
6.252,0.063
6.253,0.058
6.254,0.055
6.255,0.053
6.256,0.048
6.257,0.040
6.258,0.033
6.259,0.028
6.260,0.025
6.261,0.023
6.262,0.018
6.263,0.013
6.264,0.010
6.265,0.008
6.266,0.003
6.267,-0.003
6.268,-0.008
6.269,-0.010
6.270,-0.013
6.271,-0.020
6.272,-0.028
6.273,-0.033
6.274,-0.033
6.275,-0.033
6.276,-0.038
6.277,-0.043
6.278,-0.048
6.279,-0.048
6.280,-0.050
6.281,-0.055
6.282,-0.060
6.283,-0.065
6.284,-0.070
6.285,-0.070
6.286,-0.068
6.287,-0.065
6.288,-0.070
6.289,-0.075
6.290,-0.075
6.291,-0.075
6.292,-0.078
6.293,-0.083
6.294,-0.085
6.295,-0.083
6.296,-0.080
6.297,-0.080
6.298,-0.083
6.299,-0.080
6.300,-0.083
6.301,-0.088
6.302,-0.090
6.303,-0.088
6.304,-0.088
6.305,-0.090
6.306,-0.093
6.307,-0.090
6.308,-0.090
6.309,-0.093
6.310,-0.098
6.311,-0.098
6.312,-0.093
6.313,-0.093
6.314,-0.098
6.315,-0.100
6.316,-0.100
6.317,-0.098
6.318,-0.100
6.319,-0.100
6.320,-0.095
6.321,-0.090
6.322,-0.093
6.323,-0.093
6.324,-0.090
6.325,-0.088
6.326,-0.090
6.327,-0.093
6.328,-0.093
6.329,-0.088
6.330,-0.088
6.331,-0.090
6.332,-0.090
6.333,-0.085
6.334,-0.085
6.335,-0.088
6.336,-0.090
6.337,-0.085
6.338,-0.080
6.339,-0.080
6.340,-0.085
6.341,-0.085
6.342,-0.083
6.343,-0.078
6.344,-0.075
6.345,-0.075
6.346,-0.078
6.347,-0.080
6.348,-0.080
6.349,-0.080
6.350,-0.083
6.351,-0.083
6.352,-0.080
6.353,-0.073
6.354,-0.068
6.355,-0.068
6.356,-0.073
6.357,-0.073
6.358,-0.075
6.359,-0.078
6.360,-0.083
6.361,-0.083
6.362,-0.078
6.363,-0.073
6.364,-0.073
6.365,-0.073
6.366,-0.073
6.367,-0.068
6.368,-0.065
6.369,-0.065
6.370,-0.070
6.371,-0.070
6.372,-0.068
6.373,-0.063
6.374,-0.063
6.375,-0.065
6.376,-0.065
6.377,-0.063
6.378,-0.060
6.379,-0.060
6.380,-0.065
6.381,-0.068
6.382,-0.068
6.383,-0.065
6.384,-0.065
6.385,-0.065
6.386,-0.063
6.387,-0.058
6.388,-0.053
6.389,-0.055
6.390,-0.060
6.391,-0.060
6.392,-0.058
6.393,-0.058
6.394,-0.060
6.395,-0.063
6.396,-0.060
6.397,-0.058
6.398,-0.063
6.399,-0.068
6.400,-0.065
6.401,-0.058
6.402,-0.055
6.403,-0.060
6.404,-0.063
6.405,-0.063
6.406,-0.063
6.407,-0.065
6.408,-0.068
6.409,-0.065
6.410,-0.060
6.411,-0.063
6.412,-0.068
6.413,-0.068
6.414,-0.063
6.415,-0.058
6.416,-0.058
6.417,-0.063
6.418,-0.065
6.419,-0.065
6.420,-0.065
6.421,-0.068
6.422,-0.070
6.423,-0.070
6.424,-0.065
6.425,-0.063
6.426,-0.065
6.427,-0.073
6.428,-0.075
6.429,-0.078
6.430,-0.078
6.431,-0.080
6.432,-0.080
6.433,-0.078
6.434,-0.075
6.435,-0.078
6.436,-0.080
6.437,-0.083
6.438,-0.085
6.439,-0.085
6.440,-0.083
6.441,-0.078
6.442,-0.078
6.443,-0.083
6.444,-0.088
6.445,-0.090
6.446,-0.090
6.447,-0.088
6.448,-0.085
6.449,-0.083
6.450,-0.083
6.451,-0.088
6.452,-0.090
6.453,-0.090
6.454,-0.088
6.455,-0.088
6.456,-0.090
6.457,-0.090
6.458,-0.088
6.459,-0.088
6.460,-0.093
6.461,-0.095
6.462,-0.095
6.463,-0.093
6.464,-0.093
6.465,-0.093
6.466,-0.095
6.467,-0.095
6.468,-0.098
6.469,-0.100
6.470,-0.105
6.471,-0.105
6.472,-0.100
6.473,-0.090
6.474,-0.088
6.475,-0.095
6.476,-0.103
6.477,-0.098
6.478,-0.090
6.479,-0.090
6.480,-0.100
6.481,-0.110
6.482,-0.110
6.483,-0.105
6.484,-0.105
6.485,-0.105
6.486,-0.103
6.487,-0.098
6.488,-0.098
6.489,-0.100
6.490,-0.103
6.491,-0.103
6.492,-0.103
6.493,-0.103
6.494,-0.103
6.495,-0.103
6.496,-0.100
6.497,-0.095
6.498,-0.090
6.499,-0.088
6.500,-0.085
6.501,-0.078
6.502,-0.068
6.503,-0.063
6.504,-0.058
6.505,-0.048
6.506,-0.038
6.507,-0.033
6.508,-0.035
6.509,-0.040
6.510,-0.043
6.511,-0.045
6.512,-0.053
6.513,-0.055
6.514,-0.055
6.515,-0.053
6.516,-0.050
6.517,-0.048
6.518,-0.045
6.519,-0.040
6.520,-0.033
6.521,-0.018
6.522,0.000
6.523,0.018
6.524,0.025
6.525,0.028
6.526,0.028
6.527,0.025
6.528,0.023
6.529,0.028
6.530,0.038
6.531,0.045
6.532,0.045
6.533,0.040
6.534,0.040
6.535,0.043
6.536,0.038
6.537,0.033
6.538,0.038
6.539,0.048
6.540,0.055
6.541,0.053
6.542,0.050
6.543,0.050
6.544,0.050
6.545,0.048
6.546,0.043
6.547,0.040
6.548,0.035
6.549,0.030
6.550,0.025
6.551,0.023
6.552,0.018
6.553,0.013
6.554,0.013
6.555,0.010
6.556,0.003
6.557,-0.015
6.558,-0.028
6.559,-0.038
6.560,-0.043
6.561,-0.055
6.562,-0.065
6.563,-0.075
6.564,-0.078
6.565,-0.090
6.566,-0.095
6.567,-0.108
6.568,-0.110
6.569,-0.120
6.570,-0.120
6.571,-0.128
6.572,-0.128
6.573,-0.143
6.574,-0.143
6.575,-0.143
6.576,-0.133
6.577,-0.138
6.578,-0.140
6.579,-0.145
6.580,-0.138
6.581,-0.135
6.582,-0.133
6.583,-0.133
6.584,-0.133
6.585,-0.138
6.586,-0.143
6.587,-0.143
6.588,-0.140
6.589,-0.143
6.590,-0.153
6.591,-0.158
6.592,-0.153
6.593,-0.148
6.594,-0.153
6.595,-0.160
6.596,-0.163
6.597,-0.160
6.598,-0.158
6.599,-0.158
6.600,-0.158
6.601,-0.158
6.602,-0.158
6.603,-0.160
6.604,-0.163
6.605,-0.165
6.606,-0.168
6.607,-0.168
6.608,-0.165
6.609,-0.163
6.610,-0.165
6.611,-0.168
6.612,-0.168
6.613,-0.165
6.614,-0.165
6.615,-0.170
6.616,-0.175
6.617,-0.170
6.618,-0.165
6.619,-0.165
6.620,-0.170
6.621,-0.173
6.622,-0.168
6.623,-0.160
6.624,-0.158
6.625,-0.160
6.626,-0.165
6.627,-0.170
6.628,-0.175
6.629,-0.175
6.630,-0.170
6.631,-0.165
6.632,-0.165
6.633,-0.165
6.634,-0.165
6.635,-0.163
6.636,-0.168
6.637,-0.173
6.638,-0.173
6.639,-0.170
6.640,-0.175
6.641,-0.188
6.642,-0.203
6.643,-0.213
6.644,-0.220
6.645,-0.228
6.646,-0.230
6.647,-0.223
6.648,-0.213
6.649,-0.203
6.650,-0.185
6.651,-0.153
6.652,-0.113
6.653,-0.078
6.654,-0.050
6.655,-0.013
6.656,0.045
6.657,0.118
6.658,0.198
6.659,0.285
6.660,0.380
6.661,0.483
6.662,0.590
6.663,0.700
6.664,0.805
6.665,0.903
6.666,1.000
6.667,1.105
6.668,1.208
6.669,1.280
6.670,1.315
6.671,1.328
6.672,1.343
6.673,1.368
6.674,1.395
6.675,1.400
6.676,1.353
6.677,1.223
6.678,1.005
6.679,0.728
6.680,0.440
6.681,0.175
6.682,-0.038
6.683,-0.185
6.684,-0.263
6.685,-0.283
6.686,-0.278
6.687,-0.268
6.688,-0.260
6.689,-0.253
6.690,-0.248
6.691,-0.250
6.692,-0.258
6.693,-0.265
6.694,-0.270
6.695,-0.280
6.696,-0.293
6.697,-0.295
6.698,-0.280
6.699,-0.250
6.700,-0.218
6.701,-0.193
6.702,-0.170
6.703,-0.153
6.704,-0.143
6.705,-0.140
6.706,-0.135
6.707,-0.128
6.708,-0.113
6.709,-0.103
6.710,-0.098
6.711,-0.098
6.712,-0.095
6.713,-0.093
6.714,-0.090
6.715,-0.088
6.716,-0.088
6.717,-0.090
6.718,-0.095
6.719,-0.098
6.720,-0.100
6.721,-0.105
6.722,-0.108
6.723,-0.108
6.724,-0.103
6.725,-0.100
6.726,-0.098
6.727,-0.098
6.728,-0.093
6.729,-0.093
6.730,-0.095
6.731,-0.098
6.732,-0.090
6.733,-0.085
6.734,-0.085
6.735,-0.090
6.736,-0.090
6.737,-0.085
6.738,-0.083
6.739,-0.085
6.740,-0.085
6.741,-0.080
6.742,-0.075
6.743,-0.078
6.744,-0.080
6.745,-0.080
6.746,-0.075
6.747,-0.078
6.748,-0.078
6.749,-0.075
6.750,-0.070
6.751,-0.070
6.752,-0.073
6.753,-0.078
6.754,-0.073
6.755,-0.065
6.756,-0.063
6.757,-0.065
6.758,-0.068
6.759,-0.065
6.760,-0.060
6.761,-0.058
6.762,-0.060
6.763,-0.063
6.764,-0.063
6.765,-0.055
6.766,-0.055
6.767,-0.053
6.768,-0.055
6.769,-0.048
6.770,-0.048
6.771,-0.043
6.772,-0.048
6.773,-0.045
6.774,-0.048
6.775,-0.043
6.776,-0.048
6.777,-0.045
6.778,-0.048
6.779,-0.040
6.780,-0.040
6.781,-0.038
6.782,-0.043
6.783,-0.043
6.784,-0.038
6.785,-0.035
6.786,-0.038
6.787,-0.045
6.788,-0.045
6.789,-0.043
6.790,-0.035
6.791,-0.030
6.792,-0.023
6.793,-0.023
6.794,-0.023
6.795,-0.028
6.796,-0.025
6.797,-0.023
6.798,-0.020
6.799,-0.023
6.800,-0.023
6.801,-0.023
6.802,-0.018
6.803,-0.018
6.804,-0.015
6.805,-0.015
6.806,-0.013
6.807,-0.013
6.808,-0.010
6.809,-0.005
6.810,0.000
6.811,0.000
6.812,0.000
6.813,0.003
6.814,0.005
6.815,0.003
6.816,0.003
6.817,0.003
6.818,0.008
6.819,0.010
6.820,0.010
6.821,0.010
6.822,0.010
6.823,0.013
6.824,0.018
6.825,0.020
6.826,0.018
6.827,0.013
6.828,0.015
6.829,0.023
6.830,0.033
6.831,0.033
6.832,0.033
6.833,0.035
6.834,0.043
6.835,0.045
6.836,0.043
6.837,0.040
6.838,0.043
6.839,0.045
6.840,0.048
6.841,0.048
6.842,0.045
6.843,0.043
6.844,0.045
6.845,0.053
6.846,0.060
6.847,0.063
6.848,0.060
6.849,0.063
6.850,0.068
6.851,0.073
6.852,0.075
6.853,0.075
6.854,0.078
6.855,0.078
6.856,0.075
6.857,0.073
6.858,0.075
6.859,0.080
6.860,0.085
6.861,0.085
6.862,0.083
6.863,0.080
6.864,0.083
6.865,0.088
6.866,0.090
6.867,0.090
6.868,0.090
6.869,0.098
6.870,0.105
6.871,0.108
6.872,0.105
6.873,0.103
6.874,0.105
6.875,0.110
6.876,0.113
6.877,0.115
6.878,0.115
6.879,0.115
6.880,0.115
6.881,0.118
6.882,0.123
6.883,0.128
6.884,0.128
6.885,0.128
6.886,0.128
6.887,0.128
6.888,0.125
6.889,0.123
6.890,0.125
6.891,0.130
6.892,0.135
6.893,0.135
6.894,0.135
6.895,0.135
6.896,0.133
6.897,0.133
6.898,0.133
6.899,0.133
6.900,0.133
6.901,0.133
6.902,0.133
6.903,0.130
6.904,0.125
6.905,0.120
6.906,0.118
6.907,0.115
6.908,0.113
6.909,0.110
6.910,0.108
6.911,0.105
6.912,0.098
6.913,0.090
6.914,0.088
6.915,0.090
6.916,0.088
6.917,0.080
6.918,0.070
6.919,0.065
6.920,0.063
6.921,0.063
6.922,0.058
6.923,0.050
6.924,0.045
6.925,0.040
6.926,0.038
6.927,0.035
6.928,0.030
6.929,0.028
6.930,0.020
6.931,0.010
6.932,0.003
6.933,0.000
6.934,0.003
6.935,0.003
6.936,-0.005
6.937,-0.015
6.938,-0.018
6.939,-0.015
6.940,-0.015
6.941,-0.020
6.942,-0.028
6.943,-0.033
6.944,-0.035
6.945,-0.038
6.946,-0.040
6.947,-0.040
6.948,-0.043
6.949,-0.048
6.950,-0.053
6.951,-0.055
6.952,-0.055
6.953,-0.058
6.954,-0.060
6.955,-0.063
6.956,-0.065
6.957,-0.070
6.958,-0.070
6.959,-0.065
6.960,-0.060
6.961,-0.063
6.962,-0.068
6.963,-0.068
6.964,-0.063
6.965,-0.060
6.966,-0.065
6.967,-0.068
6.968,-0.068
6.969,-0.070
6.970,-0.075
6.971,-0.078
6.972,-0.073
6.973,-0.068
6.974,-0.070
6.975,-0.073
6.976,-0.070
6.977,-0.063
6.978,-0.063
6.979,-0.070
6.980,-0.080
6.981,-0.080
6.982,-0.075
6.983,-0.068
6.984,-0.065
6.985,-0.068
6.986,-0.073
6.987,-0.075
6.988,-0.070
6.989,-0.063
6.990,-0.063
6.991,-0.065
6.992,-0.065
6.993,-0.065
6.994,-0.068
6.995,-0.070
6.996,-0.070
6.997,-0.063
6.998,-0.060
6.999,-0.060
7.000,-0.060
7.001,-0.055
7.002,-0.053
7.003,-0.055
7.004,-0.060
7.005,-0.055
7.006,-0.053
7.007,-0.055
7.008,-0.058
7.009,-0.055
7.010,-0.050
7.011,-0.053
7.012,-0.060
7.013,-0.060
7.014,-0.053
7.015,-0.050
7.016,-0.053
7.017,-0.053
7.018,-0.045
7.019,-0.040
7.020,-0.045
7.021,-0.050
7.022,-0.048
7.023,-0.043
7.024,-0.045
7.025,-0.048
7.026,-0.043
7.027,-0.035
7.028,-0.035
7.029,-0.040
7.030,-0.043
7.031,-0.040
7.032,-0.038
7.033,-0.038
7.034,-0.038
7.035,-0.033
7.036,-0.030
7.037,-0.033
7.038,-0.035
7.039,-0.033
7.040,-0.033
7.041,-0.035
7.042,-0.038
7.043,-0.038
7.044,-0.035
7.045,-0.035
7.046,-0.035
7.047,-0.033
7.048,-0.030
7.049,-0.033
7.050,-0.035
7.051,-0.033
7.052,-0.030
7.053,-0.030
7.054,-0.035
7.055,-0.035
7.056,-0.033
7.057,-0.030
7.058,-0.030
7.059,-0.030
7.060,-0.028
7.061,-0.025
7.062,-0.028
7.063,-0.030
7.064,-0.030
7.065,-0.028
7.066,-0.025
7.067,-0.025
7.068,-0.028
7.069,-0.028
7.070,-0.030
7.071,-0.035
7.072,-0.035
7.073,-0.033
7.074,-0.030
7.075,-0.033
7.076,-0.038
7.077,-0.040
7.078,-0.038
7.079,-0.038
7.080,-0.040
7.081,-0.038
7.082,-0.035
7.083,-0.038
7.084,-0.048
7.085,-0.053
7.086,-0.048
7.087,-0.038
7.088,-0.035
7.089,-0.043
7.090,-0.048
7.091,-0.048
7.092,-0.045
7.093,-0.048
7.094,-0.053
7.095,-0.055
7.096,-0.055
7.097,-0.053
7.098,-0.050
7.099,-0.053
7.100,-0.055
7.101,-0.058
7.102,-0.055
7.103,-0.053
7.104,-0.053
7.105,-0.058
7.106,-0.058
7.107,-0.053
7.108,-0.045
7.109,-0.045
7.110,-0.053
7.111,-0.063
7.112,-0.065
7.113,-0.063
7.114,-0.060
7.115,-0.060
7.116,-0.063
7.117,-0.065
7.118,-0.065
7.119,-0.063
7.120,-0.063
7.121,-0.065
7.122,-0.068
7.123,-0.070
7.124,-0.070
7.125,-0.070
7.126,-0.068
7.127,-0.068
7.128,-0.070
7.129,-0.075
7.130,-0.075
7.131,-0.073
7.132,-0.073
7.133,-0.078
7.134,-0.080
7.135,-0.075
7.136,-0.070
7.137,-0.070
7.138,-0.075
7.139,-0.078
7.140,-0.073
7.141,-0.068
7.142,-0.070
7.143,-0.075
7.144,-0.080
7.145,-0.083
7.146,-0.083
7.147,-0.080
7.148,-0.075
7.149,-0.075
7.150,-0.078
7.151,-0.080
7.152,-0.078
7.153,-0.075
7.154,-0.075
7.155,-0.078
7.156,-0.080
7.157,-0.078
7.158,-0.073
7.159,-0.070
7.160,-0.075
7.161,-0.080
7.162,-0.085
7.163,-0.088
7.164,-0.088
7.165,-0.085
7.166,-0.080
7.167,-0.075
7.168,-0.070
7.169,-0.068
7.170,-0.063
7.171,-0.055
7.172,-0.045
7.173,-0.038
7.174,-0.033
7.175,-0.028
7.176,-0.025
7.177,-0.025
7.178,-0.025
7.179,-0.018
7.180,-0.010
7.181,-0.008
7.182,-0.015
7.183,-0.023
7.184,-0.023
7.185,-0.018
7.186,-0.015
7.187,-0.013
7.188,-0.010
7.189,-0.008
7.190,-0.010
7.191,-0.008
7.192,0.003
7.193,0.020
7.194,0.033
7.195,0.040
7.196,0.048
7.197,0.055
7.198,0.058
7.199,0.055
7.200,0.053
7.201,0.055
7.202,0.060
7.203,0.065
7.204,0.068
7.205,0.070
7.206,0.065
7.207,0.058
7.208,0.055
7.209,0.060
7.210,0.068
7.211,0.073
7.212,0.075
7.213,0.075
7.214,0.075
7.215,0.073
7.216,0.070
7.217,0.068
7.218,0.065
7.219,0.063
7.220,0.060
7.221,0.060
7.222,0.060
7.223,0.055
7.224,0.043
7.225,0.030
7.226,0.023
7.227,0.015
7.228,0.008
7.229,0.000
7.230,-0.008
7.231,-0.018
7.232,-0.028
7.233,-0.038
7.234,-0.040
7.235,-0.045
7.236,-0.048
7.237,-0.060
7.238,-0.070
7.239,-0.088
7.240,-0.090
7.241,-0.098
7.242,-0.093
7.243,-0.100
7.244,-0.100
7.245,-0.108
7.246,-0.105
7.247,-0.113
7.248,-0.113
7.249,-0.118
7.250,-0.110
7.251,-0.105
7.252,-0.103
7.253,-0.108
7.254,-0.113
7.255,-0.113
7.256,-0.115
7.257,-0.118
7.258,-0.123
7.259,-0.120
7.260,-0.120
7.261,-0.123
7.262,-0.125
7.263,-0.123
7.264,-0.118
7.265,-0.115
7.266,-0.120
7.267,-0.123
7.268,-0.123
7.269,-0.120
7.270,-0.123
7.271,-0.128
7.272,-0.128
7.273,-0.125
7.274,-0.125
7.275,-0.130
7.276,-0.135
7.277,-0.135
7.278,-0.135
7.279,-0.138
7.280,-0.143
7.281,-0.143
7.282,-0.138
7.283,-0.135
7.284,-0.140
7.285,-0.145
7.286,-0.148
7.287,-0.145
7.288,-0.140
7.289,-0.138
7.290,-0.135
7.291,-0.133
7.292,-0.133
7.293,-0.135
7.294,-0.143
7.295,-0.145
7.296,-0.143
7.297,-0.138
7.298,-0.138
7.299,-0.143
7.300,-0.148
7.301,-0.145
7.302,-0.140
7.303,-0.138
7.304,-0.140
7.305,-0.143
7.306,-0.145
7.307,-0.148
7.308,-0.150
7.309,-0.145
7.310,-0.140
7.311,-0.143
7.312,-0.158
7.313,-0.175
7.314,-0.193
7.315,-0.203
7.316,-0.210
7.317,-0.210
7.318,-0.205
7.319,-0.195
7.320,-0.180
7.321,-0.160
7.322,-0.140
7.323,-0.113
7.324,-0.078
7.325,-0.035
7.326,0.005
7.327,0.048
7.328,0.103
7.329,0.178
7.330,0.265
7.331,0.355
7.332,0.450
7.333,0.555
7.334,0.665
7.335,0.765
7.336,0.858
7.337,0.958
7.338,1.075
7.339,1.190
7.340,1.273
7.341,1.318
7.342,1.340
7.343,1.353
7.344,1.365
7.345,1.385
7.346,1.408
7.347,1.393
7.348,1.295
7.349,1.093
7.350,0.818
7.351,0.528
7.352,0.268
7.353,0.053
7.354,-0.113
7.355,-0.218
7.356,-0.260
7.357,-0.263
7.358,-0.253
7.359,-0.245
7.360,-0.240
7.361,-0.240
7.362,-0.243
7.363,-0.250
7.364,-0.258
7.365,-0.258
7.366,-0.258
7.367,-0.263
7.368,-0.268
7.369,-0.263
7.370,-0.243
7.371,-0.213
7.372,-0.185
7.373,-0.163
7.374,-0.143
7.375,-0.125
7.376,-0.115
7.377,-0.113
7.378,-0.110
7.379,-0.108
7.380,-0.100
7.381,-0.090
7.382,-0.080
7.383,-0.073
7.384,-0.068
7.385,-0.068
7.386,-0.068
7.387,-0.068
7.388,-0.070
7.389,-0.075
7.390,-0.078
7.391,-0.080
7.392,-0.080
7.393,-0.085
7.394,-0.090
7.395,-0.088
7.396,-0.080
7.397,-0.073
7.398,-0.068
7.399,-0.068
7.400,-0.065
7.401,-0.063
7.402,-0.060
7.403,-0.060
7.404,-0.060
7.405,-0.063
7.406,-0.063
7.407,-0.063
7.408,-0.063
7.409,-0.068
7.410,-0.070
7.411,-0.070
7.412,-0.060
7.413,-0.053
7.414,-0.053
7.415,-0.060
7.416,-0.063
7.417,-0.060
7.418,-0.055
7.419,-0.055
7.420,-0.055
7.421,-0.058
7.422,-0.055
7.423,-0.055
7.424,-0.055
7.425,-0.058
7.426,-0.055
7.427,-0.055
7.428,-0.055
7.429,-0.058
7.430,-0.058
7.431,-0.050
7.432,-0.043
7.433,-0.035
7.434,-0.035
7.435,-0.033
7.436,-0.035
7.437,-0.035
7.438,-0.035
7.439,-0.028
7.440,-0.025
7.441,-0.023
7.442,-0.033
7.443,-0.030
7.444,-0.028
7.445,-0.018
7.446,-0.028
7.447,-0.033
7.448,-0.038
7.449,-0.025
7.450,-0.020
7.451,-0.015
7.452,-0.020
7.453,-0.020
7.454,-0.018
7.455,-0.015
7.456,-0.010
7.457,-0.010
7.458,-0.010
7.459,-0.013
7.460,-0.013
7.461,-0.013
7.462,-0.013
7.463,-0.015
7.464,-0.013
7.465,-0.008
7.466,0.003
7.467,0.005
7.468,0.010
7.469,0.010
7.470,0.010
7.471,0.003
7.472,0.000
7.473,-0.003
7.474,0.003
7.475,0.005
7.476,0.005
7.477,0.003
7.478,0.003
7.479,0.003
7.480,0.008
7.481,0.010
7.482,0.013
7.483,0.010
7.484,0.010
7.485,0.015
7.486,0.020
7.487,0.023
7.488,0.023
7.489,0.025
7.490,0.028
7.491,0.028
7.492,0.028
7.493,0.028
7.494,0.028
7.495,0.025
7.496,0.025
7.497,0.025
7.498,0.030
7.499,0.033
7.500,0.035
7.501,0.038
7.502,0.040
7.503,0.040
7.504,0.043
7.505,0.048
7.506,0.053
7.507,0.055
7.508,0.055
7.509,0.055
7.510,0.058
7.511,0.060
7.512,0.060
7.513,0.058
7.514,0.060
7.515,0.065
7.516,0.073
7.517,0.078
7.518,0.078
7.519,0.073
7.520,0.070
7.521,0.073
7.522,0.078
7.523,0.083
7.524,0.083
7.525,0.083
7.526,0.085
7.527,0.088
7.528,0.090
7.529,0.093
7.530,0.098
7.531,0.100
7.532,0.095
7.533,0.090
7.534,0.093
7.535,0.103
7.536,0.110
7.537,0.110
7.538,0.103
7.539,0.098
7.540,0.103
7.541,0.110
7.542,0.113
7.543,0.108
7.544,0.103
7.545,0.105
7.546,0.110
7.547,0.115
7.548,0.118
7.549,0.120
7.550,0.125
7.551,0.130
7.552,0.133
7.553,0.133
7.554,0.130
7.555,0.130
7.556,0.130
7.557,0.135
7.558,0.140
7.559,0.143
7.560,0.140
7.561,0.135
7.562,0.138
7.563,0.148
7.564,0.153
7.565,0.150
7.566,0.143
7.567,0.140
7.568,0.143
7.569,0.145
7.570,0.145
7.571,0.143
7.572,0.140
7.573,0.143
7.574,0.143
7.575,0.143
7.576,0.143
7.577,0.140
7.578,0.133
7.579,0.123
7.580,0.115
7.581,0.113
7.582,0.113
7.583,0.113
7.584,0.108
7.585,0.103
7.586,0.100
7.587,0.098
7.588,0.093
7.589,0.088
7.590,0.080
7.591,0.075
7.592,0.073
7.593,0.068
7.594,0.058
7.595,0.045
7.596,0.035
7.597,0.033
7.598,0.033
7.599,0.030
7.600,0.025
7.601,0.020
7.602,0.015
7.603,0.015
7.604,0.013
7.605,0.008
7.606,0.000
7.607,-0.008
7.608,-0.015
7.609,-0.020
7.610,-0.020
7.611,-0.018
7.612,-0.018
7.613,-0.020
7.614,-0.028
7.615,-0.030
7.616,-0.030
7.617,-0.033
7.618,-0.040
7.619,-0.048
7.620,-0.048
7.621,-0.043
7.622,-0.045
7.623,-0.053
7.624,-0.058
7.625,-0.058
7.626,-0.058
7.627,-0.060
7.628,-0.065
7.629,-0.063
7.630,-0.060
7.631,-0.063
7.632,-0.070
7.633,-0.070
7.634,-0.065
7.635,-0.060
7.636,-0.063
7.637,-0.065
7.638,-0.065
7.639,-0.063
7.640,-0.063
7.641,-0.063
7.642,-0.063
7.643,-0.063
7.644,-0.068
7.645,-0.075
7.646,-0.078
7.647,-0.075
7.648,-0.073
7.649,-0.073
7.650,-0.075
7.651,-0.073
7.652,-0.073
7.653,-0.075
7.654,-0.078
7.655,-0.073
7.656,-0.068
7.657,-0.065
7.658,-0.065
7.659,-0.065
7.660,-0.065
7.661,-0.070
7.662,-0.075
7.663,-0.070
7.664,-0.063
7.665,-0.060
7.666,-0.073
7.667,-0.080
7.668,-0.075
7.669,-0.058
7.670,-0.050
7.671,-0.055
7.672,-0.063
7.673,-0.063
7.674,-0.060
7.675,-0.058
7.676,-0.058
7.677,-0.053
7.678,-0.050
7.679,-0.050
7.680,-0.053
7.681,-0.055
7.682,-0.058
7.683,-0.060
7.684,-0.060
7.685,-0.058
7.686,-0.058
7.687,-0.060
7.688,-0.063
7.689,-0.058
7.690,-0.053
7.691,-0.050
7.692,-0.055
7.693,-0.058
7.694,-0.055
7.695,-0.055
7.696,-0.058
7.697,-0.055
7.698,-0.050
7.699,-0.045
7.700,-0.050
7.701,-0.055
7.702,-0.053
7.703,-0.043
7.704,-0.035
7.705,-0.038
7.706,-0.043
7.707,-0.043
7.708,-0.040
7.709,-0.038
7.710,-0.040
7.711,-0.040
7.712,-0.040
7.713,-0.040
7.714,-0.043
7.715,-0.045
7.716,-0.043
7.717,-0.038
7.718,-0.035
7.719,-0.038
7.720,-0.043
7.721,-0.040
7.722,-0.035
7.723,-0.033
7.724,-0.035
7.725,-0.040
7.726,-0.040
7.727,-0.035
7.728,-0.033
7.729,-0.035
7.730,-0.040
7.731,-0.048
7.732,-0.050
7.733,-0.048
7.734,-0.043
7.735,-0.038
7.736,-0.035
7.737,-0.035
7.738,-0.038
7.739,-0.040
7.740,-0.045
7.741,-0.048
7.742,-0.045
7.743,-0.043
7.744,-0.043
7.745,-0.043
7.746,-0.043
7.747,-0.045
7.748,-0.045
7.749,-0.043
7.750,-0.038
7.751,-0.035
7.752,-0.040
7.753,-0.048
7.754,-0.048
7.755,-0.045
7.756,-0.045
7.757,-0.048
7.758,-0.050
7.759,-0.048
7.760,-0.048
7.761,-0.050
7.762,-0.050
7.763,-0.050
7.764,-0.053
7.765,-0.060
7.766,-0.063
7.767,-0.060
7.768,-0.055
7.769,-0.055
7.770,-0.060
7.771,-0.065
7.772,-0.068
7.773,-0.070
7.774,-0.068
7.775,-0.063
7.776,-0.058
7.777,-0.058
7.778,-0.060
7.779,-0.063
7.780,-0.063
7.781,-0.065
7.782,-0.065
7.783,-0.065
7.784,-0.065
7.785,-0.065
7.786,-0.063
7.787,-0.060
7.788,-0.063
7.789,-0.070
7.790,-0.075
7.791,-0.078
7.792,-0.075
7.793,-0.075
7.794,-0.075
7.795,-0.078
7.796,-0.078
7.797,-0.080
7.798,-0.080
7.799,-0.078
7.800,-0.073
7.801,-0.068
7.802,-0.065
7.803,-0.063
7.804,-0.063
7.805,-0.065
7.806,-0.070
7.807,-0.070
7.808,-0.068
7.809,-0.068
7.810,-0.073
7.811,-0.078
7.812,-0.083
7.813,-0.085
7.814,-0.085
7.815,-0.080
7.816,-0.078
7.817,-0.080
7.818,-0.088
7.819,-0.090
7.820,-0.088
7.821,-0.080
7.822,-0.078
7.823,-0.080
7.824,-0.083
7.825,-0.083
7.826,-0.083
7.827,-0.083
7.828,-0.083
7.829,-0.083
7.830,-0.078
7.831,-0.073
7.832,-0.073
7.833,-0.080
7.834,-0.090
7.835,-0.090
7.836,-0.083
7.837,-0.075
7.838,-0.073
7.839,-0.070
7.840,-0.063
7.841,-0.055
7.842,-0.055
7.843,-0.055
7.844,-0.050
7.845,-0.038
7.846,-0.028
7.847,-0.028
7.848,-0.030
7.849,-0.028
7.850,-0.023
7.851,-0.018
7.852,-0.020
7.853,-0.025
7.854,-0.033
7.855,-0.038
7.856,-0.038
7.857,-0.030
7.858,-0.020
7.859,-0.013
7.860,-0.010
7.861,-0.010
7.862,-0.008
7.863,-0.003
7.864,0.003
7.865,0.015
7.866,0.033
7.867,0.050
7.868,0.060
7.869,0.058
7.870,0.050
7.871,0.053
7.872,0.063
7.873,0.073
7.874,0.073
7.875,0.068
7.876,0.060
7.877,0.058
7.878,0.055
7.879,0.055
7.880,0.058
7.881,0.063
7.882,0.070
7.883,0.075
7.884,0.078
7.885,0.078
7.886,0.073
7.887,0.068
7.888,0.063
7.889,0.060
7.890,0.060
7.891,0.063
7.892,0.063
7.893,0.055
7.894,0.043
7.895,0.035
7.896,0.030
7.897,0.023
7.898,0.010
7.899,-0.003
7.900,-0.008
7.901,-0.015
7.902,-0.025
7.903,-0.038
7.904,-0.043
7.905,-0.053
7.906,-0.060
7.907,-0.075
7.908,-0.083
7.909,-0.095
7.910,-0.100
7.911,-0.113
7.912,-0.113
7.913,-0.115
7.914,-0.110
7.915,-0.115
7.916,-0.113
7.917,-0.120
7.918,-0.118
7.919,-0.120
7.920,-0.113
7.921,-0.110
7.922,-0.108
7.923,-0.110
7.924,-0.113
7.925,-0.113
7.926,-0.115
7.927,-0.118
7.928,-0.120
7.929,-0.120
7.930,-0.123
7.931,-0.125
7.932,-0.128
7.933,-0.125
7.934,-0.128
7.935,-0.128
7.936,-0.125
7.937,-0.123
7.938,-0.130
7.939,-0.140
7.940,-0.143
7.941,-0.130
7.942,-0.125
7.943,-0.133
7.944,-0.143
7.945,-0.143
7.946,-0.138
7.947,-0.140
7.948,-0.148
7.949,-0.148
7.950,-0.140
7.951,-0.140
7.952,-0.145
7.953,-0.148
7.954,-0.145
7.955,-0.143
7.956,-0.143
7.957,-0.143
7.958,-0.143
7.959,-0.145
7.960,-0.153
7.961,-0.155
7.962,-0.153
7.963,-0.153
7.964,-0.153
7.965,-0.148
7.966,-0.138
7.967,-0.133
7.968,-0.138
7.969,-0.140
7.970,-0.138
7.971,-0.138
7.972,-0.145
7.973,-0.148
7.974,-0.143
7.975,-0.135
7.976,-0.140
7.977,-0.148
7.978,-0.153
7.979,-0.153
7.980,-0.155
7.981,-0.160
7.982,-0.170
7.983,-0.180
7.984,-0.193
7.985,-0.203
7.986,-0.208
7.987,-0.208
7.988,-0.205
7.989,-0.198
7.990,-0.183
7.991,-0.165
7.992,-0.148
7.993,-0.120
7.994,-0.083
7.995,-0.043
7.996,-0.003
7.997,0.048
7.998,0.118
7.999,0.203
8.000,0.293
8.001,0.390
8.002,0.503
8.003,0.625
8.004,0.735
8.005,0.828
8.006,0.915
8.007,1.018
8.008,1.128
8.009,1.225
8.010,1.293
8.011,1.328
8.012,1.345
8.013,1.355
8.014,1.368
8.015,1.390
8.016,1.408
8.017,1.385
8.018,1.275
8.019,1.053
8.020,0.748
8.021,0.430
8.022,0.155
8.023,-0.065
8.024,-0.228
8.025,-0.325
8.026,-0.358
8.027,-0.350
8.028,-0.338
8.029,-0.330
8.030,-0.318
8.031,-0.298
8.032,-0.288
8.033,-0.293
8.034,-0.293
8.035,-0.283
8.036,-0.275
8.037,-0.278
8.038,-0.280
8.039,-0.270
8.040,-0.250
8.041,-0.233
8.042,-0.208
8.043,-0.175
8.044,-0.143
8.045,-0.128
8.046,-0.125
8.047,-0.123
8.048,-0.113
8.049,-0.108
8.050,-0.103
8.051,-0.095
8.052,-0.080
8.053,-0.073
8.054,-0.075
8.055,-0.078
8.056,-0.075
8.057,-0.073
8.058,-0.078
8.059,-0.085
8.060,-0.090
8.061,-0.093
8.062,-0.093
8.063,-0.093
8.064,-0.088
8.065,-0.083
8.066,-0.078
8.067,-0.078
8.068,-0.075
8.069,-0.075
8.070,-0.073
8.071,-0.070
8.072,-0.070
8.073,-0.075
8.074,-0.078
8.075,-0.078
8.076,-0.070
8.077,-0.068
8.078,-0.073
8.079,-0.078
8.080,-0.078
8.081,-0.075
8.082,-0.073
8.083,-0.073
8.084,-0.070
8.085,-0.070
8.086,-0.068
8.087,-0.065
8.088,-0.058
8.089,-0.055
8.090,-0.060
8.091,-0.068
8.092,-0.068
8.093,-0.065
8.094,-0.063
8.095,-0.065
8.096,-0.063
8.097,-0.058
8.098,-0.055
8.099,-0.055
8.100,-0.058
8.101,-0.055
8.102,-0.050
8.103,-0.043
8.104,-0.040
8.105,-0.035
8.106,-0.038
8.107,-0.038
8.108,-0.045
8.109,-0.045
8.110,-0.045
8.111,-0.035
8.112,-0.038
8.113,-0.038
8.114,-0.048
8.115,-0.043
8.116,-0.043
8.117,-0.035
8.118,-0.035
8.119,-0.025
8.120,-0.025
8.121,-0.020
8.122,-0.025
8.123,-0.025
8.124,-0.023
8.125,-0.023
8.126,-0.023
8.127,-0.025
8.128,-0.020
8.129,-0.018
8.130,-0.015
8.131,-0.015
8.132,-0.013
8.133,-0.015
8.134,-0.015
8.135,-0.015
8.136,-0.005
8.137,0.003
8.138,0.005
8.139,0.000
8.140,0.000
8.141,0.003
8.142,0.003
8.143,-0.005
8.144,-0.005
8.145,0.000
8.146,0.010
8.147,0.010
8.148,0.005
8.149,0.000
8.150,0.005
8.151,0.013
8.152,0.020
8.153,0.020
8.154,0.020
8.155,0.018
8.156,0.018
8.157,0.020
8.158,0.023
8.159,0.023
8.160,0.025
8.161,0.028
8.162,0.033
8.163,0.033
8.164,0.028
8.165,0.023
8.166,0.023
8.167,0.023
8.168,0.028
8.169,0.035
8.170,0.043
8.171,0.048
8.172,0.048
8.173,0.045
8.174,0.043
8.175,0.043
8.176,0.045
8.177,0.050
8.178,0.055
8.179,0.060
8.180,0.058
8.181,0.053
8.182,0.053
8.183,0.058
8.184,0.065
8.185,0.065
8.186,0.065
8.187,0.070
8.188,0.083
8.189,0.093
8.190,0.095
8.191,0.093
8.192,0.090
8.193,0.090
8.194,0.090
8.195,0.093
8.196,0.098
8.197,0.103
8.198,0.100
8.199,0.093
8.200,0.088
8.201,0.093
8.202,0.103
8.203,0.108
8.204,0.105
8.205,0.103
8.206,0.108
8.207,0.115
8.208,0.120
8.209,0.123
8.210,0.123
8.211,0.123
8.212,0.120
8.213,0.115
8.214,0.113
8.215,0.113
8.216,0.118
8.217,0.125
8.218,0.133
8.219,0.138
8.220,0.140
8.221,0.143
8.222,0.143
8.223,0.140
8.224,0.138
8.225,0.138
8.226,0.140
8.227,0.143
8.228,0.140
8.229,0.138
8.230,0.138
8.231,0.140
8.232,0.143
8.233,0.145
8.234,0.145
8.235,0.145
8.236,0.143
8.237,0.143
8.238,0.145
8.239,0.145
8.240,0.145
8.241,0.148
8.242,0.150
8.243,0.150
8.244,0.143
8.245,0.138
8.246,0.133
8.247,0.128
8.248,0.120
8.249,0.118
8.250,0.118
8.251,0.120
8.252,0.115
8.253,0.110
8.254,0.108
8.255,0.108
8.256,0.103
8.257,0.095
8.258,0.093
8.259,0.093
8.260,0.090
8.261,0.083
8.262,0.075
8.263,0.073
8.264,0.073
8.265,0.070
8.266,0.063
8.267,0.053
8.268,0.043
8.269,0.038
8.270,0.033
8.271,0.025
8.272,0.018
8.273,0.015
8.274,0.015
8.275,0.015
8.276,0.010
8.277,0.003
8.278,-0.003
8.279,-0.008
8.280,-0.013
8.281,-0.015
8.282,-0.015
8.283,-0.015
8.284,-0.020
8.285,-0.028
8.286,-0.030
8.287,-0.028
8.288,-0.028
8.289,-0.035
8.290,-0.040
8.291,-0.040
8.292,-0.038
8.293,-0.038
8.294,-0.043
8.295,-0.045
8.296,-0.050
8.297,-0.053
8.298,-0.053
8.299,-0.053
8.300,-0.055
8.301,-0.058
8.302,-0.058
8.303,-0.055
8.304,-0.060
8.305,-0.065
8.306,-0.068
8.307,-0.063
8.308,-0.063
8.309,-0.065
8.310,-0.068
8.311,-0.063
8.312,-0.058
8.313,-0.060
8.314,-0.068
8.315,-0.070
8.316,-0.070
8.317,-0.073
8.318,-0.073
8.319,-0.068
8.320,-0.065
8.321,-0.065
8.322,-0.070
8.323,-0.070
8.324,-0.070
8.325,-0.073
8.326,-0.075
8.327,-0.070
8.328,-0.065
8.329,-0.063
8.330,-0.068
8.331,-0.070
8.332,-0.070
8.333,-0.070
8.334,-0.073
8.335,-0.070
8.336,-0.065
8.337,-0.063
8.338,-0.063
8.339,-0.063
8.340,-0.063
8.341,-0.060
8.342,-0.060
8.343,-0.055
8.344,-0.050
8.345,-0.048
8.346,-0.053
8.347,-0.055
8.348,-0.055
8.349,-0.053
8.350,-0.050
8.351,-0.045
8.352,-0.043
8.353,-0.043
8.354,-0.048
8.355,-0.045
8.356,-0.040
8.357,-0.035
8.358,-0.038
8.359,-0.040
8.360,-0.040
8.361,-0.038
8.362,-0.040
8.363,-0.045
8.364,-0.050
8.365,-0.048
8.366,-0.043
8.367,-0.038
8.368,-0.035
8.369,-0.035
8.370,-0.038
8.371,-0.040
8.372,-0.045
8.373,-0.050
8.374,-0.050
8.375,-0.045
8.376,-0.040
8.377,-0.038
8.378,-0.038
8.379,-0.035
8.380,-0.033
8.381,-0.035
8.382,-0.038
8.383,-0.035
8.384,-0.030
8.385,-0.030
8.386,-0.038
8.387,-0.040
8.388,-0.035
8.389,-0.033
8.390,-0.033
8.391,-0.033
8.392,-0.030
8.393,-0.028
8.394,-0.033
8.395,-0.038
8.396,-0.035
8.397,-0.030
8.398,-0.030
8.399,-0.035
8.400,-0.038
8.401,-0.033
8.402,-0.028
8.403,-0.030
8.404,-0.035
8.405,-0.038
8.406,-0.035
8.407,-0.035
8.408,-0.040
8.409,-0.043
8.410,-0.040
8.411,-0.038
8.412,-0.040
8.413,-0.048
8.414,-0.050
8.415,-0.045
8.416,-0.038
8.417,-0.038
8.418,-0.038
8.419,-0.038
8.420,-0.038
8.421,-0.040
8.422,-0.043
8.423,-0.040
8.424,-0.038
8.425,-0.040
8.426,-0.048
8.427,-0.053
8.428,-0.050
8.429,-0.050
8.430,-0.053
8.431,-0.058
8.432,-0.058
8.433,-0.055
8.434,-0.050
8.435,-0.050
8.436,-0.050
8.437,-0.053
8.438,-0.053
8.439,-0.055
8.440,-0.055
8.441,-0.055
8.442,-0.053
8.443,-0.053
8.444,-0.053
8.445,-0.058
8.446,-0.065
8.447,-0.070
8.448,-0.070
8.449,-0.073
8.450,-0.073
8.451,-0.070
8.452,-0.065
8.453,-0.060
8.454,-0.063
8.455,-0.068
8.456,-0.068
8.457,-0.065
8.458,-0.063
8.459,-0.065
8.460,-0.068
8.461,-0.070
8.462,-0.070
8.463,-0.070
8.464,-0.073
8.465,-0.075
8.466,-0.078
8.467,-0.080
8.468,-0.080
8.469,-0.075
8.470,-0.073
8.471,-0.075
8.472,-0.078
8.473,-0.078
8.474,-0.073
8.475,-0.073
8.476,-0.078
8.477,-0.080
8.478,-0.075
8.479,-0.068
8.480,-0.070
8.481,-0.078
8.482,-0.083
8.483,-0.080
8.484,-0.078
8.485,-0.078
8.486,-0.080
8.487,-0.075
8.488,-0.070
8.489,-0.068
8.490,-0.068
8.491,-0.065
8.492,-0.058
8.493,-0.050
8.494,-0.043
8.495,-0.033
8.496,-0.020
8.497,-0.013
8.498,-0.015
8.499,-0.018
8.500,-0.018
8.501,-0.015
8.502,-0.018
8.503,-0.025
8.504,-0.030
8.505,-0.030
8.506,-0.028
8.507,-0.023
8.508,-0.015
8.509,-0.005
8.510,-0.003
8.511,-0.005
8.512,-0.005
8.513,0.005
8.514,0.020
8.515,0.030
8.516,0.033
8.517,0.035
8.518,0.040
8.519,0.048
8.520,0.053
8.521,0.058
8.522,0.065
8.523,0.078
8.524,0.083
8.525,0.080
8.526,0.073
8.527,0.068
8.528,0.065
8.529,0.068
8.530,0.070
8.531,0.075
8.532,0.078
8.533,0.078
8.534,0.078
8.535,0.080
8.536,0.080
8.537,0.080
8.538,0.075
8.539,0.068
8.540,0.055
8.541,0.048
8.542,0.048
8.543,0.050
8.544,0.048
8.545,0.040
8.546,0.035
8.547,0.030
8.548,0.025
8.549,0.013
8.550,0.000
8.551,-0.013
8.552,-0.020
8.553,-0.028
8.554,-0.030
8.555,-0.040
8.556,-0.050
8.557,-0.070
8.558,-0.080
8.559,-0.090
8.560,-0.090
8.561,-0.100
8.562,-0.100
8.563,-0.108
8.564,-0.103
8.565,-0.108
8.566,-0.105
8.567,-0.113
8.568,-0.113
8.569,-0.118
8.570,-0.110
8.571,-0.105
8.572,-0.100
8.573,-0.105
8.574,-0.113
8.575,-0.115
8.576,-0.113
8.577,-0.110
8.578,-0.113
8.579,-0.118
8.580,-0.123
8.581,-0.123
8.582,-0.125
8.583,-0.125
8.584,-0.125
8.585,-0.123
8.586,-0.123
8.587,-0.123
8.588,-0.123
8.589,-0.123
8.590,-0.128
8.591,-0.133
8.592,-0.135
8.593,-0.135
8.594,-0.135
8.595,-0.138
8.596,-0.143
8.597,-0.143
8.598,-0.138
8.599,-0.135
8.600,-0.140
8.601,-0.148
8.602,-0.150
8.603,-0.145
8.604,-0.140
8.605,-0.138
8.606,-0.143
8.607,-0.148
8.608,-0.148
8.609,-0.143
8.610,-0.138
8.611,-0.135
8.612,-0.140
8.613,-0.145
8.614,-0.145
8.615,-0.143
8.616,-0.143
8.617,-0.143
8.618,-0.143
8.619,-0.145
8.620,-0.148
8.621,-0.148
8.622,-0.143
8.623,-0.135
8.624,-0.133
8.625,-0.138
8.626,-0.145
8.627,-0.148
8.628,-0.148
8.629,-0.148
8.630,-0.153
8.631,-0.163
8.632,-0.180
8.633,-0.195
8.634,-0.203
8.635,-0.205
8.636,-0.208
8.637,-0.205
8.638,-0.198
8.639,-0.183
8.640,-0.168
8.641,-0.150
8.642,-0.123
8.643,-0.083
8.644,-0.043
8.645,-0.005
8.646,0.038
8.647,0.100
8.648,0.178
8.649,0.263
8.650,0.353
8.651,0.458
8.652,0.580
8.653,0.705
8.654,0.813
8.655,0.900
8.656,0.988
8.657,1.090
8.658,1.198
8.659,1.285
8.660,1.330
8.661,1.348
8.662,1.360
8.663,1.378
8.664,1.390
8.665,1.393
8.666,1.385
8.667,1.333
8.668,1.183
8.669,0.918
8.670,0.585
8.671,0.270
8.672,0.023
8.673,-0.158
8.674,-0.278
8.675,-0.345
8.676,-0.365
8.677,-0.358
8.678,-0.345
8.679,-0.330
8.680,-0.315
8.681,-0.303
8.682,-0.293
8.683,-0.288
8.684,-0.285
8.685,-0.285
8.686,-0.288
8.687,-0.285
8.688,-0.270
8.689,-0.245
8.690,-0.215
8.691,-0.185
8.692,-0.158
8.693,-0.138
8.694,-0.125
8.695,-0.120
8.696,-0.115
8.697,-0.113
8.698,-0.110
8.699,-0.108
8.700,-0.098
8.701,-0.088
8.702,-0.078
8.703,-0.075
8.704,-0.073
8.705,-0.073
8.706,-0.073
8.707,-0.078
8.708,-0.083
8.709,-0.088
8.710,-0.088
8.711,-0.090
8.712,-0.090
8.713,-0.093
8.714,-0.093
8.715,-0.090
8.716,-0.085
8.717,-0.083
8.718,-0.083
8.719,-0.083
8.720,-0.078
8.721,-0.075
8.722,-0.075
8.723,-0.080
8.724,-0.083
8.725,-0.080
8.726,-0.075
8.727,-0.075
8.728,-0.078
8.729,-0.078
8.730,-0.075
8.731,-0.075
8.732,-0.078
8.733,-0.080
8.734,-0.078
8.735,-0.073
8.736,-0.065
8.737,-0.065
8.738,-0.063
8.739,-0.063
8.740,-0.060
8.741,-0.060
8.742,-0.060
8.743,-0.058
8.744,-0.055
8.745,-0.055
8.746,-0.058
8.747,-0.063
8.748,-0.070
8.749,-0.073
8.750,-0.070
8.751,-0.060
8.752,-0.053
8.753,-0.048
8.754,-0.048
8.755,-0.045
8.756,-0.045
8.757,-0.040
8.758,-0.038
8.759,-0.033
8.760,-0.038
8.761,-0.038
8.762,-0.043
8.763,-0.038
8.764,-0.038
8.765,-0.033
8.766,-0.038
8.767,-0.030
8.768,-0.030
8.769,-0.023
8.770,-0.028
8.771,-0.028
8.772,-0.028
8.773,-0.023
8.774,-0.018
8.775,-0.020
8.776,-0.025
8.777,-0.028
8.778,-0.020
8.779,-0.015
8.780,-0.013
8.781,-0.018
8.782,-0.015
8.783,-0.013
8.784,-0.008
8.785,-0.013
8.786,-0.013
8.787,-0.010
8.788,-0.003
8.789,0.000
8.790,0.000
8.791,-0.003
8.792,-0.003
8.793,-0.005
8.794,-0.005
8.795,-0.003
8.796,0.003
8.797,0.003
8.798,0.000
8.799,0.000
8.800,0.008
8.801,0.015
8.802,0.015
8.803,0.010
8.804,0.010
8.805,0.018
8.806,0.028
8.807,0.030
8.808,0.030
8.809,0.030
8.810,0.030
8.811,0.028
8.812,0.028
8.813,0.028
8.814,0.033
8.815,0.033
8.816,0.030
8.817,0.030
8.818,0.035
8.819,0.040
8.820,0.043
8.821,0.043
8.822,0.045
8.823,0.053
8.824,0.055
8.825,0.053
8.826,0.050
8.827,0.053
8.828,0.060
8.829,0.065
8.830,0.068
8.831,0.070
8.832,0.073
8.833,0.070
8.834,0.068
8.835,0.068
8.836,0.073
8.837,0.075
8.838,0.075
8.839,0.080
8.840,0.085
8.841,0.085
8.842,0.080
8.843,0.080
8.844,0.090
8.845,0.098
8.846,0.098
8.847,0.095
8.848,0.095
8.849,0.100
8.850,0.100
8.851,0.098
8.852,0.098
8.853,0.098
8.854,0.098
8.855,0.098
8.856,0.100
8.857,0.103
8.858,0.103
8.859,0.103
8.860,0.110
8.861,0.120
8.862,0.125
8.863,0.120
8.864,0.115
8.865,0.115
8.866,0.120
8.867,0.123
8.868,0.123
8.869,0.125
8.870,0.130
8.871,0.133
8.872,0.133
8.873,0.130
8.874,0.130
8.875,0.135
8.876,0.138
8.877,0.140
8.878,0.140
8.879,0.143
8.880,0.145
8.881,0.145
8.882,0.145
8.883,0.148
8.884,0.153
8.885,0.155
8.886,0.153
8.887,0.148
8.888,0.145
8.889,0.145
8.890,0.145
8.891,0.143
8.892,0.140
8.893,0.138
8.894,0.133
8.895,0.128
8.896,0.125
8.897,0.125
8.898,0.123
8.899,0.120
8.900,0.115
8.901,0.113
8.902,0.105
8.903,0.098
8.904,0.093
8.905,0.095
8.906,0.095
8.907,0.090
8.908,0.080
8.909,0.073
8.910,0.065
8.911,0.060
8.912,0.055
8.913,0.055
8.914,0.055
8.915,0.053
8.916,0.045
8.917,0.038
8.918,0.030
8.919,0.028
8.920,0.025
8.921,0.023
8.922,0.020
8.923,0.015
8.924,0.008
8.925,0.003
8.926,-0.003
8.927,-0.008
8.928,-0.013
8.929,-0.015
8.930,-0.015
8.931,-0.018
8.932,-0.023
8.933,-0.028
8.934,-0.028
8.935,-0.025
8.936,-0.028
8.937,-0.030
8.938,-0.035
8.939,-0.038
8.940,-0.043
8.941,-0.043
8.942,-0.043
8.943,-0.040
8.944,-0.043
8.945,-0.045
8.946,-0.050
8.947,-0.055
8.948,-0.060
8.949,-0.060
8.950,-0.058
8.951,-0.055
8.952,-0.058
8.953,-0.058
8.954,-0.055
8.955,-0.053
8.956,-0.058
8.957,-0.063
8.958,-0.065
8.959,-0.063
8.960,-0.063
8.961,-0.063
8.962,-0.063
8.963,-0.060
8.964,-0.063
8.965,-0.065
8.966,-0.065
8.967,-0.060
8.968,-0.060
8.969,-0.065
8.970,-0.068
8.971,-0.065
8.972,-0.060
8.973,-0.060
8.974,-0.065
8.975,-0.065
8.976,-0.063
8.977,-0.060
8.978,-0.060
8.979,-0.063
8.980,-0.063
8.981,-0.060
8.982,-0.058
8.983,-0.058
8.984,-0.060
8.985,-0.063
8.986,-0.063
8.987,-0.058
8.988,-0.053
8.989,-0.048
8.990,-0.048
8.991,-0.045
8.992,-0.045
8.993,-0.045
8.994,-0.048
8.995,-0.048
8.996,-0.048
8.997,-0.048
8.998,-0.050
8.999,-0.048
9.000,-0.043
9.001,-0.040
9.002,-0.045
9.003,-0.048
9.004,-0.045
9.005,-0.043
9.006,-0.043
9.007,-0.043
9.008,-0.040
9.009,-0.033
9.010,-0.030
9.011,-0.035
9.012,-0.040
9.013,-0.040
9.014,-0.035
9.015,-0.033
9.016,-0.038
9.017,-0.040
9.018,-0.038
9.019,-0.035
9.020,-0.035
9.021,-0.038
9.022,-0.035
9.023,-0.033
9.024,-0.035
9.025,-0.040
9.026,-0.040
9.027,-0.035
9.028,-0.033
9.029,-0.033
9.030,-0.033
9.031,-0.033
9.032,-0.035
9.033,-0.038
9.034,-0.038
9.035,-0.030
9.036,-0.028
9.037,-0.030
9.038,-0.035
9.039,-0.033
9.040,-0.028
9.041,-0.028
9.042,-0.033
9.043,-0.038
9.044,-0.035
9.045,-0.030
9.046,-0.028
9.047,-0.030
9.048,-0.035
9.049,-0.038
9.050,-0.038
9.051,-0.035
9.052,-0.035
9.053,-0.035
9.054,-0.035
9.055,-0.033
9.056,-0.033
9.057,-0.033
9.058,-0.035
9.059,-0.035
9.060,-0.035
9.061,-0.038
9.062,-0.040
9.063,-0.043
9.064,-0.040
9.065,-0.035
9.066,-0.033
9.067,-0.038
9.068,-0.043
9.069,-0.048
9.070,-0.045
9.071,-0.045
9.072,-0.045
9.073,-0.048
9.074,-0.045
9.075,-0.043
9.076,-0.043
9.077,-0.048
9.078,-0.050
9.079,-0.055
9.080,-0.055
9.081,-0.053
9.082,-0.043
9.083,-0.040
9.084,-0.045
9.085,-0.055
9.086,-0.055
9.087,-0.050
9.088,-0.050
9.089,-0.055
9.090,-0.058
9.091,-0.053
9.092,-0.048
9.093,-0.050
9.094,-0.055
9.095,-0.055
9.096,-0.053
9.097,-0.053
9.098,-0.053
9.099,-0.048
9.100,-0.045
9.101,-0.048
9.102,-0.055
9.103,-0.058
9.104,-0.058
9.105,-0.055
9.106,-0.055
9.107,-0.055
9.108,-0.055
9.109,-0.060
9.110,-0.063
9.111,-0.060
9.112,-0.060
9.113,-0.063
9.114,-0.068
9.115,-0.065
9.116,-0.060
9.117,-0.058
9.118,-0.063
9.119,-0.065
9.120,-0.065
9.121,-0.063
9.122,-0.065
9.123,-0.068
9.124,-0.070
9.125,-0.070
9.126,-0.068
9.127,-0.063
9.128,-0.060
9.129,-0.060
9.130,-0.060
9.131,-0.058
9.132,-0.055
9.133,-0.058
9.134,-0.058
9.135,-0.050
9.136,-0.040
9.137,-0.030
9.138,-0.025
9.139,-0.015
9.140,-0.008
9.141,-0.005
9.142,-0.010
9.143,-0.010
9.144,-0.003
9.145,0.003
9.146,0.000
9.147,-0.005
9.148,-0.008
9.149,-0.010
9.150,-0.015
9.151,-0.015
9.152,-0.008
9.153,0.003
9.154,0.005
9.155,0.003
9.156,0.003
9.157,0.008
9.158,0.015
9.159,0.025
9.160,0.040
9.161,0.058
9.162,0.068
9.163,0.070
9.164,0.070
9.165,0.070
9.166,0.070
9.167,0.073
9.168,0.078
9.169,0.083
9.170,0.075
9.171,0.063
9.172,0.055
9.173,0.060
9.174,0.068
9.175,0.073
9.176,0.078
9.177,0.083
9.178,0.088
9.179,0.090
9.180,0.090
9.181,0.093
9.182,0.093
9.183,0.088
9.184,0.078
9.185,0.073
9.186,0.070
9.187,0.068
9.188,0.060
9.189,0.050
9.190,0.043
9.191,0.035
9.192,0.033
9.193,0.028
9.194,0.023
9.195,0.010
9.196,0.000
9.197,-0.013
9.198,-0.020
9.199,-0.030
9.200,-0.033
9.201,-0.043
9.202,-0.050
9.203,-0.068
9.204,-0.075
9.205,-0.085
9.206,-0.085
9.207,-0.093
9.208,-0.093
9.209,-0.100
9.210,-0.098
9.211,-0.105
9.212,-0.105
9.213,-0.110
9.214,-0.103
9.215,-0.103
9.216,-0.098
9.217,-0.098
9.218,-0.098
9.219,-0.098
9.220,-0.100
9.221,-0.100
9.222,-0.105
9.223,-0.108
9.224,-0.110
9.225,-0.108
9.226,-0.108
9.227,-0.108
9.228,-0.110
9.229,-0.115
9.230,-0.120
9.231,-0.123
9.232,-0.123
9.233,-0.120
9.234,-0.123
9.235,-0.125
9.236,-0.128
9.237,-0.128
9.238,-0.128
9.239,-0.130
9.240,-0.133
9.241,-0.133
9.242,-0.133
9.243,-0.133
9.244,-0.135
9.245,-0.138
9.246,-0.138
9.247,-0.138
9.248,-0.138
9.249,-0.138
9.250,-0.138
9.251,-0.138
9.252,-0.138
9.253,-0.135
9.254,-0.135
9.255,-0.133
9.256,-0.133
9.257,-0.135
9.258,-0.140
9.259,-0.145
9.260,-0.148
9.261,-0.143
9.262,-0.140
9.263,-0.140
9.264,-0.143
9.265,-0.143
9.266,-0.145
9.267,-0.145
9.268,-0.145
9.269,-0.140
9.270,-0.135
9.271,-0.133
9.272,-0.133
9.273,-0.135
9.274,-0.140
9.275,-0.143
9.276,-0.148
9.277,-0.155
9.278,-0.170
9.279,-0.185
9.280,-0.193
9.281,-0.193
9.282,-0.193
9.283,-0.193
9.284,-0.188
9.285,-0.173
9.286,-0.153
9.287,-0.130
9.288,-0.100
9.289,-0.063
9.290,-0.025
9.291,0.010
9.292,0.050
9.293,0.113
9.294,0.195
9.295,0.283
9.296,0.370
9.297,0.470
9.298,0.588
9.299,0.708
9.300,0.815
9.301,0.908
9.302,1.003
9.303,1.108
9.304,1.213
9.305,1.290
9.306,1.333
9.307,1.350
9.308,1.368
9.309,1.393
9.310,1.415
9.311,1.420
9.312,1.388
9.313,1.290
9.314,1.100
9.315,0.825
9.316,0.518
9.317,0.240
9.318,0.025
9.319,-0.128
9.320,-0.225
9.321,-0.275
9.322,-0.285
9.323,-0.275
9.324,-0.263
9.325,-0.253
9.326,-0.245
9.327,-0.240
9.328,-0.243
9.329,-0.248
9.330,-0.250
9.331,-0.253
9.332,-0.258
9.333,-0.260
9.334,-0.250
9.335,-0.225
9.336,-0.193
9.337,-0.168
9.338,-0.150
9.339,-0.135
9.340,-0.120
9.341,-0.110
9.342,-0.105
9.343,-0.103
9.344,-0.095
9.345,-0.083
9.346,-0.070
9.347,-0.065
9.348,-0.065
9.349,-0.070
9.350,-0.075
9.351,-0.078
9.352,-0.078
9.353,-0.078
9.354,-0.080
9.355,-0.085
9.356,-0.093
9.357,-0.095
9.358,-0.093
9.359,-0.090
9.360,-0.088
9.361,-0.088
9.362,-0.085
9.363,-0.083
9.364,-0.083
9.365,-0.085
9.366,-0.085
9.367,-0.083
9.368,-0.080
9.369,-0.080
9.370,-0.080
9.371,-0.080
9.372,-0.083
9.373,-0.088
9.374,-0.088
9.375,-0.083
9.376,-0.078
9.377,-0.078
9.378,-0.078
9.379,-0.078
9.380,-0.078
9.381,-0.080
9.382,-0.080
9.383,-0.075
9.384,-0.065
9.385,-0.060
9.386,-0.060
9.387,-0.065
9.388,-0.068
9.389,-0.068
9.390,-0.065
9.391,-0.063
9.392,-0.063
9.393,-0.065
9.394,-0.068
9.395,-0.068
9.396,-0.063
9.397,-0.058
9.398,-0.058
9.399,-0.060
9.400,-0.060
9.401,-0.050
9.402,-0.048
9.403,-0.045
9.404,-0.053
9.405,-0.050
9.406,-0.050
9.407,-0.045
9.408,-0.048
9.409,-0.043
9.410,-0.043
9.411,-0.035
9.412,-0.038
9.413,-0.035
9.414,-0.040
9.415,-0.038
9.416,-0.045
9.417,-0.043
9.418,-0.040
9.419,-0.035
9.420,-0.030
9.421,-0.028
9.422,-0.025
9.423,-0.025
9.424,-0.023
9.425,-0.025
9.426,-0.020
9.427,-0.018
9.428,-0.013
9.429,-0.013
9.430,-0.008
9.431,-0.005
9.432,-0.003
9.433,-0.010
9.434,-0.015
9.435,-0.020
9.436,-0.015
9.437,-0.008
9.438,0.003
9.439,0.008
9.440,0.008
9.441,0.003
9.442,0.003
9.443,0.005
9.444,0.010
9.445,0.010
9.446,0.010
9.447,0.010
9.448,0.013
9.449,0.013
9.450,0.010
9.451,0.008
9.452,0.008
