'Elapsed time','II'
'seconds','mV'
0.000,-0.016
0.001,-0.016
0.002,-0.016
0.003,-0.016
0.004,-0.016
0.005,-0.016
0.006,-0.016
0.007,-0.016
0.008,-0.016
0.009,-0.016
0.010,-0.016
0.011,-0.016
0.012,-0.017
0.013,-0.019
0.014,-0.019
0.015,-0.019
0.016,-0.019
0.017,-0.019
0.018,-0.019
0.019,-0.019
0.020,-0.019
0.021,-0.019
0.022,-0.020
0.023,-0.022
0.024,-0.021
0.025,-0.019
0.026,-0.017
0.027,-0.016
0.028,-0.016
0.029,-0.016
0.030,-0.017
0.031,-0.019
0.032,-0.019
0.033,-0.019
0.034,-0.020
0.035,-0.022
0.036,-0.023
0.037,-0.025
0.038,-0.025
0.039,-0.025
0.040,-0.025
0.041,-0.025
0.042,-0.025
0.043,-0.025
0.044,-0.025
0.045,-0.025
0.046,-0.025
0.047,-0.025
0.048,-0.025
0.049,-0.025
0.050,-0.026
0.051,-0.028
0.052,-0.028
0.053,-0.028
0.054,-0.028
0.055,-0.028
0.056,-0.028
0.057,-0.028
0.058,-0.028
0.059,-0.028
0.060,-0.028
0.061,-0.028
0.062,-0.028
0.063,-0.028
0.064,-0.028
0.065,-0.028
0.066,-0.029
0.067,-0.031
0.068,-0.031
0.069,-0.031
0.070,-0.031
0.071,-0.031
0.072,-0.033
0.073,-0.034
0.074,-0.034
0.075,-0.034
0.076,-0.034
0.077,-0.034
0.078,-0.036
0.079,-0.038
0.080,-0.038
0.081,-0.038
0.082,-0.038
0.083,-0.038
0.084,-0.038
0.085,-0.038
0.086,-0.038
0.087,-0.038
0.088,-0.038
0.089,-0.038
0.090,-0.041
0.091,-0.044
0.092,-0.045
0.093,-0.047
0.094,-0.047
0.095,-0.047
0.096,-0.047
0.097,-0.047
0.098,-0.047
0.099,-0.047
0.100,-0.047
0.101,-0.047
0.102,-0.047
0.103,-0.047
0.104,-0.047
0.105,-0.047
0.106,-0.048
0.107,-0.050
0.108,-0.051
0.109,-0.053
0.110,-0.052
0.111,-0.050
0.112,-0.050
0.113,-0.050
0.114,-0.051
0.115,-0.053
0.116,-0.053
0.117,-0.053
0.118,-0.053
0.119,-0.053
0.120,-0.053
0.121,-0.053
0.122,-0.053
0.123,-0.053
0.124,-0.056
0.125,-0.059
0.126,-0.061
0.127,-0.062
0.128,-0.059
0.129,-0.056
0.130,-0.057
0.131,-0.059
0.132,-0.058
0.133,-0.056
0.134,-0.057
0.135,-0.059
0.136,-0.061
0.137,-0.062
0.138,-0.062
0.139,-0.062
0.140,-0.062
0.141,-0.062
0.142,-0.062
0.143,-0.062
0.144,-0.062
0.145,-0.062
0.146,-0.062
0.147,-0.062
0.148,-0.062
0.149,-0.062
0.150,-0.062
0.151,-0.062
0.152,-0.062
0.153,-0.062
0.154,-0.062
0.155,-0.062
0.156,-0.062
0.157,-0.062
0.158,-0.062
0.159,-0.062
0.160,-0.064
0.161,-0.066
0.162,-0.066
0.163,-0.066
0.164,-0.066
0.165,-0.066
0.166,-0.066
0.167,-0.066
0.168,-0.066
0.169,-0.066
0.170,-0.066
0.171,-0.066
0.172,-0.066
0.173,-0.066
0.174,-0.066
0.175,-0.066
0.176,-0.067
0.177,-0.069
0.178,-0.069
0.179,-0.069
0.180,-0.068
0.181,-0.066
0.182,-0.066
0.183,-0.066
0.184,-0.067
0.185,-0.069
0.186,-0.069
0.187,-0.069
0.188,-0.068
0.189,-0.066
0.190,-0.066
0.191,-0.066
0.192,-0.067
0.193,-0.069
0.194,-0.069
0.195,-0.069
0.196,-0.069
0.197,-0.069
0.198,-0.069
0.199,-0.069
0.200,-0.069
0.201,-0.069
0.202,-0.069
0.203,-0.069
0.204,-0.069
0.205,-0.069
0.206,-0.070
0.207,-0.072
0.208,-0.072
0.209,-0.072
0.210,-0.072
0.211,-0.072
0.212,-0.072
0.213,-0.072
0.214,-0.072
0.215,-0.072
0.216,-0.072
0.217,-0.072
0.218,-0.072
0.219,-0.072
0.220,-0.072
0.221,-0.072
0.222,-0.072
0.223,-0.072
0.224,-0.072
0.225,-0.072
0.226,-0.071
0.227,-0.072
0.228,-0.070
0.229,-0.072
0.230,-0.072
0.231,-0.072
0.232,-0.072
0.233,-0.072
0.234,-0.072
0.235,-0.072
0.236,-0.068
0.237,-0.069
0.238,-0.073
0.239,-0.072
0.240,-0.075
0.241,-0.078
0.242,-0.077
0.243,-0.078
0.244,-0.075
0.245,-0.072
0.246,-0.073
0.247,-0.078
0.248,-0.078
0.249,-0.075
0.250,-0.077
0.251,-0.075
0.252,-0.073
0.253,-0.078
0.254,-0.077
0.255,-0.075
0.256,-0.074
0.257,-0.072
0.258,-0.073
0.259,-0.075
0.260,-0.075
0.261,-0.075
0.262,-0.078
0.263,-0.078
0.264,-0.074
0.265,-0.075
0.266,-0.075
0.267,-0.075
0.268,-0.072
0.269,-0.072
0.270,-0.075
0.271,-0.075
0.272,-0.075
0.273,-0.075
0.274,-0.073
0.275,-0.075
0.276,-0.074
0.277,-0.075
0.278,-0.075
0.279,-0.075
0.280,-0.075
0.281,-0.075
0.282,-0.072
0.283,-0.075
0.284,-0.075
0.285,-0.075
0.286,-0.076
0.287,-0.078
0.288,-0.077
0.289,-0.075
0.290,-0.074
0.291,-0.072
0.292,-0.075
0.293,-0.075
0.294,-0.075
0.295,-0.078
0.296,-0.078
0.297,-0.075
0.298,-0.075
0.299,-0.075
0.300,-0.078
0.301,-0.078
0.302,-0.075
0.303,-0.072
0.304,-0.075
0.305,-0.078
0.306,-0.076
0.307,-0.078
0.308,-0.078
0.309,-0.075
0.310,-0.072
0.311,-0.072
0.312,-0.069
0.313,-0.069
0.314,-0.071
0.315,-0.072
0.316,-0.072
0.317,-0.072
0.318,-0.075
0.319,-0.078
0.320,-0.077
0.321,-0.075
0.322,-0.078
0.323,-0.078
0.324,-0.079
0.325,-0.081
0.326,-0.078
0.327,-0.075
0.328,-0.075
0.329,-0.075
0.330,-0.079
0.331,-0.081
0.332,-0.081
0.333,-0.084
0.334,-0.080
0.335,-0.078
0.336,-0.076
0.337,-0.078
0.338,-0.077
0.339,-0.075
0.340,-0.077
0.341,-0.075
0.342,-0.075
0.343,-0.075
0.344,-0.078
0.345,-0.078
0.346,-0.078
0.347,-0.075
0.348,-0.071
0.349,-0.069
0.350,-0.072
0.351,-0.072
0.352,-0.070
0.353,-0.072
0.354,-0.071
0.355,-0.072
0.356,-0.070
0.357,-0.072
0.358,-0.071
0.359,-0.072
0.360,-0.073
0.361,-0.078
0.362,-0.078
0.363,-0.078
0.364,-0.080
0.365,-0.075
0.366,-0.073
0.367,-0.075
0.368,-0.077
0.369,-0.072
0.370,-0.072
0.371,-0.075
0.372,-0.075
0.373,-0.075
0.374,-0.075
0.375,-0.075
0.376,-0.075
0.377,-0.075
0.378,-0.074
0.379,-0.072
0.380,-0.073
0.381,-0.075
0.382,-0.076
0.383,-0.078
0.384,-0.078
0.385,-0.078
0.386,-0.081
0.387,-0.078
0.388,-0.072
0.389,-0.072
0.390,-0.073
0.391,-0.078
0.392,-0.081
0.393,-0.081
0.394,-0.081
0.395,-0.081
0.396,-0.080
0.397,-0.081
0.398,-0.079
0.399,-0.081
0.400,-0.081
0.401,-0.081
0.402,-0.078
0.403,-0.075
0.404,-0.075
0.405,-0.075
0.406,-0.076
0.407,-0.078
0.408,-0.079
0.409,-0.081
0.410,-0.081
0.411,-0.081
0.412,-0.080
0.413,-0.078
0.414,-0.078
0.415,-0.081
0.416,-0.078
0.417,-0.075
0.418,-0.076
0.419,-0.078
0.420,-0.081
0.421,-0.081
0.422,-0.080
0.423,-0.075
0.424,-0.075
0.425,-0.075
0.426,-0.072
0.427,-0.072
0.428,-0.072
0.429,-0.072
0.430,-0.076
0.431,-0.081
0.432,-0.081
0.433,-0.081
0.434,-0.077
0.435,-0.075
0.436,-0.075
0.437,-0.075
0.438,-0.076
0.439,-0.078
0.440,-0.079
0.441,-0.081
0.442,-0.081
0.443,-0.081
0.444,-0.077
0.445,-0.072
0.446,-0.076
0.447,-0.078
0.448,-0.079
0.449,-0.081
0.450,-0.081
0.451,-0.081
0.452,-0.078
0.453,-0.075
0.454,-0.078
0.455,-0.078
0.456,-0.077
0.457,-0.078
0.458,-0.082
0.459,-0.081
0.460,-0.081
0.461,-0.081
0.462,-0.079
0.463,-0.081
0.464,-0.080
0.465,-0.081
0.466,-0.078
0.467,-0.081
0.468,-0.077
0.469,-0.075
0.470,-0.076
0.471,-0.078
0.472,-0.079
0.473,-0.081
0.474,-0.080
0.475,-0.081
0.476,-0.081
0.477,-0.081
0.478,-0.080
0.479,-0.075
0.480,-0.075
0.481,-0.075
0.482,-0.079
0.483,-0.081
0.484,-0.078
0.485,-0.075
0.486,-0.076
0.487,-0.078
0.488,-0.079
0.489,-0.081
0.490,-0.081
0.491,-0.081
0.492,-0.082
0.493,-0.081
0.494,-0.080
0.495,-0.081
0.496,-0.081
0.497,-0.081
0.498,-0.080
0.499,-0.075
0.500,-0.075
0.501,-0.078
0.502,-0.076
0.503,-0.078
0.504,-0.081
0.505,-0.078
0.506,-0.075
0.507,-0.075
0.508,-0.077
0.509,-0.075
0.510,-0.075
0.511,-0.075
0.512,-0.074
0.513,-0.072
0.514,-0.069
0.515,-0.072
0.516,-0.068
0.517,-0.069
0.518,-0.064
0.519,-0.059
0.520,-0.056
0.521,-0.053
0.522,-0.049
0.523,-0.044
0.524,-0.039
0.525,-0.034
0.526,-0.027
0.527,-0.022
0.528,-0.016
0.529,-0.012
0.530,-0.017
0.531,-0.019
0.532,0.002
0.533,-0.006
0.534,-0.006
0.535,-0.009
0.536,-0.014
0.537,-0.019
0.538,-0.017
0.539,-0.016
0.540,-0.020
0.541,-0.019
0.542,-0.016
0.543,-0.019
0.544,-0.019
0.545,-0.019
0.546,-0.017
0.547,-0.019
0.548,-0.017
0.549,-0.016
0.550,-0.016
0.551,-0.012
0.552,-0.014
0.553,-0.012
0.554,-0.006
0.555,0.000
0.556,0.003
0.557,0.006
0.558,0.008
0.559,0.006
0.560,0.000
0.561,-0.006
0.562,-0.007
0.563,-0.012
0.564,-0.017
0.565,-0.016
0.566,-0.009
0.567,-0.009
0.568,-0.006
0.569,-0.006
0.570,-0.011
0.571,-0.006
0.572,-0.003
0.573,-0.003
0.574,-0.009
0.575,-0.016
0.576,-0.017
0.577,-0.022
0.578,-0.029
0.579,-0.034
0.580,-0.027
0.581,-0.031
0.582,-0.041
0.583,-0.044
0.584,-0.046
0.585,-0.044
0.586,-0.044
0.587,-0.044
0.588,-0.038
0.589,-0.031
0.590,-0.034
0.591,-0.034
0.592,-0.038
0.593,-0.041
0.594,-0.050
0.595,-0.056
0.596,-0.061
0.597,-0.066
0.598,-0.066
0.599,-0.069
0.600,-0.066
0.601,-0.066
0.602,-0.068
0.603,-0.069
0.604,-0.071
0.605,-0.072
0.606,-0.071
0.607,-0.072
0.608,-0.078
0.609,-0.081
0.610,-0.078
0.611,-0.078
0.612,-0.080
0.613,-0.081
0.614,-0.082
0.615,-0.084
0.616,-0.084
0.617,-0.084
0.618,-0.084
0.619,-0.084
0.620,-0.084
0.621,-0.084
0.622,-0.084
0.623,-0.084
0.624,-0.084
0.625,-0.084
0.626,-0.083
0.627,-0.081
0.628,-0.086
0.629,-0.084
0.630,-0.084
0.631,-0.087
0.632,-0.089
0.633,-0.091
0.634,-0.089
0.635,-0.091
0.636,-0.087
0.637,-0.087
0.638,-0.091
0.639,-0.091
0.640,-0.092
0.641,-0.091
0.642,-0.089
0.643,-0.091
0.644,-0.091
0.645,-0.091
0.646,-0.091
0.647,-0.091
0.648,-0.091
0.649,-0.091
0.650,-0.091
0.651,-0.087
0.652,-0.089
0.653,-0.091
0.654,-0.091
0.655,-0.091
0.656,-0.087
0.657,-0.087
0.658,-0.087
0.659,-0.087
0.660,-0.091
0.661,-0.087
0.662,-0.087
0.663,-0.087
0.664,-0.089
0.665,-0.091
0.666,-0.087
0.667,-0.091
0.668,-0.089
0.669,-0.087
0.670,-0.092
0.671,-0.091
0.672,-0.092
0.673,-0.094
0.674,-0.094
0.675,-0.097
0.676,-0.097
0.677,-0.097
0.678,-0.102
0.679,-0.103
0.680,-0.113
0.681,-0.125
0.682,-0.136
0.683,-0.147
0.684,-0.167
0.685,-0.188
0.686,-0.201
0.687,-0.216
0.688,-0.216
0.689,-0.216
0.690,-0.209
0.691,-0.203
0.692,-0.186
0.693,-0.166
0.694,-0.141
0.695,-0.116
0.696,-0.084
0.697,-0.050
0.698,-0.006
0.699,0.041
0.700,0.077
0.701,0.106
0.702,0.150
0.703,0.194
0.704,0.250
0.705,0.309
0.706,0.359
0.707,0.409
0.708,0.497
0.709,0.584
0.710,0.669
0.711,0.753
0.712,0.823
0.713,0.897
0.714,0.948
0.715,1.006
0.716,1.047
0.717,1.103
0.718,1.163
0.719,1.212
0.720,1.269
0.721,1.306
0.722,1.334
0.723,1.331
0.724,1.278
0.725,1.200
0.726,1.094
0.727,0.991
0.728,0.896
0.729,0.806
0.730,0.722
0.731,0.641
0.732,0.577
0.733,0.519
0.734,0.464
0.735,0.397
0.736,0.336
0.737,0.281
0.738,0.226
0.739,0.178
0.740,0.125
0.741,0.069
0.742,0.019
0.743,-0.022
0.744,-0.055
0.745,-0.069
0.746,-0.081
0.747,-0.087
0.748,-0.089
0.749,-0.091
0.750,-0.081
0.751,-0.075
0.752,-0.072
0.753,-0.062
0.754,-0.042
0.755,-0.028
0.756,-0.020
0.757,-0.016
0.758,-0.007
0.759,-0.003
0.760,-0.001
0.761,0.003
0.762,0.006
0.763,0.016
0.764,0.017
0.765,0.019
0.766,0.016
0.767,0.019
0.768,0.016
0.769,0.012
0.770,0.009
0.771,0.006
0.772,0.004
0.773,0.003
0.774,-0.003
0.775,-0.006
0.776,-0.006
0.777,-0.009
0.778,-0.011
0.779,-0.009
0.780,-0.005
0.781,-0.006
0.782,-0.009
0.783,-0.006
0.784,-0.008
0.785,-0.009
0.786,-0.009
0.787,-0.016
0.788,-0.012
0.789,-0.016
0.790,-0.014
0.791,-0.016
0.792,-0.016
0.793,-0.016
0.794,-0.016
0.795,-0.016
0.796,-0.017
0.797,-0.016
0.798,-0.014
0.799,-0.016
0.800,-0.017
0.801,-0.016
0.802,-0.014
0.803,-0.016
0.804,-0.016
0.805,-0.016
0.806,-0.017
0.807,-0.016
0.808,-0.012
0.809,-0.012
0.810,-0.014
0.811,-0.012
0.812,-0.011
0.813,-0.012
0.814,-0.012
0.815,-0.012
0.816,-0.011
0.817,-0.006
0.818,-0.009
0.819,-0.009
0.820,-0.009
0.821,-0.009
0.822,-0.011
0.823,-0.012
0.824,-0.012
0.825,-0.012
0.826,-0.011
0.827,-0.006
0.828,-0.002
0.829,-0.003
0.830,-0.003
0.831,-0.003
0.832,-0.001
0.833,-0.003
0.834,-0.003
0.835,0.000
0.836,0.000
0.837,0.000
0.838,0.000
0.839,0.000
0.840,-0.003
0.841,-0.003
0.842,-0.001
0.843,-0.003
0.844,0.003
0.845,0.003
0.846,0.002
0.847,0.003
0.848,0.003
0.849,0.003
0.850,0.003
0.851,0.003
0.852,0.004
0.853,0.006
0.854,0.008
0.855,0.006
0.856,0.006
0.857,0.006
0.858,0.005
0.859,0.003
0.860,0.004
0.861,0.009
0.862,0.008
0.863,0.009
0.864,0.011
0.865,0.009
0.866,0.011
0.867,0.009
0.868,0.014
0.869,0.022
0.870,0.019
0.871,0.019
0.872,0.019
0.873,0.019
0.874,0.019
0.875,0.019
0.876,0.019
0.877,0.019
0.878,0.019
0.879,0.019
0.880,0.020
0.881,0.022
0.882,0.026
0.883,0.028
0.884,0.027
0.885,0.028
0.886,0.031
0.887,0.028
0.888,0.027
0.889,0.028
0.890,0.029
0.891,0.031
0.892,0.031
0.893,0.031
0.894,0.033
0.895,0.031
0.896,0.033
0.897,0.031
0.898,0.034
0.899,0.038
0.900,0.038
0.901,0.038
0.902,0.041
0.903,0.044
0.904,0.044
0.905,0.044
0.906,0.042
0.907,0.041
0.908,0.041
0.909,0.041
0.910,0.042
0.911,0.044
0.912,0.048
0.913,0.050
0.914,0.054
0.915,0.056
0.916,0.056
0.917,0.056
0.918,0.056
0.919,0.056
0.920,0.053
0.921,0.050
0.922,0.056
0.923,0.059
0.924,0.058
0.925,0.056
0.926,0.061
0.927,0.063
0.928,0.063
0.929,0.063
0.930,0.064
0.931,0.063
0.932,0.066
0.933,0.066
0.934,0.069
0.935,0.072
0.936,0.074
0.937,0.075
0.938,0.075
0.939,0.078
0.940,0.075
0.941,0.078
0.942,0.078
0.943,0.078
0.944,0.080
0.945,0.081
0.946,0.084
0.947,0.084
0.948,0.084
0.949,0.084
0.950,0.087
0.951,0.084
0.952,0.089
0.953,0.094
0.954,0.097
0.955,0.097
0.956,0.098
0.957,0.100
0.958,0.103
0.959,0.103
0.960,0.105
0.961,0.106
0.962,0.111
0.963,0.116
0.964,0.114
0.965,0.116
0.966,0.114
0.967,0.119
0.968,0.120
0.969,0.122
0.970,0.125
0.971,0.125
0.972,0.125
0.973,0.128
0.974,0.128
0.975,0.131
0.976,0.130
0.977,0.131
0.978,0.134
0.979,0.138
0.980,0.139
0.981,0.144
0.982,0.144
0.983,0.144
0.984,0.143
0.985,0.141
0.986,0.151
0.987,0.156
0.988,0.156
0.989,0.162
0.990,0.161
0.991,0.159
0.992,0.164
0.993,0.166
0.994,0.167
0.995,0.169
0.996,0.171
0.997,0.172
0.998,0.177
0.999,0.178
1.000,0.178
1.001,0.181
1.002,0.180
1.003,0.181
1.004,0.183
1.005,0.188
1.006,0.195
1.007,0.194
1.008,0.194
1.009,0.194
1.010,0.193
1.011,0.191
1.012,0.192
1.013,0.194
1.014,0.197
1.015,0.197
1.016,0.197
1.017,0.197
1.018,0.197
1.019,0.197
1.020,0.195
1.021,0.194
1.022,0.194
1.023,0.194
1.024,0.188
1.025,0.181
1.026,0.179
1.027,0.178
1.028,0.174
1.029,0.169
1.030,0.162
1.031,0.156
1.032,0.153
1.033,0.150
1.034,0.148
1.035,0.144
1.036,0.139
1.037,0.131
1.038,0.129
1.039,0.125
1.040,0.121
1.041,0.116
1.042,0.108
1.043,0.103
1.044,0.100
1.045,0.094
1.046,0.091
1.047,0.087
1.048,0.081
1.049,0.078
1.050,0.072
1.051,0.069
1.052,0.061
1.053,0.063
1.054,0.059
1.055,0.059
1.056,0.053
1.057,0.047
1.058,0.042
1.059,0.038
1.060,0.036
1.061,0.034
1.062,0.028
1.063,0.028
1.064,0.021
1.065,0.016
1.066,0.011
1.067,0.006
1.068,0.006
1.069,0.006
1.070,0.004
1.071,0.003
1.072,0.004
1.073,0.003
1.074,0.001
1.075,0.000
1.076,-0.004
1.077,-0.009
1.078,-0.012
1.079,-0.016
1.080,-0.017
1.081,-0.016
1.082,-0.020
1.083,-0.025
1.084,-0.031
1.085,-0.031
1.086,-0.028
1.087,-0.028
1.088,-0.031
1.089,-0.028
1.090,-0.025
1.091,-0.025
1.092,-0.029
1.093,-0.031
1.094,-0.031
1.095,-0.034
1.096,-0.034
1.097,-0.034
1.098,-0.034
1.099,-0.034
1.100,-0.033
1.101,-0.031
1.102,-0.038
1.103,-0.041
1.104,-0.039
1.105,-0.038
1.106,-0.039
1.107,-0.038
1.108,-0.033
1.109,-0.034
1.110,-0.036
1.111,-0.038
1.112,-0.038
1.113,-0.038
1.114,-0.034
1.115,-0.038
1.116,-0.036
1.117,-0.038
1.118,-0.038
1.119,-0.038
1.120,-0.036
1.121,-0.031
1.122,-0.033
1.123,-0.031
1.124,-0.031
1.125,-0.034
1.126,-0.033
1.127,-0.034
1.128,-0.034
1.129,-0.034
1.130,-0.036
1.131,-0.038
1.132,-0.038
1.133,-0.038
1.134,-0.036
1.135,-0.034
1.136,-0.031
1.137,-0.031
1.138,-0.031
1.139,-0.031
1.140,-0.031
1.141,-0.031
1.142,-0.031
1.143,-0.031
1.144,-0.028
1.145,-0.028
1.146,-0.031
1.147,-0.028
1.148,-0.031
1.149,-0.031
1.150,-0.026
1.151,-0.031
1.152,-0.031
1.153,-0.031
1.154,-0.031
1.155,-0.031
1.156,-0.028
1.157,-0.025
1.158,-0.022
1.159,-0.022
1.160,-0.022
1.161,-0.025
1.162,-0.026
1.163,-0.025
1.164,-0.024
1.165,-0.022
1.166,-0.019
1.167,-0.019
1.168,-0.019
1.169,-0.019
1.170,-0.019
1.171,-0.019
1.172,-0.017
1.173,-0.019
1.174,-0.017
1.175,-0.016
1.176,-0.016
1.177,-0.016
1.178,-0.016
1.179,-0.016
1.180,-0.016
1.181,-0.016
1.182,-0.011
1.183,-0.009
1.184,-0.007
1.185,-0.009
1.186,-0.009
1.187,-0.012
1.188,-0.012
1.189,-0.012
1.190,-0.009
1.191,-0.009
1.192,-0.008
1.193,-0.009
1.194,-0.011
1.195,-0.009
1.196,-0.012
1.197,-0.009
1.198,-0.014
1.199,-0.016
1.200,-0.012
1.201,-0.016
1.202,-0.012
1.203,-0.009
1.204,-0.011
1.205,-0.012
1.206,-0.011
1.207,-0.009
1.208,-0.011
1.209,-0.006
1.210,-0.005
1.211,-0.003
1.212,-0.003
1.213,-0.003
1.214,-0.003
1.215,-0.006
1.216,-0.007
1.217,-0.006
1.218,-0.006
1.219,-0.006
1.220,-0.003
1.221,-0.006
1.222,-0.007
1.223,-0.009
1.224,-0.012
1.225,-0.012
1.226,-0.009
1.227,-0.009
1.228,-0.008
1.229,-0.009
1.230,-0.011
1.231,-0.012
1.232,-0.007
1.233,-0.012
1.234,-0.016
1.235,-0.016
1.236,-0.014
1.237,-0.012
1.238,-0.012
1.239,-0.012
1.240,-0.012
1.241,-0.009
1.242,-0.012
1.243,-0.012
1.244,-0.012
1.245,-0.012
1.246,-0.012
1.247,-0.016
1.248,-0.016
1.249,-0.016
1.250,-0.016
1.251,-0.019
1.252,-0.017
1.253,-0.019
1.254,-0.019
1.255,-0.022
1.256,-0.021
1.257,-0.022
1.258,-0.022
1.259,-0.028
1.260,-0.025
1.261,-0.028
1.262,-0.030
1.263,-0.025
1.264,-0.024
1.265,-0.025
1.266,-0.026
1.267,-0.028
1.268,-0.025
1.269,-0.028
1.270,-0.027
1.271,-0.028
1.272,-0.028
1.273,-0.028
1.274,-0.029
1.275,-0.031
1.276,-0.034
1.277,-0.034
1.278,-0.036
1.279,-0.038
1.280,-0.038
1.281,-0.038
1.282,-0.036
1.283,-0.034
1.284,-0.038
1.285,-0.038
1.286,-0.038
1.287,-0.038
1.288,-0.034
1.289,-0.038
1.290,-0.044
1.291,-0.050
1.292,-0.044
1.293,-0.047
1.294,-0.050
1.295,-0.047
1.296,-0.046
1.297,-0.044
1.298,-0.041
1.299,-0.038
1.300,-0.042
1.301,-0.041
1.302,-0.039
1.303,-0.038
1.304,-0.044
1.305,-0.047
1.306,-0.050
1.307,-0.050
1.308,-0.042
1.309,-0.044
1.310,-0.044
1.311,-0.047
1.312,-0.050
1.313,-0.047
1.314,-0.048
1.315,-0.050
1.316,-0.049
1.317,-0.050
1.318,-0.051
1.319,-0.050
1.320,-0.050
1.321,-0.050
1.322,-0.049
1.323,-0.047
1.324,-0.050
1.325,-0.050
1.326,-0.050
1.327,-0.050
1.328,-0.050
1.329,-0.050
1.330,-0.050
1.331,-0.050
1.332,-0.049
1.333,-0.047
1.334,-0.050
1.335,-0.050
1.336,-0.050
1.337,-0.053
1.338,-0.053
1.339,-0.053
1.340,-0.050
1.341,-0.053
1.342,-0.053
1.343,-0.053
1.344,-0.053
1.345,-0.053
1.346,-0.053
1.347,-0.053
1.348,-0.052
1.349,-0.053
1.350,-0.053
1.351,-0.053
1.352,-0.053
1.353,-0.053
1.354,-0.053
1.355,-0.050
1.356,-0.056
1.357,-0.059
1.358,-0.059
1.359,-0.056
1.360,-0.056
1.361,-0.053
1.362,-0.057
1.363,-0.059
1.364,-0.059
1.365,-0.059
1.366,-0.053
1.367,-0.053
1.368,-0.050
1.369,-0.050
1.370,-0.050
1.371,-0.053
1.372,-0.052
1.373,-0.053
1.374,-0.051
1.375,-0.053
1.376,-0.053
1.377,-0.053
1.378,-0.054
1.379,-0.056
1.380,-0.061
1.381,-0.062
1.382,-0.062
1.383,-0.062
1.384,-0.062
1.385,-0.062
1.386,-0.061
1.387,-0.056
1.388,-0.061
1.389,-0.062
1.390,-0.064
1.391,-0.066
1.392,-0.066
1.393,-0.066
1.394,-0.066
1.395,-0.062
1.396,-0.066
1.397,-0.066
1.398,-0.066
1.399,-0.066
1.400,-0.066
1.401,-0.066
1.402,-0.062
1.403,-0.059
1.404,-0.056
1.405,-0.059
1.406,-0.061
1.407,-0.062
1.408,-0.062
1.409,-0.062
1.410,-0.064
1.411,-0.066
1.412,-0.062
1.413,-0.059
1.414,-0.059
1.415,-0.056
1.416,-0.056
1.417,-0.059
1.418,-0.064
1.419,-0.066
1.420,-0.066
1.421,-0.066
1.422,-0.066
1.423,-0.066
1.424,-0.061
1.425,-0.056
1.426,-0.057
1.427,-0.059
1.428,-0.061
1.429,-0.062
1.430,-0.062
1.431,-0.062
1.432,-0.062
1.433,-0.062
1.434,-0.062
1.435,-0.062
1.436,-0.062
1.437,-0.062
1.438,-0.064
1.439,-0.066
1.440,-0.066
1.441,-0.066
1.442,-0.066
1.443,-0.066
1.444,-0.067
1.445,-0.069
1.446,-0.066
1.447,-0.062
1.448,-0.064
1.449,-0.066
1.450,-0.067
1.451,-0.069
1.452,-0.069
1.453,-0.069
1.454,-0.069
1.455,-0.069
1.456,-0.069
1.457,-0.069
1.458,-0.068
1.459,-0.066
1.460,-0.062
1.461,-0.059
1.462,-0.059
1.463,-0.059
1.464,-0.062
1.465,-0.066
1.466,-0.067
1.467,-0.069
1.468,-0.066
1.469,-0.062
1.470,-0.062
1.471,-0.062
1.472,-0.064
1.473,-0.066
1.474,-0.067
1.475,-0.069
1.476,-0.069
1.477,-0.069
1.478,-0.069
1.479,-0.069
1.480,-0.069
1.481,-0.069
1.482,-0.069
1.483,-0.069
1.484,-0.068
1.485,-0.066
1.486,-0.066
1.487,-0.066
1.488,-0.067
1.489,-0.069
1.490,-0.068
1.491,-0.066
1.492,-0.066
1.493,-0.066
1.494,-0.066
1.495,-0.066
1.496,-0.066
1.497,-0.066
1.498,-0.062
1.499,-0.059
1.500,-0.059
1.501,-0.059
1.502,-0.059
1.503,-0.059
1.504,-0.061
1.505,-0.062
1.506,-0.059
1.507,-0.056
1.508,-0.056
1.509,-0.056
1.510,-0.057
1.511,-0.059
1.512,-0.061
1.513,-0.062
1.514,-0.061
1.515,-0.059
1.516,-0.059
1.517,-0.059
1.518,-0.061
1.519,-0.062
1.520,-0.067
1.521,-0.066
1.522,-0.066
1.523,-0.066
1.524,-0.066
1.525,-0.066
1.526,-0.066
1.527,-0.066
1.528,-0.066
1.529,-0.062
1.530,-0.064
1.531,-0.066
1.532,-0.061
1.533,-0.059
1.534,-0.058
1.535,-0.056
1.536,-0.059
1.537,-0.056
1.538,-0.054
1.539,-0.056
1.540,-0.061
1.541,-0.062
1.542,-0.059
1.543,-0.062
1.544,-0.062
1.545,-0.059
1.546,-0.061
1.547,-0.059
1.548,-0.059
1.549,-0.059
1.550,-0.061
1.551,-0.062
1.552,-0.061
1.553,-0.059
1.554,-0.058
1.555,-0.059
1.556,-0.061
1.557,-0.059
1.558,-0.062
1.559,-0.062
1.560,-0.062
1.561,-0.059
1.562,-0.059
1.563,-0.062
1.564,-0.064
1.565,-0.066
1.566,-0.064
1.567,-0.059
1.568,-0.059
1.569,-0.059
1.570,-0.062
1.571,-0.062
1.572,-0.061
1.573,-0.059
1.574,-0.062
1.575,-0.062
1.576,-0.066
1.577,-0.066
1.578,-0.066
1.579,-0.066
1.580,-0.061
1.581,-0.056
1.582,-0.056
1.583,-0.056
1.584,-0.056
1.585,-0.056
1.586,-0.054
1.587,-0.056
1.588,-0.059
1.589,-0.059
1.590,-0.057
1.591,-0.059
1.592,-0.059
1.593,-0.062
1.594,-0.064
1.595,-0.062
1.596,-0.059
1.597,-0.062
1.598,-0.067
1.599,-0.066
1.600,-0.064
1.601,-0.066
1.602,-0.067
1.603,-0.066
1.604,-0.066
1.605,-0.062
1.606,-0.058
1.607,-0.056
1.608,-0.059
1.609,-0.059
1.610,-0.059
1.611,-0.059
1.612,-0.061
1.613,-0.062
1.614,-0.062
1.615,-0.062
1.616,-0.058
1.617,-0.056
1.618,-0.056
1.619,-0.056
1.620,-0.057
1.621,-0.059
1.622,-0.059
1.623,-0.062
1.624,-0.064
1.625,-0.066
1.626,-0.068
1.627,-0.062
1.628,-0.061
1.629,-0.056
1.630,-0.057
1.631,-0.059
1.632,-0.056
1.633,-0.056
1.634,-0.057
1.635,-0.056
1.636,-0.053
1.637,-0.056
1.638,-0.059
1.639,-0.066
1.640,-0.067
1.641,-0.066
1.642,-0.064
1.643,-0.066
1.644,-0.066
1.645,-0.062
1.646,-0.059
1.647,-0.056
1.648,-0.061
1.649,-0.059
1.650,-0.061
1.651,-0.062
1.652,-0.061
1.653,-0.053
1.654,-0.053
1.655,-0.053
1.656,-0.053
1.657,-0.056
1.658,-0.056
1.659,-0.056
1.660,-0.056
1.661,-0.059
1.662,-0.055
1.663,-0.053
1.664,-0.056
1.665,-0.056
1.666,-0.056
1.667,-0.056
1.668,-0.056
1.669,-0.056
1.670,-0.056
1.671,-0.056
1.672,-0.061
1.673,-0.066
1.674,-0.066
1.675,-0.066
1.676,-0.066
1.677,-0.066
1.678,-0.061
1.679,-0.059
1.680,-0.056
1.681,-0.053
1.682,-0.059
1.683,-0.062
1.684,-0.064
1.685,-0.062
1.686,-0.058
1.687,-0.056
1.688,-0.056
1.689,-0.056
1.690,-0.058
1.691,-0.053
1.692,-0.053
1.693,-0.053
1.694,-0.056
1.695,-0.059
1.696,-0.062
1.697,-0.066
1.698,-0.066
1.699,-0.066
1.700,-0.062
1.701,-0.059
1.702,-0.061
1.703,-0.062
1.704,-0.059
1.705,-0.056
1.706,-0.057
1.707,-0.056
1.708,-0.057
1.709,-0.059
1.710,-0.058
1.711,-0.056
1.712,-0.056
1.713,-0.059
1.714,-0.061
1.715,-0.062
1.716,-0.061
1.717,-0.062
1.718,-0.061
1.719,-0.059
1.720,-0.062
1.721,-0.062
1.722,-0.062
1.723,-0.062
1.724,-0.062
1.725,-0.062
1.726,-0.061
1.727,-0.056
1.728,-0.056
1.729,-0.056
1.730,-0.056
1.731,-0.056
1.732,-0.056
1.733,-0.056
1.734,-0.056
1.735,-0.056
1.736,-0.057
1.737,-0.059
1.738,-0.059
1.739,-0.062
1.740,-0.062
1.741,-0.062
1.742,-0.062
1.743,-0.062
1.744,-0.064
1.745,-0.066
1.746,-0.066
1.747,-0.066
1.748,-0.062
1.749,-0.062
1.750,-0.066
1.751,-0.069
1.752,-0.066
1.753,-0.066
1.754,-0.061
1.755,-0.053
1.756,-0.054
1.757,-0.056
1.758,-0.061
1.759,-0.059
1.760,-0.062
1.761,-0.059
1.762,-0.059
1.763,-0.059
1.764,-0.061
1.765,-0.062
1.766,-0.064
1.767,-0.066
1.768,-0.069
1.769,-0.069
1.770,-0.066
1.771,-0.062
1.772,-0.061
1.773,-0.062
1.774,-0.062
1.775,-0.066
1.776,-0.067
1.777,-0.069
1.778,-0.069
1.779,-0.069
1.780,-0.068
1.781,-0.066
1.782,-0.066
1.783,-0.066
1.784,-0.066
1.785,-0.066
1.786,-0.062
1.787,-0.062
1.788,-0.062
1.789,-0.059
1.790,-0.059
1.791,-0.059
1.792,-0.056
1.793,-0.056
1.794,-0.064
1.795,-0.066
1.796,-0.066
1.797,-0.069
1.798,-0.067
1.799,-0.066
1.800,-0.064
1.801,-0.066
1.802,-0.066
1.803,-0.066
1.804,-0.066
1.805,-0.066
1.806,-0.062
1.807,-0.056
1.808,-0.059
1.809,-0.056
1.810,-0.058
1.811,-0.053
1.812,-0.050
1.813,-0.050
1.814,-0.051
1.815,-0.050
1.816,-0.047
1.817,-0.044
1.818,-0.041
1.819,-0.038
1.820,-0.036
1.821,-0.031
1.822,-0.025
1.823,-0.019
1.824,-0.025
1.825,-0.006
1.826,-0.005
1.827,0.000
1.828,-0.001
1.829,0.000
1.830,-0.003
1.831,-0.006
1.832,-0.003
1.833,-0.006
1.834,-0.003
1.835,-0.003
1.836,-0.005
1.837,-0.003
1.838,-0.003
1.839,0.000
1.840,-0.004
1.841,-0.006
1.842,-0.007
1.843,-0.009
1.844,-0.002
1.845,0.000
1.846,-0.001
1.847,0.000
1.848,0.003
1.849,0.003
1.850,0.003
1.851,0.006
1.852,0.009
1.853,0.016
1.854,0.018
1.855,0.019
1.856,0.012
1.857,0.006
1.858,0.005
1.859,0.000
1.860,-0.003
1.861,-0.006
1.862,-0.003
1.863,-0.003
1.864,-0.002
1.865,0.003
1.866,0.004
1.867,0.006
1.868,0.006
1.869,0.006
1.870,-0.001
1.871,-0.009
1.872,-0.011
1.873,-0.009
1.874,-0.017
1.875,-0.022
1.876,-0.023
1.877,-0.028
1.878,-0.027
1.879,-0.028
1.880,-0.031
1.881,-0.031
1.882,-0.030
1.883,-0.031
1.884,-0.033
1.885,-0.034
1.886,-0.031
1.887,-0.031
1.888,-0.031
1.889,-0.031
1.890,-0.039
1.891,-0.047
1.892,-0.051
1.893,-0.053
1.894,-0.050
1.895,-0.050
1.896,-0.053
1.897,-0.053
1.898,-0.055
1.899,-0.053
1.900,-0.057
1.901,-0.062
1.902,-0.066
1.903,-0.069
1.904,-0.069
1.905,-0.069
1.906,-0.071
1.907,-0.069
1.908,-0.070
1.909,-0.072
1.910,-0.075
1.911,-0.078
1.912,-0.079
1.913,-0.081
1.914,-0.081
1.915,-0.081
1.916,-0.081
1.917,-0.081
1.918,-0.081
1.919,-0.081
1.920,-0.080
1.921,-0.081
1.922,-0.078
1.923,-0.078
1.924,-0.081
1.925,-0.081
1.926,-0.078
1.927,-0.075
1.928,-0.079
1.929,-0.078
1.930,-0.077
1.931,-0.078
1.932,-0.078
1.933,-0.078
1.934,-0.075
1.935,-0.075
1.936,-0.078
1.937,-0.078
1.938,-0.078
1.939,-0.078
1.940,-0.078
1.941,-0.078
1.942,-0.078
1.943,-0.078
1.944,-0.076
1.945,-0.081
1.946,-0.084
1.947,-0.084
1.948,-0.084
1.949,-0.081
1.950,-0.081
1.951,-0.081
1.952,-0.081
1.953,-0.084
1.954,-0.082
1.955,-0.084
1.956,-0.084
1.957,-0.084
1.958,-0.083
1.959,-0.078
1.960,-0.080
1.961,-0.078
1.962,-0.077
1.963,-0.078
1.964,-0.076
1.965,-0.078
1.966,-0.079
1.967,-0.081
1.968,-0.081
1.969,-0.081
1.970,-0.083
1.971,-0.087
1.972,-0.092
1.973,-0.106
1.974,-0.123
1.975,-0.137
1.976,-0.150
1.977,-0.169
1.978,-0.186
1.979,-0.194
1.980,-0.204
1.981,-0.203
1.982,-0.201
1.983,-0.194
1.984,-0.180
1.985,-0.156
1.986,-0.131
1.987,-0.100
1.988,-0.071
1.989,-0.034
1.990,0.006
1.991,0.053
1.992,0.097
1.993,0.131
1.994,0.162
1.995,0.209
1.996,0.253
1.997,0.309
1.998,0.376
1.999,0.434
2.000,0.491
2.001,0.581
2.002,0.664
2.003,0.737
2.004,0.808
2.005,0.866
2.006,0.930
2.007,0.969
2.008,1.017
2.009,1.059
2.010,1.114
2.011,1.166
2.012,1.211
2.013,1.253
2.014,1.268
2.015,1.272
2.016,1.238
2.017,1.163
2.018,1.086
2.019,0.984
2.020,0.891
2.021,0.813
2.022,0.739
2.023,0.669
2.024,0.608
2.025,0.566
2.026,0.519
2.027,0.478
2.028,0.434
2.029,0.391
2.030,0.341
2.031,0.281
2.032,0.219
2.033,0.156
2.034,0.099
2.035,0.044
2.036,-0.003
2.037,-0.044
2.038,-0.062
2.039,-0.075
2.040,-0.087
2.041,-0.097
2.042,-0.104
2.043,-0.106
2.044,-0.105
2.045,-0.100
2.046,-0.092
2.047,-0.078
2.048,-0.070
2.049,-0.059
2.050,-0.047
2.051,-0.034
2.052,-0.027
2.053,-0.022
2.054,-0.016
2.055,-0.009
2.056,0.003
2.057,0.003
2.058,0.004
2.059,0.003
2.060,0.006
2.061,0.003
2.062,0.003
2.063,0.003
2.064,0.000
2.065,-0.003
2.066,-0.006
2.067,-0.009
2.068,-0.008
2.069,-0.006
2.070,-0.009
2.071,-0.009
2.072,-0.005
2.073,0.000
2.074,-0.007
2.075,-0.016
2.076,-0.011
2.077,-0.012
2.078,-0.016
2.079,-0.012
2.080,-0.016
2.081,-0.012
2.082,-0.014
2.083,-0.012
2.084,-0.014
2.085,-0.012
2.086,-0.012
2.087,-0.012
2.088,-0.011
2.089,-0.009
2.090,-0.007
2.091,-0.009
2.092,-0.012
2.093,-0.012
2.094,-0.009
2.095,-0.009
2.096,-0.012
2.097,-0.012
2.098,-0.014
2.099,-0.016
2.100,-0.012
2.101,-0.012
2.102,-0.016
2.103,-0.016
2.104,-0.012
2.105,-0.009
2.106,-0.009
2.107,-0.009
2.108,-0.009
2.109,-0.009
2.110,-0.006
2.111,-0.009
2.112,-0.011
2.113,-0.012
2.114,-0.012
2.115,-0.012
2.116,-0.012
2.117,-0.012
2.118,-0.009
2.119,-0.006
2.120,-0.003
2.121,0.000
2.122,-0.004
2.123,-0.006
2.124,-0.009
2.125,-0.009
2.126,-0.009
2.127,-0.009
2.128,-0.003
2.129,0.000
2.130,-0.001
2.131,-0.003
2.132,-0.003
2.133,-0.006
2.134,-0.007
2.135,-0.006
2.136,-0.007
2.137,-0.006
2.138,-0.009
2.139,-0.009
2.140,-0.003
2.141,0.000
2.142,0.001
2.143,0.003
2.144,0.006
2.145,0.009
2.146,0.006
2.147,0.006
2.148,0.006
2.149,0.006
2.150,0.006
2.151,0.006
2.152,0.006
2.153,0.006
2.154,0.008
2.155,0.006
2.156,0.009
2.157,0.009
2.158,0.007
2.159,0.012
2.160,0.016
2.161,0.019
2.162,0.019
2.163,0.016
2.164,0.018
2.165,0.016
2.166,0.016
2.167,0.016
2.168,0.017
2.169,0.019
2.170,0.022
2.171,0.025
2.172,0.022
2.173,0.019
2.174,0.016
2.175,0.016
2.176,0.014
2.177,0.012
2.178,0.014
2.179,0.016
2.180,0.017
2.181,0.022
2.182,0.024
2.183,0.022
2.184,0.022
2.185,0.022
2.186,0.023
2.187,0.028
2.188,0.027
2.189,0.028
2.190,0.028
2.191,0.028
2.192,0.028
2.193,0.028
2.194,0.027
2.195,0.028
2.196,0.031
2.197,0.031
2.198,0.031
2.199,0.031
2.200,0.033
2.201,0.034
2.202,0.034
2.203,0.034
2.204,0.033
2.205,0.034
2.206,0.038
2.207,0.044
2.208,0.042
2.209,0.044
2.210,0.047
2.211,0.047
2.212,0.047
2.213,0.047
2.214,0.048
2.215,0.053
2.216,0.053
2.217,0.053
2.218,0.052
2.219,0.053
2.220,0.052
2.221,0.050
2.222,0.053
2.223,0.059
2.224,0.059
2.225,0.063
2.226,0.063
2.227,0.063
2.228,0.059
2.229,0.059
2.230,0.063
2.231,0.063
2.232,0.067
2.233,0.066
2.234,0.068
2.235,0.066
2.236,0.067
2.237,0.072
2.238,0.074
2.239,0.075
2.240,0.075
2.241,0.075
2.242,0.075
2.243,0.078
2.244,0.075
2.245,0.078
2.246,0.081
2.247,0.084
2.248,0.084
2.249,0.084
2.250,0.078
2.251,0.075
2.252,0.074
2.253,0.075
2.254,0.078
2.255,0.078
2.256,0.079
2.257,0.081
2.258,0.084
2.259,0.084
2.260,0.089
2.261,0.087
2.262,0.086
2.263,0.087
2.264,0.086
2.265,0.084
2.266,0.086
2.267,0.084
2.268,0.091
2.269,0.094
2.270,0.098
2.271,0.103
2.272,0.105
2.273,0.103
2.274,0.105
2.275,0.103
2.276,0.104
2.277,0.106
2.278,0.103
2.279,0.106
2.280,0.105
2.281,0.103
2.282,0.113
2.283,0.116
2.284,0.114
2.285,0.116
2.286,0.113
2.287,0.109
2.288,0.109
2.289,0.113
2.290,0.119
2.291,0.128
2.292,0.133
2.293,0.131
2.294,0.136
2.295,0.141
2.296,0.141
2.297,0.138
2.298,0.139
2.299,0.144
2.300,0.141
2.301,0.144
2.302,0.147
2.303,0.147
2.304,0.147
2.305,0.147
2.306,0.144
2.307,0.144
2.308,0.145
2.309,0.147
2.310,0.147
2.311,0.147
2.312,0.147
2.313,0.144
2.314,0.141
2.315,0.141
2.316,0.144
2.317,0.144
2.318,0.139
2.319,0.134
2.320,0.130
2.321,0.125
2.322,0.121
2.323,0.119
2.324,0.120
2.325,0.119
2.326,0.117
2.327,0.116
2.328,0.109
2.329,0.106
2.330,0.100
2.331,0.097
2.332,0.091
2.333,0.087
2.334,0.086
2.335,0.081
2.336,0.078
2.337,0.075
2.338,0.069
2.339,0.066
2.340,0.064
2.341,0.059
2.342,0.056
2.343,0.050
2.344,0.050
2.345,0.044
2.346,0.042
2.347,0.034
2.348,0.031
2.349,0.028
2.350,0.026
2.351,0.025
2.352,0.022
2.353,0.019
2.354,0.017
2.355,0.012
2.356,0.012
2.357,0.006
2.358,0.003
2.359,0.000
2.360,-0.003
2.361,-0.006
2.362,-0.006
2.363,-0.006
2.364,-0.008
2.365,-0.006
2.366,-0.011
2.367,-0.016
2.368,-0.017
2.369,-0.019
2.370,-0.023
2.371,-0.025
2.372,-0.025
2.373,-0.028
2.374,-0.028
2.375,-0.031
2.376,-0.034
2.377,-0.041
2.378,-0.044
2.379,-0.047
2.380,-0.047
2.381,-0.047
2.382,-0.041
2.383,-0.038
2.384,-0.041
2.385,-0.044
2.386,-0.045
2.387,-0.047
2.388,-0.050
2.389,-0.050
2.390,-0.050
2.391,-0.050
2.392,-0.050
2.393,-0.050
2.394,-0.050
2.395,-0.053
2.396,-0.053
2.397,-0.053
2.398,-0.052
2.399,-0.053
2.400,-0.054
2.401,-0.053
2.402,-0.055
2.403,-0.053
2.404,-0.053
2.405,-0.053
2.406,-0.054
2.407,-0.053
2.408,-0.056
2.409,-0.053
2.410,-0.052
2.411,-0.050
2.412,-0.047
2.413,-0.044
2.414,-0.042
2.415,-0.047
2.416,-0.048
2.417,-0.050
2.418,-0.054
2.419,-0.053
2.420,-0.053
2.421,-0.053
2.422,-0.052
2.423,-0.050
2.424,-0.051
2.425,-0.053
2.426,-0.053
2.427,-0.053
2.428,-0.053
2.429,-0.050
2.430,-0.049
2.431,-0.047
2.432,-0.047
2.433,-0.047
2.434,-0.047
2.435,-0.047
2.436,-0.048
2.437,-0.047
2.438,-0.044
2.439,-0.044
2.440,-0.041
2.441,-0.044
2.442,-0.045
2.443,-0.041
2.444,-0.042
2.445,-0.041
2.446,-0.042
2.447,-0.044
2.448,-0.044
2.449,-0.044
2.450,-0.047
2.451,-0.047
2.452,-0.046
2.453,-0.044
2.454,-0.047
2.455,-0.047
2.456,-0.042
2.457,-0.041
2.458,-0.044
2.459,-0.044
2.460,-0.044
2.461,-0.044
2.462,-0.044
2.463,-0.044
2.464,-0.047
2.465,-0.047
2.466,-0.047
2.467,-0.047
2.468,-0.042
2.469,-0.038
2.470,-0.038
2.471,-0.038
2.472,-0.039
2.473,-0.041
2.474,-0.039
2.475,-0.038
2.476,-0.044
2.477,-0.044
2.478,-0.042
2.479,-0.038
2.480,-0.034
2.481,-0.031
2.482,-0.033
2.483,-0.031
2.484,-0.031
2.485,-0.031
2.486,-0.034
2.487,-0.034
2.488,-0.031
2.489,-0.034
2.490,-0.031
2.491,-0.034
2.492,-0.036
2.493,-0.031
2.494,-0.031
2.495,-0.031
2.496,-0.030
2.497,-0.031
2.498,-0.031
2.499,-0.025
2.500,-0.023
2.501,-0.028
2.502,-0.026
2.503,-0.028
2.504,-0.028
2.505,-0.028
2.506,-0.028
2.507,-0.028
2.508,-0.031
2.509,-0.031
2.510,-0.029
2.511,-0.031
2.512,-0.033
2.513,-0.031
2.514,-0.031
2.515,-0.028
2.516,-0.027
2.517,-0.028
2.518,-0.029
2.519,-0.028
2.520,-0.028
2.521,-0.028
2.522,-0.028
2.523,-0.025
2.524,-0.025
2.525,-0.019
2.526,-0.021
2.527,-0.022
2.528,-0.025
2.529,-0.028
2.530,-0.029
2.531,-0.031
2.532,-0.031
2.533,-0.031
2.534,-0.028
2.535,-0.031
2.536,-0.031
2.537,-0.031
2.538,-0.031
2.539,-0.031
2.540,-0.034
2.541,-0.034
2.542,-0.034
2.543,-0.034
2.544,-0.039
2.545,-0.038
2.546,-0.036
2.547,-0.034
2.548,-0.036
2.549,-0.034
2.550,-0.039
2.551,-0.038
2.552,-0.041
2.553,-0.038
2.554,-0.039
2.555,-0.041
2.556,-0.036
2.557,-0.034
2.558,-0.038
2.559,-0.038
2.560,-0.041
2.561,-0.041
2.562,-0.041
2.563,-0.038
2.564,-0.041
2.565,-0.041
2.566,-0.044
2.567,-0.047
2.568,-0.046
2.569,-0.047
2.570,-0.047
2.571,-0.047
2.572,-0.047
2.573,-0.047
2.574,-0.047
2.575,-0.047
2.576,-0.046
2.577,-0.047
2.578,-0.048
2.579,-0.050
2.580,-0.050
2.581,-0.047
2.582,-0.053
2.583,-0.056
2.584,-0.059
2.585,-0.059
2.586,-0.061
2.587,-0.059
2.588,-0.056
2.589,-0.056
2.590,-0.057
2.591,-0.059
2.592,-0.059
2.593,-0.062
2.594,-0.059
2.595,-0.059
2.596,-0.058
2.597,-0.059
2.598,-0.058
2.599,-0.059
2.600,-0.062
2.601,-0.059
2.602,-0.066
2.603,-0.069
2.604,-0.072
2.605,-0.075
2.606,-0.069
2.607,-0.066
2.608,-0.064
2.609,-0.062
2.610,-0.067
2.611,-0.069
2.612,-0.067
2.613,-0.069
2.614,-0.069
2.615,-0.069
2.616,-0.068
2.617,-0.069
2.618,-0.069
2.619,-0.069
2.620,-0.069
2.621,-0.069
2.622,-0.069
2.623,-0.069
2.624,-0.069
2.625,-0.069
2.626,-0.068
2.627,-0.069
2.628,-0.068
2.629,-0.066
2.630,-0.069
2.631,-0.069
2.632,-0.072
2.633,-0.072
2.634,-0.074
2.635,-0.072
2.636,-0.072
2.637,-0.072
2.638,-0.072
2.639,-0.072
2.640,-0.072
2.641,-0.072
2.642,-0.075
2.643,-0.075
2.644,-0.075
2.645,-0.075
2.646,-0.075
2.647,-0.075
2.648,-0.072
2.649,-0.075
2.650,-0.075
2.651,-0.075
2.652,-0.072
2.653,-0.075
2.654,-0.074
2.655,-0.075
2.656,-0.075
2.657,-0.075
2.658,-0.075
2.659,-0.072
2.660,-0.075
2.661,-0.072
2.662,-0.072
2.663,-0.072
2.664,-0.074
2.665,-0.072
2.666,-0.076
2.667,-0.075
2.668,-0.075
2.669,-0.075
2.670,-0.075
2.671,-0.075
2.672,-0.076
2.673,-0.081
2.674,-0.081
2.675,-0.081
2.676,-0.081
2.677,-0.081
2.678,-0.082
2.679,-0.084
2.680,-0.081
2.681,-0.084
2.682,-0.084
2.683,-0.084
2.684,-0.083
2.685,-0.081
2.686,-0.082
2.687,-0.084
2.688,-0.081
2.689,-0.084
2.690,-0.084
2.691,-0.084
2.692,-0.084
2.693,-0.084
2.694,-0.084
2.695,-0.084
2.696,-0.084
2.697,-0.081
2.698,-0.084
2.699,-0.084
2.700,-0.083
2.701,-0.081
2.702,-0.081
2.703,-0.081
2.704,-0.082
2.705,-0.084
2.706,-0.084
2.707,-0.084
2.708,-0.081
2.709,-0.081
2.710,-0.083
2.711,-0.084
2.712,-0.084
2.713,-0.084
2.714,-0.084
2.715,-0.084
2.716,-0.084
2.717,-0.084
2.718,-0.084
2.719,-0.084
2.720,-0.083
2.721,-0.081
2.722,-0.080
2.723,-0.078
2.724,-0.078
2.725,-0.078
2.726,-0.078
2.727,-0.078
2.728,-0.079
2.729,-0.081
2.730,-0.082
2.731,-0.084
2.732,-0.084
2.733,-0.084
2.734,-0.083
2.735,-0.081
2.736,-0.084
2.737,-0.087
2.738,-0.089
2.739,-0.091
2.740,-0.089
2.741,-0.087
2.742,-0.087
2.743,-0.091
2.744,-0.084
2.745,-0.081
2.746,-0.080
2.747,-0.078
2.748,-0.079
2.749,-0.081
2.750,-0.081
2.751,-0.081
2.752,-0.079
2.753,-0.084
2.754,-0.089
2.755,-0.087
2.756,-0.089
2.757,-0.091
2.758,-0.089
2.759,-0.091
2.760,-0.091
2.761,-0.091
2.762,-0.089
2.763,-0.091
2.764,-0.091
2.765,-0.087
2.766,-0.089
2.767,-0.087
2.768,-0.083
2.769,-0.084
2.770,-0.084
2.771,-0.084
2.772,-0.084
2.773,-0.084
2.774,-0.084
2.775,-0.084
2.776,-0.084
2.777,-0.084
2.778,-0.087
2.779,-0.087
2.780,-0.084
2.781,-0.087
2.782,-0.089
2.783,-0.091
2.784,-0.087
2.785,-0.087
2.786,-0.087
2.787,-0.084
2.788,-0.086
2.789,-0.087
2.790,-0.086
2.791,-0.087
2.792,-0.086
2.793,-0.087
2.794,-0.087
2.795,-0.087
2.796,-0.087
2.797,-0.087
2.798,-0.084
2.799,-0.087
2.800,-0.087
2.801,-0.087
2.802,-0.087
2.803,-0.087
2.804,-0.084
2.805,-0.081
2.806,-0.080
2.807,-0.078
2.808,-0.082
2.809,-0.084
2.810,-0.084
2.811,-0.087
2.812,-0.089
2.813,-0.087
2.814,-0.086
2.815,-0.084
2.816,-0.087
2.817,-0.087
2.818,-0.086
2.819,-0.084
2.820,-0.086
2.821,-0.087
2.822,-0.084
2.823,-0.084
2.824,-0.087
2.825,-0.087
2.826,-0.083
2.827,-0.081
2.828,-0.078
2.829,-0.078
2.830,-0.082
2.831,-0.087
2.832,-0.089
2.833,-0.091
2.834,-0.091
2.835,-0.091
2.836,-0.086
2.837,-0.081
2.838,-0.081
2.839,-0.078
2.840,-0.079
2.841,-0.081
2.842,-0.081
2.843,-0.081
2.844,-0.084
2.845,-0.087
2.846,-0.091
2.847,-0.091
2.848,-0.087
2.849,-0.087
2.850,-0.087
2.851,-0.091
2.852,-0.087
2.853,-0.087
2.854,-0.086
2.855,-0.084
2.856,-0.087
2.857,-0.087
2.858,-0.086
2.859,-0.084
2.860,-0.084
2.861,-0.081
2.862,-0.086
2.863,-0.087
2.864,-0.084
2.865,-0.084
2.866,-0.087
2.867,-0.087
2.868,-0.086
2.869,-0.087
2.870,-0.086
2.871,-0.087
2.872,-0.086
2.873,-0.087
2.874,-0.086
2.875,-0.087
2.876,-0.086
2.877,-0.087
2.878,-0.086
2.879,-0.084
2.880,-0.089
2.881,-0.087
2.882,-0.084
2.883,-0.084
2.884,-0.089
2.885,-0.087
2.886,-0.086
2.887,-0.087
2.888,-0.087
2.889,-0.087
2.890,-0.086
2.891,-0.084
2.892,-0.086
2.893,-0.087
2.894,-0.087
2.895,-0.087
2.896,-0.086
2.897,-0.084
2.898,-0.084
2.899,-0.084
2.900,-0.084
2.901,-0.084
2.902,-0.089
2.903,-0.087
2.904,-0.084
2.905,-0.087
2.906,-0.086
2.907,-0.087
2.908,-0.089
2.909,-0.087
2.910,-0.087
2.911,-0.087
2.912,-0.086
2.913,-0.087
2.914,-0.086
2.915,-0.087
2.916,-0.087
2.917,-0.087
2.918,-0.084
2.919,-0.081
2.920,-0.080
2.921,-0.078
2.922,-0.078
2.923,-0.078
2.924,-0.075
2.925,-0.072
2.926,-0.072
2.927,-0.072
2.928,-0.073
2.929,-0.075
2.930,-0.073
2.931,-0.075
2.932,-0.075
2.933,-0.075
2.934,-0.075
2.935,-0.075
2.936,-0.078
2.937,-0.078
2.938,-0.079
2.939,-0.078
2.940,-0.075
2.941,-0.072
2.942,-0.071
2.943,-0.072
2.944,-0.073
2.945,-0.075
2.946,-0.074
2.947,-0.072
2.948,-0.071
2.949,-0.069
2.950,-0.069
2.951,-0.072
2.952,-0.073
2.953,-0.075
2.954,-0.075
2.955,-0.075
2.956,-0.075
2.957,-0.075
2.958,-0.075
2.959,-0.075
2.960,-0.074
2.961,-0.072
2.962,-0.075
2.963,-0.075
2.964,-0.075
2.965,-0.075
2.966,-0.074
2.967,-0.072
2.968,-0.072
2.969,-0.072
2.970,-0.073
2.971,-0.072
2.972,-0.071
2.973,-0.072
2.974,-0.076
2.975,-0.075
2.976,-0.075
2.977,-0.075
2.978,-0.073
2.979,-0.075
2.980,-0.074
2.981,-0.075
2.982,-0.072
2.983,-0.075
2.984,-0.073
2.985,-0.075
2.986,-0.075
2.987,-0.075
2.988,-0.074
2.989,-0.072
2.990,-0.069
2.991,-0.069
2.992,-0.069
2.993,-0.069
2.994,-0.070
2.995,-0.069
2.996,-0.069
2.997,-0.069
2.998,-0.072
2.999,-0.072
3.000,-0.072
3.001,-0.072
3.002,-0.072
3.003,-0.072
3.004,-0.072
3.005,-0.072
3.006,-0.072
3.007,-0.072
3.008,-0.071
3.009,-0.066
3.010,-0.064
3.011,-0.066
3.012,-0.067
3.013,-0.069
3.014,-0.069
3.015,-0.066
3.016,-0.066
3.017,-0.069
3.018,-0.066
3.019,-0.066
3.020,-0.070
3.021,-0.069
3.022,-0.066
3.023,-0.066
3.024,-0.068
3.025,-0.066
3.026,-0.066
3.027,-0.066
3.028,-0.067
3.029,-0.069
3.030,-0.064
3.031,-0.066
3.032,-0.061
3.033,-0.062
3.034,-0.061
3.035,-0.059
3.036,-0.058
3.037,-0.056
3.038,-0.054
3.039,-0.053
3.040,-0.051
3.041,-0.050
3.042,-0.046
3.043,-0.044
3.044,-0.038
3.045,-0.034
3.046,-0.038
3.047,-0.038
3.048,-0.014
3.049,-0.019
3.050,-0.014
3.051,-0.012
3.052,-0.005
3.053,0.003
3.054,0.005
3.055,0.006
3.056,0.002
3.057,0.003
3.058,0.004
3.059,0.000
3.060,0.000
3.061,0.000
3.062,0.001
3.063,0.000
3.064,-0.001
3.065,-0.003
3.066,-0.003
3.067,0.000
3.068,-0.002
3.069,0.000
3.070,0.000
3.071,0.000
3.072,0.001
3.073,0.003
3.074,0.006
3.075,0.006
3.076,0.005
3.077,0.003
3.078,0.007
3.079,0.009
3.080,0.009
3.081,0.016
3.082,0.016
3.083,0.009
3.084,0.007
3.085,0.003
3.086,-0.005
3.087,-0.003
3.088,0.001
3.089,0.003
3.090,0.003
3.091,0.003
3.092,0.004
3.093,0.003
3.094,0.000
3.095,0.000
3.096,0.007
3.097,0.003
3.098,-0.006
3.099,-0.009
3.100,-0.012
3.101,-0.012
3.102,-0.017
3.103,-0.022
3.104,-0.022
3.105,-0.022
3.106,-0.025
3.107,-0.025
3.108,-0.028
3.109,-0.031
3.110,-0.033
3.111,-0.031
3.112,-0.031
3.113,-0.031
3.114,-0.030
3.115,-0.031
3.116,-0.033
3.117,-0.038
3.118,-0.039
3.119,-0.041
3.120,-0.044
3.121,-0.047
3.122,-0.047
3.123,-0.050
3.124,-0.053
3.125,-0.053
3.126,-0.056
3.127,-0.062
3.128,-0.066
3.129,-0.069
3.130,-0.070
3.131,-0.072
3.132,-0.071
3.133,-0.069
3.134,-0.069
3.135,-0.069
3.136,-0.069
3.137,-0.069
3.138,-0.072
3.139,-0.075
3.140,-0.075
3.141,-0.075
3.142,-0.075
3.143,-0.075
3.144,-0.078
3.145,-0.075
3.146,-0.074
3.147,-0.075
3.148,-0.076
3.149,-0.078
3.150,-0.077
3.151,-0.078
3.152,-0.075
3.153,-0.075
3.154,-0.079
3.155,-0.081
3.156,-0.082
3.157,-0.081
3.158,-0.081
3.159,-0.084
3.160,-0.084
3.161,-0.084
3.162,-0.084
3.163,-0.084
3.164,-0.084
3.165,-0.084
3.166,-0.083
3.167,-0.078
3.168,-0.080
3.169,-0.081
3.170,-0.081
3.171,-0.081
3.172,-0.079
3.173,-0.081
3.174,-0.080
3.175,-0.078
3.176,-0.084
3.177,-0.084
3.178,-0.084
3.179,-0.084
3.180,-0.083
3.181,-0.081
3.182,-0.079
3.183,-0.084
3.184,-0.084
3.185,-0.084
3.186,-0.086
3.187,-0.081
3.188,-0.081
3.189,-0.081
3.190,-0.078
3.191,-0.078
3.192,-0.080
3.193,-0.081
3.194,-0.087
3.195,-0.091
3.196,-0.099
3.197,-0.109
3.198,-0.122
3.199,-0.134
3.200,-0.153
3.201,-0.172
3.202,-0.189
3.203,-0.206
3.204,-0.207
3.205,-0.209
3.206,-0.206
3.207,-0.203
3.208,-0.186
3.209,-0.166
3.210,-0.136
3.211,-0.106
3.212,-0.073
3.213,-0.038
3.214,0.011
3.215,0.063
3.216,0.096
3.217,0.122
3.218,0.166
3.219,0.209
3.220,0.268
3.221,0.328
3.222,0.375
3.223,0.422
3.224,0.511
3.225,0.600
3.226,0.679
3.227,0.759
3.228,0.826
3.229,0.897
3.230,0.944
3.231,0.997
3.232,1.036
3.233,1.091
3.234,1.147
3.235,1.194
3.236,1.245
3.237,1.278
3.238,1.322
3.239,1.334
3.240,1.295
3.241,1.231
3.242,1.121
3.243,1.012
3.244,0.922
3.245,0.838
3.246,0.755
3.247,0.675
3.248,0.606
3.249,0.544
3.250,0.494
3.251,0.431
3.252,0.372
3.253,0.319
3.254,0.264
3.255,0.216
3.256,0.167
3.257,0.116
3.258,0.058
3.259,0.009
3.260,-0.028
3.261,-0.047
3.262,-0.059
3.263,-0.066
3.264,-0.069
3.265,-0.072
3.266,-0.069
3.267,-0.069
3.268,-0.064
3.269,-0.053
3.270,-0.038
3.271,-0.028
3.272,-0.014
3.273,-0.003
3.274,0.003
3.275,0.006
3.276,0.011
3.277,0.019
3.278,0.028
3.279,0.044
3.280,0.042
3.281,0.041
3.282,0.038
3.283,0.041
3.284,0.038
3.285,0.034
3.286,0.031
3.287,0.028
3.288,0.024
3.289,0.019
3.290,0.014
3.291,0.012
3.292,0.014
3.293,0.012
3.294,0.009
3.295,0.009
3.296,0.011
3.297,0.006
3.298,0.003
3.299,0.006
3.300,0.004
3.301,0.003
3.302,0.006
3.303,0.003
3.304,0.006
3.305,0.003
3.306,0.004
3.307,0.003
3.308,0.003
3.309,0.003
3.310,0.003
3.311,0.003
3.312,0.002
3.313,0.003
3.314,0.004
3.315,0.003
3.316,0.002
3.317,0.003
3.318,0.004
3.319,0.003
3.320,0.003
3.321,0.003
3.322,0.002
3.323,0.003
3.324,0.003
3.325,0.000
3.326,0.000
3.327,0.003
3.328,0.006
3.329,0.006
3.330,0.006
3.331,0.006
3.332,0.006
3.333,0.009
3.334,0.006
3.335,0.006
3.336,0.006
3.337,0.006
3.338,0.006
3.339,0.006
3.340,0.006
3.341,0.006
3.342,0.005
3.343,0.006
3.344,0.009
3.345,0.006
3.346,0.006
3.347,0.006
3.348,0.011
3.349,0.012
3.350,0.012
3.351,0.016
3.352,0.016
3.353,0.016
3.354,0.017
3.355,0.019
3.356,0.016
3.357,0.016
3.358,0.018
3.359,0.016
3.360,0.019
3.361,0.016
3.362,0.017
3.363,0.022
3.364,0.022
3.365,0.022
3.366,0.021
3.367,0.019
3.368,0.019
3.369,0.019
3.370,0.023
3.371,0.025
3.372,0.025
3.373,0.025
3.374,0.025
3.375,0.025
3.376,0.025
3.377,0.028
3.378,0.027
3.379,0.028
3.380,0.028
3.381,0.025
3.382,0.027
3.383,0.025
3.384,0.025
3.385,0.028
3.386,0.028
3.387,0.031
3.388,0.031
3.389,0.031
3.390,0.031
3.391,0.031
3.392,0.033
3.393,0.034
3.394,0.034
3.395,0.034
3.396,0.034
3.397,0.034
3.398,0.038
3.399,0.038
3.400,0.036
3.401,0.038
3.402,0.042
3.403,0.041
3.404,0.042
3.405,0.047
3.406,0.046
3.407,0.044
3.408,0.042
3.409,0.041
3.410,0.044
3.411,0.044
3.412,0.047
3.413,0.047
3.414,0.046
3.415,0.044
3.416,0.047
3.417,0.050
3.418,0.053
3.419,0.056
3.420,0.055
3.421,0.053
3.422,0.056
3.423,0.059
3.424,0.059
3.425,0.059
3.426,0.059
3.427,0.059
3.428,0.061
3.429,0.059
3.430,0.064
3.431,0.066
3.432,0.068
3.433,0.069
3.434,0.069
3.435,0.069
3.436,0.069
3.437,0.069
3.438,0.071
3.439,0.069
3.440,0.070
3.441,0.072
3.442,0.075
3.443,0.075
3.444,0.075
3.445,0.075
3.446,0.078
3.447,0.078
3.448,0.082
3.449,0.084
3.450,0.084
3.451,0.084
3.452,0.086
3.453,0.087
3.454,0.087
3.455,0.091
3.456,0.091
3.457,0.097
3.458,0.097
3.459,0.097
3.460,0.099
3.461,0.100
3.462,0.103
3.463,0.103
3.464,0.106
3.465,0.109
3.466,0.114
3.467,0.113
3.468,0.113
3.469,0.113
3.470,0.114
3.471,0.113
3.472,0.116
3.473,0.119
3.474,0.122
3.475,0.122
3.476,0.124
3.477,0.125
3.478,0.125
3.479,0.125
3.480,0.128
3.481,0.134
3.482,0.131
3.483,0.134
3.484,0.136
3.485,0.138
3.486,0.141
3.487,0.141
3.488,0.142
3.489,0.147
3.490,0.150
3.491,0.156
3.492,0.153
3.493,0.153
3.494,0.156
3.495,0.159
3.496,0.161
3.497,0.166
3.498,0.167
3.499,0.169
3.500,0.170
3.501,0.172
3.502,0.175
3.503,0.172
3.504,0.172
3.505,0.178
3.506,0.178
3.507,0.178
3.508,0.183
3.509,0.184
3.510,0.186
3.511,0.188
3.512,0.189
3.513,0.191
3.514,0.197
3.515,0.200
3.516,0.198
3.517,0.200
3.518,0.199
3.519,0.200
3.520,0.201
3.521,0.206
3.522,0.213
3.523,0.209
3.524,0.213
3.525,0.216
3.526,0.216
3.527,0.216
3.528,0.216
3.529,0.216
3.530,0.218
3.531,0.216
3.532,0.216
3.533,0.216
3.534,0.217
3.535,0.219
3.536,0.216
3.537,0.213
3.538,0.213
3.539,0.213
3.540,0.206
3.541,0.200
3.542,0.196
3.543,0.191
3.544,0.188
3.545,0.184
3.546,0.183
3.547,0.181
3.548,0.178
3.549,0.175
3.550,0.172
3.551,0.166
3.552,0.159
3.553,0.150
3.554,0.147
3.555,0.141
3.556,0.138
3.557,0.134
3.558,0.127
3.559,0.122
3.560,0.117
3.561,0.109
3.562,0.108
3.563,0.106
3.564,0.097
3.565,0.091
3.566,0.086
3.567,0.084
3.568,0.075
3.569,0.075
3.570,0.069
3.571,0.066
3.572,0.063
3.573,0.059
3.574,0.055
3.575,0.050
3.576,0.048
3.577,0.047
3.578,0.039
3.579,0.038
3.580,0.033
3.581,0.031
3.582,0.027
3.583,0.022
3.584,0.018
3.585,0.012
3.586,0.009
3.587,0.006
3.588,0.007
3.589,0.006
3.590,0.003
3.591,0.000
3.592,-0.003
3.593,-0.006
3.594,-0.007
3.595,-0.009
3.596,-0.011
3.597,-0.009
3.598,-0.011
3.599,-0.012
3.600,-0.019
3.601,-0.019
3.602,-0.020
3.603,-0.025
3.604,-0.029
3.605,-0.028
3.606,-0.025
3.607,-0.025
3.608,-0.028
3.609,-0.028
3.610,-0.028
3.611,-0.031
3.612,-0.031
3.613,-0.031
3.614,-0.031
3.615,-0.031
3.616,-0.031
3.617,-0.031
3.618,-0.034
3.619,-0.034
3.620,-0.034
3.621,-0.034
3.622,-0.038
3.623,-0.038
3.624,-0.034
3.625,-0.038
3.626,-0.038
3.627,-0.038
3.628,-0.038
3.629,-0.038
3.630,-0.034
3.631,-0.038
3.632,-0.034
3.633,-0.034
3.634,-0.038
3.635,-0.041
3.636,-0.041
3.637,-0.038
3.638,-0.041
3.639,-0.041
3.640,-0.039
3.641,-0.041
3.642,-0.036
3.643,-0.034
3.644,-0.038
3.645,-0.041
3.646,-0.039
3.647,-0.038
3.648,-0.036
3.649,-0.034
3.650,-0.036
3.651,-0.038
3.652,-0.038
3.653,-0.041
3.654,-0.042
3.655,-0.044
3.656,-0.041
3.657,-0.038
3.658,-0.038
3.659,-0.038
3.660,-0.034
3.661,-0.034
3.662,-0.038
3.663,-0.034
3.664,-0.038
3.665,-0.038
3.666,-0.033
3.667,-0.038
3.668,-0.038
3.669,-0.038
3.670,-0.038
3.671,-0.038
3.672,-0.038
3.673,-0.038
3.674,-0.036
3.675,-0.038
3.676,-0.036
3.677,-0.038
3.678,-0.036
3.679,-0.031
3.680,-0.028
3.681,-0.025
3.682,-0.023
3.683,-0.025
3.684,-0.026
3.685,-0.028
3.686,-0.029
3.687,-0.031
3.688,-0.028
3.689,-0.028
3.690,-0.028
3.691,-0.028
3.692,-0.027
3.693,-0.025
3.694,-0.025
3.695,-0.025
3.696,-0.025
3.697,-0.025
3.698,-0.022
3.699,-0.022
3.700,-0.020
3.701,-0.022
3.702,-0.019
3.703,-0.019
3.704,-0.017
3.705,-0.016
3.706,-0.014
3.707,-0.016
3.708,-0.017
3.709,-0.022
3.710,-0.023
3.711,-0.022
3.712,-0.024
3.713,-0.019
3.714,-0.021
3.715,-0.019
3.716,-0.012
3.717,-0.012
3.718,-0.014
3.719,-0.016
3.720,-0.017
3.721,-0.019
3.722,-0.017
3.723,-0.016
3.724,-0.020
3.725,-0.019
3.726,-0.019
3.727,-0.019
3.728,-0.019
3.729,-0.019
3.730,-0.017
3.731,-0.019
3.732,-0.020
3.733,-0.019
3.734,-0.017
3.735,-0.016
3.736,-0.011
3.737,-0.012
3.738,-0.011
3.739,-0.009
3.740,-0.014
3.741,-0.016
3.742,-0.012
3.743,-0.012
3.744,-0.011
3.745,-0.012
3.746,-0.014
3.747,-0.016
3.748,-0.008
3.749,-0.009
3.750,-0.012
3.751,-0.012
3.752,-0.014
3.753,-0.016
3.754,-0.016
3.755,-0.016
3.756,-0.016
3.757,-0.012
3.758,-0.016
3.759,-0.016
3.760,-0.016
3.761,-0.016
3.762,-0.014
3.763,-0.016
3.764,-0.016
3.765,-0.016
3.766,-0.014
3.767,-0.016
3.768,-0.014
3.769,-0.016
3.770,-0.014
3.771,-0.016
3.772,-0.014
3.773,-0.016
3.774,-0.012
3.775,-0.016
3.776,-0.014
3.777,-0.019
3.778,-0.025
3.779,-0.025
3.780,-0.024
3.781,-0.025
3.782,-0.025
3.783,-0.025
3.784,-0.022
3.785,-0.025
3.786,-0.024
3.787,-0.025
3.788,-0.026
3.789,-0.028
3.790,-0.028
3.791,-0.028
3.792,-0.031
3.793,-0.031
3.794,-0.031
3.795,-0.031
3.796,-0.031
3.797,-0.031
3.798,-0.030
3.799,-0.028
3.800,-0.031
3.801,-0.031
3.802,-0.031
3.803,-0.031
3.804,-0.029
3.805,-0.034
3.806,-0.036
3.807,-0.038
3.808,-0.031
3.809,-0.034
3.810,-0.039
3.811,-0.038
3.812,-0.038
3.813,-0.038
3.814,-0.036
3.815,-0.034
3.816,-0.039
3.817,-0.038
3.818,-0.036
3.819,-0.034
3.820,-0.041
3.821,-0.044
3.822,-0.047
3.823,-0.047
3.824,-0.039
3.825,-0.041
3.826,-0.038
3.827,-0.038
3.828,-0.044
3.829,-0.044
3.830,-0.045
3.831,-0.047
3.832,-0.046
3.833,-0.047
3.834,-0.048
3.835,-0.047
3.836,-0.047
3.837,-0.047
3.838,-0.046
3.839,-0.044
3.840,-0.047
3.841,-0.047
3.842,-0.047
3.843,-0.047
3.844,-0.047
3.845,-0.047
3.846,-0.047
3.847,-0.047
3.848,-0.048
3.849,-0.050
3.850,-0.053
3.851,-0.053
3.852,-0.052
3.853,-0.053
3.854,-0.053
3.855,-0.053
3.856,-0.049
3.857,-0.050
3.858,-0.051
3.859,-0.053
3.860,-0.053
3.861,-0.053
3.862,-0.053
3.863,-0.053
3.864,-0.052
3.865,-0.053
3.866,-0.053
3.867,-0.053
3.868,-0.053
3.869,-0.053
3.870,-0.056
3.871,-0.056
3.872,-0.058
3.873,-0.056
3.874,-0.055
3.875,-0.050
3.876,-0.054
3.877,-0.056
3.878,-0.061
3.879,-0.062
3.880,-0.061
3.881,-0.059
3.882,-0.056
3.883,-0.059
3.884,-0.059
3.885,-0.062
3.886,-0.061
3.887,-0.062
3.888,-0.061
3.889,-0.062
3.890,-0.061
3.891,-0.062
3.892,-0.059
3.893,-0.056
3.894,-0.056
3.895,-0.056
3.896,-0.061
3.897,-0.062
3.898,-0.062
3.899,-0.062
3.900,-0.061
3.901,-0.059
3.902,-0.059
3.903,-0.056
3.904,-0.061
3.905,-0.062
3.906,-0.062
3.907,-0.062
3.908,-0.062
3.909,-0.062
3.910,-0.062
3.911,-0.059
3.912,-0.062
3.913,-0.062
3.914,-0.062
3.915,-0.062
3.916,-0.064
3.917,-0.066
3.918,-0.067
3.919,-0.069
3.920,-0.064
3.921,-0.066
3.922,-0.066
3.923,-0.066
3.924,-0.066
3.925,-0.066
3.926,-0.066
3.927,-0.066
3.928,-0.066
3.929,-0.066
3.930,-0.064
3.931,-0.059
3.932,-0.059
3.933,-0.062
3.934,-0.066
3.935,-0.066
3.936,-0.066
3.937,-0.066
3.938,-0.066
3.939,-0.066
3.940,-0.066
3.941,-0.066
3.942,-0.067
3.943,-0.069
3.944,-0.068
3.945,-0.066
3.946,-0.066
3.947,-0.066
3.948,-0.066
3.949,-0.066
3.950,-0.066
3.951,-0.066
3.952,-0.066
3.953,-0.066
3.954,-0.066
3.955,-0.066
3.956,-0.067
3.957,-0.069
3.958,-0.070
3.959,-0.072
3.960,-0.072
3.961,-0.072
3.962,-0.072
3.963,-0.072
3.964,-0.071
3.965,-0.069
3.966,-0.068
3.967,-0.066
3.968,-0.067
3.969,-0.069
3.970,-0.069
3.971,-0.069
3.972,-0.070
3.973,-0.072
3.974,-0.072
3.975,-0.072
3.976,-0.072
3.977,-0.072
3.978,-0.072
3.979,-0.072
3.980,-0.071
3.981,-0.069
3.982,-0.069
3.983,-0.069
3.984,-0.069
3.985,-0.069
3.986,-0.070
3.987,-0.072
3.988,-0.073
3.989,-0.075
3.990,-0.072
3.991,-0.069
3.992,-0.069
3.993,-0.069
3.994,-0.069
3.995,-0.069
3.996,-0.070
3.997,-0.072
3.998,-0.073
3.999,-0.075
4.000,-0.074
4.001,-0.072
4.002,-0.072
4.003,-0.072
4.004,-0.073
4.005,-0.075
4.006,-0.072
4.007,-0.069
4.008,-0.069
4.009,-0.069
4.010,-0.069
4.011,-0.069
4.012,-0.069
4.013,-0.069
4.014,-0.070
4.015,-0.072
4.016,-0.072
4.017,-0.072
4.018,-0.072
4.019,-0.072
4.020,-0.073
4.021,-0.075
4.022,-0.075
4.023,-0.075
4.024,-0.074
4.025,-0.072
4.026,-0.072
4.027,-0.072
4.028,-0.072
4.029,-0.072
4.030,-0.073
4.031,-0.075
4.032,-0.072
4.033,-0.069
4.034,-0.069
4.035,-0.069
4.036,-0.069
4.037,-0.069
4.038,-0.070
4.039,-0.072
4.040,-0.073
4.041,-0.075
4.042,-0.075
4.043,-0.075
4.044,-0.075
4.045,-0.075
4.046,-0.075
4.047,-0.075
4.048,-0.075
4.049,-0.075
4.050,-0.072
4.051,-0.069
4.052,-0.069
4.053,-0.069
4.054,-0.069
4.055,-0.069
4.056,-0.070
4.057,-0.072
4.058,-0.072
4.059,-0.072
4.060,-0.072
4.061,-0.072
4.062,-0.071
4.063,-0.069
4.064,-0.069
4.065,-0.069
4.066,-0.070
4.067,-0.072
4.068,-0.072
4.069,-0.072
4.070,-0.072
4.071,-0.072
4.072,-0.071
4.073,-0.069
4.074,-0.069
4.075,-0.069
4.076,-0.070
4.077,-0.072
4.078,-0.072
4.079,-0.072
4.080,-0.071
4.081,-0.069
4.082,-0.069
4.083,-0.069
4.084,-0.070
4.085,-0.072
4.086,-0.071
4.087,-0.069
4.088,-0.070
4.089,-0.072
4.090,-0.069
4.091,-0.066
4.092,-0.066
4.093,-0.066
4.094,-0.067
4.095,-0.069
4.096,-0.069
4.097,-0.069
4.098,-0.072
4.099,-0.069
4.100,-0.069
4.101,-0.069
4.102,-0.069
4.103,-0.069
4.104,-0.070
4.105,-0.072
4.106,-0.072
4.107,-0.069
4.108,-0.071
4.109,-0.072
4.110,-0.069
4.111,-0.069
4.112,-0.070
4.113,-0.072
4.114,-0.076
4.115,-0.075
4.116,-0.071
4.117,-0.069
4.118,-0.071
4.119,-0.069
4.120,-0.066
4.121,-0.069
4.122,-0.069
4.123,-0.066
4.124,-0.068
4.125,-0.066
4.126,-0.067
4.127,-0.069
4.128,-0.069
4.129,-0.069
4.130,-0.068
4.131,-0.066
4.132,-0.066
4.133,-0.069
4.134,-0.070
4.135,-0.069
4.136,-0.071
4.137,-0.069
4.138,-0.070
4.139,-0.069
4.140,-0.068
4.141,-0.069
4.142,-0.069
4.143,-0.069
4.144,-0.070
4.145,-0.069
4.146,-0.069
4.147,-0.069
4.148,-0.072
4.149,-0.072
4.150,-0.072
4.151,-0.072
4.152,-0.073
4.153,-0.072
4.154,-0.072
4.155,-0.069
4.156,-0.069
4.157,-0.069
4.158,-0.069
4.159,-0.069
4.160,-0.069
4.161,-0.069
4.162,-0.069
4.163,-0.069
4.164,-0.064
4.165,-0.062
4.166,-0.066
4.167,-0.066
4.168,-0.064
4.169,-0.066
4.170,-0.064
4.171,-0.066
4.172,-0.067
4.173,-0.066
4.174,-0.061
4.175,-0.062
4.176,-0.067
4.177,-0.066
4.178,-0.067
4.179,-0.072
4.180,-0.073
4.181,-0.072
4.182,-0.072
4.183,-0.069
4.184,-0.068
4.185,-0.069
4.186,-0.069
4.187,-0.066
4.188,-0.067
4.189,-0.069
4.190,-0.069
4.191,-0.069
4.192,-0.069
4.193,-0.069
4.194,-0.067
4.195,-0.069
4.196,-0.069
4.197,-0.069
4.198,-0.070
4.199,-0.072
4.200,-0.069
4.201,-0.069
4.202,-0.068
4.203,-0.066
4.204,-0.070
4.205,-0.069
4.206,-0.070
4.207,-0.069
4.208,-0.068
4.209,-0.066
4.210,-0.066
4.211,-0.069
4.212,-0.072
4.213,-0.072
4.214,-0.069
4.215,-0.072
4.216,-0.071
4.217,-0.072
4.218,-0.072
4.219,-0.069
4.220,-0.068
4.221,-0.069
4.222,-0.070
4.223,-0.069
4.224,-0.069
4.225,-0.069
4.226,-0.072
4.227,-0.069
4.228,-0.069
4.229,-0.069
4.230,-0.072
4.231,-0.069
4.232,-0.069
4.233,-0.069
4.234,-0.069
4.235,-0.072
4.236,-0.070
4.237,-0.069
4.238,-0.069
4.239,-0.072
4.240,-0.069
4.241,-0.069
4.242,-0.072
4.243,-0.072
4.244,-0.072
4.245,-0.072
4.246,-0.073
4.247,-0.075
4.248,-0.075
4.249,-0.075
4.250,-0.075
4.251,-0.075
4.252,-0.075
4.253,-0.075
4.254,-0.075
4.255,-0.075
4.256,-0.075
4.257,-0.078
4.258,-0.076
4.259,-0.075
4.260,-0.077
4.261,-0.075
4.262,-0.078
4.263,-0.078
4.264,-0.075
4.265,-0.075
4.266,-0.075
4.267,-0.075
4.268,-0.078
4.269,-0.075
4.270,-0.074
4.271,-0.072
4.272,-0.072
4.273,-0.072
4.274,-0.072
4.275,-0.072
4.276,-0.072
4.277,-0.072
4.278,-0.072
4.279,-0.072
4.280,-0.072
4.281,-0.072
4.282,-0.072
4.283,-0.072
4.284,-0.071
4.285,-0.066
4.286,-0.066
4.287,-0.066
4.288,-0.066
4.289,-0.066
4.290,-0.066
4.291,-0.069
4.292,-0.069
4.293,-0.069
4.294,-0.067
4.295,-0.069
4.296,-0.068
4.297,-0.066
4.298,-0.069
4.299,-0.069
4.300,-0.068
4.301,-0.066
4.302,-0.067
4.303,-0.069
4.304,-0.072
4.305,-0.072
4.306,-0.072
4.307,-0.072
4.308,-0.069
4.309,-0.066
4.310,-0.067
4.311,-0.069
4.312,-0.070
4.313,-0.072
4.314,-0.071
4.315,-0.069
4.316,-0.068
4.317,-0.069
4.318,-0.070
4.319,-0.072
4.320,-0.072
4.321,-0.072
4.322,-0.072
4.323,-0.072
4.324,-0.072
4.325,-0.072
4.326,-0.068
4.327,-0.066
4.328,-0.069
4.329,-0.072
4.330,-0.069
4.331,-0.069
4.332,-0.069
4.333,-0.066
4.334,-0.064
4.335,-0.062
4.336,-0.066
4.337,-0.062
4.338,-0.067
4.339,-0.066
4.340,-0.066
4.341,-0.066
4.342,-0.066
4.343,-0.066
4.344,-0.064
4.345,-0.062
4.346,-0.066
4.347,-0.066
4.348,-0.067
4.349,-0.069
4.350,-0.067
4.351,-0.069
4.352,-0.068
4.353,-0.069
4.354,-0.068
4.355,-0.066
4.356,-0.064
4.357,-0.062
4.358,-0.062
4.359,-0.062
4.360,-0.064
4.361,-0.066
4.362,-0.066
4.363,-0.066
4.364,-0.061
4.365,-0.059
4.366,-0.062
4.367,-0.062
4.368,-0.064
4.369,-0.066
4.370,-0.062
4.371,-0.062
4.372,-0.066
4.373,-0.062
4.374,-0.059
4.375,-0.059
4.376,-0.061
4.377,-0.062
4.378,-0.062
4.379,-0.066
4.380,-0.066
4.381,-0.066
4.382,-0.066
4.383,-0.066
4.384,-0.064
4.385,-0.059
4.386,-0.062
4.387,-0.059
4.388,-0.064
4.389,-0.062
4.390,-0.061
4.391,-0.062
4.392,-0.061
4.393,-0.056
4.394,-0.050
4.395,-0.044
4.396,-0.042
4.397,-0.041
4.398,-0.042
4.399,-0.041
4.400,-0.041
4.401,-0.041
4.402,-0.044
4.403,-0.022
4.404,-0.019
4.405,-0.012
4.406,-0.008
4.407,0.000
4.408,0.003
4.409,0.006
4.410,0.011
4.411,0.009
4.412,0.012
4.413,0.012
4.414,0.007
4.415,0.006
4.416,0.003
4.417,0.003
4.418,-0.003
4.419,-0.006
4.420,-0.006
4.421,-0.006
4.422,-0.002
4.423,-0.003
4.424,-0.003
4.425,0.000
4.426,0.003
4.427,0.003
4.428,0.002
4.429,0.003
4.430,0.006
4.431,0.012
4.432,0.016
4.433,0.019
4.434,0.020
4.435,0.022
4.436,0.025
4.437,0.025
4.438,0.021
4.439,0.016
4.440,0.014
4.441,0.009
4.442,0.006
4.443,0.006
4.444,0.006
4.445,0.006
4.446,0.007
4.447,0.009
4.448,0.006
4.449,0.003
4.450,0.003
4.451,0.006
4.452,-0.003
4.453,-0.009
4.454,-0.008
4.455,-0.009
4.456,-0.012
4.457,-0.019
4.458,-0.023
4.459,-0.025
4.460,-0.024
4.461,-0.025
4.462,-0.025
4.463,-0.025
4.464,-0.024
4.465,-0.025
4.466,-0.026
4.467,-0.028
4.468,-0.028
4.469,-0.028
4.470,-0.030
4.471,-0.028
4.472,-0.031
4.473,-0.038
4.474,-0.045
4.475,-0.050
4.476,-0.052
4.477,-0.050
4.478,-0.052
4.479,-0.053
4.480,-0.054
4.481,-0.056
4.482,-0.062
4.483,-0.069
4.484,-0.071
4.485,-0.069
4.486,-0.070
4.487,-0.072
4.488,-0.073
4.489,-0.075
4.490,-0.074
4.491,-0.072
4.492,-0.073
4.493,-0.075
4.494,-0.076
4.495,-0.078
4.496,-0.078
4.497,-0.078
4.498,-0.075
4.499,-0.075
4.500,-0.072
4.501,-0.072
4.502,-0.074
4.503,-0.072
4.504,-0.072
4.505,-0.072
4.506,-0.079
4.507,-0.081
4.508,-0.080
4.509,-0.081
4.510,-0.082
4.511,-0.084
4.512,-0.081
4.513,-0.081
4.514,-0.084
4.515,-0.084
4.516,-0.084
4.517,-0.084
4.518,-0.084
4.519,-0.084
4.520,-0.083
4.521,-0.081
4.522,-0.079
4.523,-0.084
4.524,-0.087
4.525,-0.087
4.526,-0.086
4.527,-0.081
4.528,-0.081
4.529,-0.081
4.530,-0.081
4.531,-0.084
4.532,-0.081
4.533,-0.081
4.534,-0.080
4.535,-0.078
4.536,-0.079
4.537,-0.078
4.538,-0.081
4.539,-0.081
4.540,-0.081
4.541,-0.084
4.542,-0.082
4.543,-0.084
4.544,-0.083
4.545,-0.081
4.546,-0.081
4.547,-0.081
4.548,-0.084
4.549,-0.091
4.550,-0.092
4.551,-0.103
4.552,-0.119
4.553,-0.131
4.554,-0.144
4.555,-0.162
4.556,-0.180
4.557,-0.188
4.558,-0.200
4.559,-0.200
4.560,-0.201
4.561,-0.197
4.562,-0.188
4.563,-0.169
4.564,-0.151
4.565,-0.128
4.566,-0.101
4.567,-0.069
4.568,-0.031
4.569,0.012
4.570,0.061
4.571,0.100
4.572,0.128
4.573,0.172
4.574,0.219
4.575,0.278
4.576,0.336
4.577,0.384
4.578,0.433
4.579,0.516
4.580,0.603
4.581,0.681
4.582,0.764
4.583,0.834
4.584,0.904
4.585,0.950
4.586,1.000
4.587,1.044
4.588,1.106
4.589,1.166
4.590,1.212
4.591,1.256
4.592,1.303
4.593,1.341
4.594,1.339
4.595,1.297
4.596,1.217
4.597,1.113
4.598,1.003
4.599,0.909
4.600,0.825
4.601,0.744
4.602,0.661
4.603,0.597
4.604,0.536
4.605,0.481
4.606,0.418
4.607,0.353
4.608,0.306
4.609,0.250
4.610,0.204
4.611,0.159
4.612,0.102
4.613,0.047
4.614,0.004
4.615,-0.031
4.616,-0.050
4.617,-0.062
4.618,-0.072
4.619,-0.078
4.620,-0.081
4.621,-0.078
4.622,-0.074
4.623,-0.066
4.624,-0.052
4.625,-0.031
4.626,-0.021
4.627,-0.006
4.628,0.000
4.629,0.006
4.630,0.009
4.631,0.009
4.632,0.011
4.633,0.012
4.634,0.022
4.635,0.019
4.636,0.020
4.637,0.019
4.638,0.023
4.639,0.022
4.640,0.022
4.641,0.022
4.642,0.020
4.643,0.019
4.644,0.014
4.645,0.009
4.646,0.008
4.647,0.006
4.648,0.002
4.649,0.000
4.650,0.000
4.651,0.000
4.652,0.000
4.653,0.000
4.654,0.003
4.655,0.000
4.656,-0.003
4.657,0.000
4.658,-0.003
4.659,0.000
4.660,-0.004
4.661,-0.006
4.662,-0.009
4.663,-0.009
4.664,-0.009
4.665,-0.009
4.666,-0.011
4.667,-0.012
4.668,-0.009
4.669,-0.009
4.670,-0.012
4.671,-0.012
4.672,-0.009
4.673,-0.009
4.674,-0.012
4.675,-0.012
4.676,-0.008
4.677,-0.003
4.678,-0.001
4.679,-0.003
4.680,-0.007
4.681,-0.009
4.682,-0.011
4.683,-0.012
4.684,-0.009
4.685,-0.006
4.686,-0.005
4.687,-0.003
4.688,-0.001
4.689,-0.006
4.690,-0.006
4.691,-0.006
4.692,-0.005
4.693,-0.003
4.694,-0.003
4.695,-0.003
4.696,-0.003
4.697,-0.003
4.698,-0.001
4.699,0.000
4.700,-0.003
4.701,-0.003
4.702,-0.002
4.703,0.003
4.704,0.003
4.705,0.003
4.706,0.005
4.707,0.003
4.708,0.003
4.709,0.003
4.710,0.006
4.711,0.006
4.712,0.005
4.713,0.006
4.714,0.005
4.715,0.006
4.716,0.004
4.717,0.006
4.718,0.009
4.719,0.009
4.720,0.009
4.721,0.009
4.722,0.009
4.723,0.009
4.724,0.009
4.725,0.012
4.726,0.011
4.727,0.009
4.728,0.009
4.729,0.009
4.730,0.009
4.731,0.009
4.732,0.014
4.733,0.016
4.734,0.020
4.735,0.022
4.736,0.016
4.737,0.016
4.738,0.016
4.739,0.016
4.740,0.020
4.741,0.022
4.742,0.025
4.743,0.025
4.744,0.026
4.745,0.028
4.746,0.028
4.747,0.028
4.748,0.027
4.749,0.025
4.750,0.025
4.751,0.025
4.752,0.026
4.753,0.031
4.754,0.030
4.755,0.028
4.756,0.031
4.757,0.034
4.758,0.031
4.759,0.031
4.760,0.033
4.761,0.031
4.762,0.036
4.763,0.041
4.764,0.038
4.765,0.038
4.766,0.034
4.767,0.034
4.768,0.036
4.769,0.038
4.770,0.041
4.771,0.044
4.772,0.042
4.773,0.044
4.774,0.046
4.775,0.044
4.776,0.044
4.777,0.044
4.778,0.045
4.779,0.047
4.780,0.047
4.781,0.047
4.782,0.047
4.783,0.050
4.784,0.053
4.785,0.059
4.786,0.058
4.787,0.059
4.788,0.061
4.789,0.059
4.790,0.058
4.791,0.056
4.792,0.058
4.793,0.063
4.794,0.063
4.795,0.063
4.796,0.063
4.797,0.066
4.798,0.066
4.799,0.066
4.800,0.064
4.801,0.066
4.802,0.070
4.803,0.078
4.804,0.078
4.805,0.078
4.806,0.074
4.807,0.072
4.808,0.075
4.809,0.075
4.810,0.079
4.811,0.078
4.812,0.080
4.813,0.078
4.814,0.079
4.815,0.084
4.816,0.091
4.817,0.097
4.818,0.097
4.819,0.097
4.820,0.096
4.821,0.097
4.822,0.094
4.823,0.097
4.824,0.101
4.825,0.106
4.826,0.106
4.827,0.106
4.828,0.105
4.829,0.106
4.830,0.108
4.831,0.113
4.832,0.114
4.833,0.113
4.834,0.114
4.835,0.116
4.836,0.116
4.837,0.113
4.838,0.120
4.839,0.122
4.840,0.121
4.841,0.122
4.842,0.125
4.843,0.128
4.844,0.133
4.845,0.134
4.846,0.136
4.847,0.134
4.848,0.138
4.849,0.141
4.850,0.147
4.851,0.150
4.852,0.153
4.853,0.153
4.854,0.153
4.855,0.153
4.856,0.152
4.857,0.156
4.858,0.157
4.859,0.159
4.860,0.164
4.861,0.162
4.862,0.166
4.863,0.172
4.864,0.172
4.865,0.172
4.866,0.171
4.867,0.172
4.868,0.174
4.869,0.178
4.870,0.183
4.871,0.181
4.872,0.183
4.873,0.184
4.874,0.186
4.875,0.184
4.876,0.188
4.877,0.194
4.878,0.192
4.879,0.197
4.880,0.200
4.881,0.200
4.882,0.200
4.883,0.200
4.884,0.199
4.885,0.200
4.886,0.204
4.887,0.209
4.888,0.209
4.889,0.209
4.890,0.209
4.891,0.206
4.892,0.203
4.893,0.203
4.894,0.202
4.895,0.197
4.896,0.197
4.897,0.197
4.898,0.194
4.899,0.191
4.900,0.186
4.901,0.184
4.902,0.183
4.903,0.178
4.904,0.175
4.905,0.172
4.906,0.166
4.907,0.162
4.908,0.156
4.909,0.153
4.910,0.147
4.911,0.144
4.912,0.138
4.913,0.128
4.914,0.126
4.915,0.125
4.916,0.117
4.917,0.113
4.918,0.109
4.919,0.103
4.920,0.101
4.921,0.097
4.922,0.094
4.923,0.084
4.924,0.081
4.925,0.072
4.926,0.069
4.927,0.066
4.928,0.063
4.929,0.059
4.930,0.055
4.931,0.050
4.932,0.046
4.933,0.038
4.934,0.038
4.935,0.031
4.936,0.029
4.937,0.028
4.938,0.026
4.939,0.025
4.940,0.021
4.941,0.016
4.942,0.012
4.943,0.012
4.944,0.009
4.945,0.006
4.946,0.000
4.947,-0.006
4.948,-0.009
4.949,-0.009
4.950,-0.008
4.951,-0.009
4.952,-0.009
4.953,-0.012
4.954,-0.014
4.955,-0.019
4.956,-0.022
4.957,-0.025
4.958,-0.027
4.959,-0.028
4.960,-0.025
4.961,-0.025
4.962,-0.027
4.963,-0.028
4.964,-0.027
4.965,-0.025
4.966,-0.029
4.967,-0.031
4.968,-0.031
4.969,-0.031
4.970,-0.033
4.971,-0.034
4.972,-0.033
4.973,-0.034
4.974,-0.034
4.975,-0.034
4.976,-0.033
4.977,-0.034
4.978,-0.038
4.979,-0.038
4.980,-0.039
4.981,-0.038
4.982,-0.036
4.983,-0.034
4.984,-0.034
4.985,-0.031
4.986,-0.036
4.987,-0.034
4.988,-0.034
4.989,-0.034
4.990,-0.034
4.991,-0.034
4.992,-0.031
4.993,-0.034
4.994,-0.034
4.995,-0.034
4.996,-0.039
4.997,-0.038
4.998,-0.036
4.999,-0.034
5.000,-0.034
5.001,-0.034
5.002,-0.039
5.003,-0.044
5.004,-0.041
5.005,-0.038
5.006,-0.038
5.007,-0.034
5.008,-0.034
5.009,-0.034
5.010,-0.036
5.011,-0.038
5.012,-0.036
5.013,-0.034
5.014,-0.036
5.015,-0.034
5.016,-0.034
5.017,-0.038
5.018,-0.034
5.019,-0.038
5.020,-0.039
5.021,-0.034
5.022,-0.038
5.023,-0.038
5.024,-0.036
5.025,-0.034
5.026,-0.034
5.027,-0.034
5.028,-0.036
5.029,-0.034
5.030,-0.031
5.031,-0.028
5.032,-0.031
5.033,-0.031
5.034,-0.031
5.035,-0.034
5.036,-0.034
5.037,-0.031
5.038,-0.030
5.039,-0.028
5.040,-0.024
5.041,-0.019
5.042,-0.020
5.043,-0.019
5.044,-0.020
5.045,-0.022
5.046,-0.022
5.047,-0.022
5.048,-0.021
5.049,-0.019
5.050,-0.020
5.051,-0.022
5.052,-0.023
5.053,-0.025
5.054,-0.028
5.055,-0.025
5.056,-0.024
5.057,-0.019
5.058,-0.017
5.059,-0.016
5.060,-0.017
5.061,-0.016
5.062,-0.016
5.063,-0.016
5.064,-0.017
5.065,-0.016
5.066,-0.014
5.067,-0.019
5.068,-0.016
5.069,-0.019
5.070,-0.022
5.071,-0.019
5.072,-0.019
5.073,-0.019
5.074,-0.016
5.075,-0.016
5.076,-0.020
5.077,-0.019
5.078,-0.016
5.079,-0.019
5.080,-0.017
5.081,-0.019
5.082,-0.016
5.083,-0.012
5.084,-0.012
5.085,-0.012
5.086,-0.016
5.087,-0.016
5.088,-0.014
5.089,-0.016
5.090,-0.016
5.091,-0.012
5.092,-0.016
5.093,-0.016
5.094,-0.014
5.095,-0.016
5.096,-0.016
5.097,-0.012
5.098,-0.012
5.099,-0.012
5.100,-0.016
5.101,-0.016
5.102,-0.017
5.103,-0.012
5.104,-0.014
5.105,-0.016
5.106,-0.016
5.107,-0.016
5.108,-0.017
5.109,-0.019
5.110,-0.019
5.111,-0.019
5.112,-0.017
5.113,-0.022
5.114,-0.019
5.115,-0.016
5.116,-0.016
5.117,-0.016
5.118,-0.019
5.119,-0.019
5.120,-0.019
5.121,-0.019
5.122,-0.022
5.123,-0.019
5.124,-0.019
5.125,-0.019
5.126,-0.021
5.127,-0.019
5.128,-0.023
5.129,-0.022
5.130,-0.024
5.131,-0.019
5.132,-0.021
5.133,-0.022
5.134,-0.023
5.135,-0.028
5.136,-0.030
5.137,-0.028
5.138,-0.029
5.139,-0.028
5.140,-0.030
5.141,-0.028
5.142,-0.030
5.143,-0.028
5.144,-0.031
5.145,-0.034
5.146,-0.034
5.147,-0.038
5.148,-0.038
5.149,-0.038
5.150,-0.038
5.151,-0.038
5.152,-0.038
5.153,-0.038
5.154,-0.038
5.155,-0.041
5.156,-0.041
5.157,-0.041
5.158,-0.039
5.159,-0.034
5.160,-0.036
5.161,-0.034
5.162,-0.036
5.163,-0.034
5.164,-0.038
5.165,-0.038
5.166,-0.038
5.167,-0.041
5.168,-0.042
5.169,-0.044
5.170,-0.044
5.171,-0.047
5.172,-0.045
5.173,-0.047
5.174,-0.046
5.175,-0.047
5.176,-0.046
5.177,-0.047
5.178,-0.048
5.179,-0.044
5.180,-0.047
5.181,-0.047
5.182,-0.049
5.183,-0.050
5.184,-0.048
5.185,-0.050
5.186,-0.050
5.187,-0.050
5.188,-0.053
5.189,-0.053
5.190,-0.051
5.191,-0.053
5.192,-0.053
5.193,-0.053
5.194,-0.052
5.195,-0.053
5.196,-0.053
5.197,-0.053
5.198,-0.053
5.199,-0.053
5.200,-0.053
5.201,-0.053
5.202,-0.054
5.203,-0.056
5.204,-0.056
5.205,-0.059
5.206,-0.058
5.207,-0.056
5.208,-0.056
5.209,-0.053
5.210,-0.056
5.211,-0.056
5.212,-0.061
5.213,-0.062
5.214,-0.061
5.215,-0.059
5.216,-0.059
5.217,-0.059
5.218,-0.059
5.219,-0.059
5.220,-0.062
5.221,-0.062
5.222,-0.062
5.223,-0.062
5.224,-0.062
5.225,-0.062
5.226,-0.059
5.227,-0.062
5.228,-0.062
5.229,-0.062
5.230,-0.059
5.231,-0.062
5.232,-0.062
5.233,-0.066
5.234,-0.066
5.235,-0.066
5.236,-0.067
5.237,-0.066
5.238,-0.069
5.239,-0.066
5.240,-0.066
5.241,-0.066
5.242,-0.068
5.243,-0.066
5.244,-0.070
5.245,-0.069
5.246,-0.070
5.247,-0.072
5.248,-0.072
5.249,-0.072
5.250,-0.071
5.251,-0.072
5.252,-0.072
5.253,-0.072
5.254,-0.072
5.255,-0.072
5.256,-0.071
5.257,-0.069
5.258,-0.066
5.259,-0.069
5.260,-0.069
5.261,-0.069
5.262,-0.069
5.263,-0.069
5.264,-0.069
5.265,-0.069
5.266,-0.064
5.267,-0.066
5.268,-0.067
5.269,-0.069
5.270,-0.070
5.271,-0.072
5.272,-0.071
5.273,-0.069
5.274,-0.069
5.275,-0.066
5.276,-0.069
5.277,-0.069
5.278,-0.069
5.279,-0.069
5.280,-0.069
5.281,-0.069
5.282,-0.070
5.283,-0.072
5.284,-0.072
5.285,-0.072
5.286,-0.069
5.287,-0.069
5.288,-0.071
5.289,-0.072
5.290,-0.073
5.291,-0.075
5.292,-0.075
5.293,-0.075
5.294,-0.075
5.295,-0.075
5.296,-0.074
5.297,-0.072
5.298,-0.073
5.299,-0.075
5.300,-0.075
5.301,-0.075
5.302,-0.074
5.303,-0.072
5.304,-0.075
5.305,-0.078
5.306,-0.077
5.307,-0.075
5.308,-0.074
5.309,-0.072
5.310,-0.073
5.311,-0.075
5.312,-0.076
5.313,-0.078
5.314,-0.077
5.315,-0.075
5.316,-0.076
5.317,-0.078
5.318,-0.079
5.319,-0.081
5.320,-0.081
5.321,-0.081
5.322,-0.081
5.323,-0.081
5.324,-0.078
5.325,-0.075
5.326,-0.076
5.327,-0.078
5.328,-0.079
5.329,-0.081
5.330,-0.081
5.331,-0.081
5.332,-0.081
5.333,-0.081
5.334,-0.081
5.335,-0.081
5.336,-0.081
5.337,-0.081
5.338,-0.081
5.339,-0.081
5.340,-0.081
5.341,-0.081
5.342,-0.078
5.343,-0.075
5.344,-0.076
5.345,-0.078
5.346,-0.079
5.347,-0.081
5.348,-0.081
5.349,-0.081
5.350,-0.081
5.351,-0.081
5.352,-0.078
5.353,-0.075
5.354,-0.076
5.355,-0.078
5.356,-0.079
5.357,-0.081
5.358,-0.081
5.359,-0.081
5.360,-0.078
5.361,-0.075
5.362,-0.076
5.363,-0.078
5.364,-0.079
5.365,-0.081
5.366,-0.081
5.367,-0.081
5.368,-0.081
5.369,-0.081
5.370,-0.081
5.371,-0.081
5.372,-0.081
5.373,-0.081
5.374,-0.081
5.375,-0.081
5.376,-0.081
5.377,-0.081
5.378,-0.081
5.379,-0.081
5.380,-0.081
5.381,-0.081
5.382,-0.081
5.383,-0.081
5.384,-0.081
5.385,-0.081
5.386,-0.082
5.387,-0.084
5.388,-0.084
5.389,-0.084
5.390,-0.083
5.391,-0.081
5.392,-0.081
5.393,-0.081
5.394,-0.081
5.395,-0.081
5.396,-0.081
5.397,-0.081
5.398,-0.081
5.399,-0.081
5.400,-0.081
5.401,-0.081
5.402,-0.082
5.403,-0.084
5.404,-0.084
5.405,-0.084
5.406,-0.086
5.407,-0.087
5.408,-0.086
5.409,-0.084
5.410,-0.084
5.411,-0.084
5.412,-0.087
5.413,-0.084
5.414,-0.084
5.415,-0.084
5.416,-0.084
5.417,-0.084
5.418,-0.084
5.419,-0.084
5.420,-0.084
5.421,-0.081
5.422,-0.081
5.423,-0.081
5.424,-0.079
5.425,-0.081
5.426,-0.080
5.427,-0.078
5.428,-0.086
5.429,-0.087
5.430,-0.084
5.431,-0.084
5.432,-0.086
5.433,-0.084
5.434,-0.078
5.435,-0.078
5.436,-0.082
5.437,-0.084
5.438,-0.087
5.439,-0.087
5.440,-0.086
5.441,-0.084
5.442,-0.084
5.443,-0.084
5.444,-0.086
5.445,-0.087
5.446,-0.086
5.447,-0.087
5.448,-0.086
5.449,-0.081
5.450,-0.084
5.451,-0.084
5.452,-0.087
5.453,-0.087
5.454,-0.086
5.455,-0.087
5.456,-0.087
5.457,-0.087
5.458,-0.089
5.459,-0.087
5.460,-0.086
5.461,-0.084
5.462,-0.087
5.463,-0.087
5.464,-0.087
5.465,-0.087
5.466,-0.087
5.467,-0.084
5.468,-0.087
5.469,-0.087
5.470,-0.087
5.471,-0.087
5.472,-0.087
5.473,-0.087
5.474,-0.087
5.475,-0.087
5.476,-0.087
5.477,-0.087
5.478,-0.087
5.479,-0.091
5.480,-0.094
5.481,-0.094
5.482,-0.092
5.483,-0.094
5.484,-0.092
5.485,-0.094
5.486,-0.095
5.487,-0.094
5.488,-0.089
5.489,-0.091
5.490,-0.095
5.491,-0.094
5.492,-0.092
5.493,-0.094
5.494,-0.094
5.495,-0.091
5.496,-0.091
5.497,-0.087
5.498,-0.084
5.499,-0.084
5.500,-0.087
5.501,-0.087
5.502,-0.087
5.503,-0.087
5.504,-0.087
5.505,-0.087
5.506,-0.089
5.507,-0.091
5.508,-0.089
5.509,-0.091
5.510,-0.087
5.511,-0.084
5.512,-0.086
5.513,-0.087
5.514,-0.087
5.515,-0.091
5.516,-0.091
5.517,-0.091
5.518,-0.089
5.519,-0.081
5.520,-0.084
5.521,-0.084
5.522,-0.086
5.523,-0.087
5.524,-0.086
5.525,-0.087
5.526,-0.089
5.527,-0.087
5.528,-0.083
5.529,-0.084
5.530,-0.083
5.531,-0.084
5.532,-0.087
5.533,-0.087
5.534,-0.086
5.535,-0.087
5.536,-0.086
5.537,-0.081
5.538,-0.080
5.539,-0.078
5.540,-0.082
5.541,-0.081
5.542,-0.081
5.543,-0.081
5.544,-0.086
5.545,-0.084
5.546,-0.083
5.547,-0.081
5.548,-0.078
5.549,-0.078
5.550,-0.078
5.551,-0.078
5.552,-0.078
5.553,-0.081
5.554,-0.078
5.555,-0.078
5.556,-0.082
5.557,-0.084
5.558,-0.083
5.559,-0.081
5.560,-0.080
5.561,-0.078
5.562,-0.081
5.563,-0.084
5.564,-0.084
5.565,-0.084
5.566,-0.084
5.567,-0.084
5.568,-0.084
5.569,-0.084
5.570,-0.083
5.571,-0.084
5.572,-0.082
5.573,-0.081
5.574,-0.083
5.575,-0.081
5.576,-0.084
5.577,-0.084
5.578,-0.082
5.579,-0.084
5.580,-0.083
5.581,-0.081
5.582,-0.086
5.583,-0.084
5.584,-0.083
5.585,-0.081
5.586,-0.081
5.587,-0.081
5.588,-0.081
5.589,-0.081
5.590,-0.081
5.591,-0.081
5.592,-0.081
5.593,-0.081
5.594,-0.081
5.595,-0.081
5.596,-0.081
5.597,-0.081
5.598,-0.082
5.599,-0.081
5.600,-0.081
5.601,-0.081
5.602,-0.081
5.603,-0.081
5.604,-0.080
5.605,-0.081
5.606,-0.081
5.607,-0.081
5.608,-0.079
5.609,-0.081
5.610,-0.080
5.611,-0.078
5.612,-0.081
5.613,-0.081
5.614,-0.081
5.615,-0.081
5.616,-0.081
5.617,-0.081
5.618,-0.082
5.619,-0.081
5.620,-0.078
5.621,-0.075
5.622,-0.075
5.623,-0.075
5.624,-0.076
5.625,-0.078
5.626,-0.077
5.627,-0.075
5.628,-0.075
5.629,-0.075
5.630,-0.075
5.631,-0.078
5.632,-0.078
5.633,-0.078
5.634,-0.078
5.635,-0.078
5.636,-0.078
5.637,-0.078
5.638,-0.081
5.639,-0.084
5.640,-0.080
5.641,-0.078
5.642,-0.080
5.643,-0.081
5.644,-0.079
5.645,-0.081
5.646,-0.082
5.647,-0.081
5.648,-0.081
5.649,-0.081
5.650,-0.084
5.651,-0.081
5.652,-0.084
5.653,-0.081
5.654,-0.081
5.655,-0.081
5.656,-0.082
5.657,-0.084
5.658,-0.080
5.659,-0.075
5.660,-0.078
5.661,-0.078
5.662,-0.081
5.663,-0.084
5.664,-0.082
5.665,-0.084
5.666,-0.083
5.667,-0.084
5.668,-0.083
5.669,-0.081
5.670,-0.081
5.671,-0.081
5.672,-0.082
5.673,-0.084
5.674,-0.084
5.675,-0.084
5.676,-0.083
5.677,-0.081
5.678,-0.079
5.679,-0.081
5.680,-0.084
5.681,-0.084
5.682,-0.083
5.683,-0.081
5.684,-0.079
5.685,-0.081
5.686,-0.086
5.687,-0.084
5.688,-0.083
5.689,-0.084
5.690,-0.080
5.691,-0.075
5.692,-0.074
5.693,-0.075
5.694,-0.078
5.695,-0.081
5.696,-0.082
5.697,-0.084
5.698,-0.083
5.699,-0.078
5.700,-0.081
5.701,-0.078
5.702,-0.081
5.703,-0.078
5.704,-0.074
5.705,-0.072
5.706,-0.073
5.707,-0.072
5.708,-0.070
5.709,-0.069
5.710,-0.067
5.711,-0.066
5.712,-0.067
5.713,-0.066
5.714,-0.061
5.715,-0.056
5.716,-0.061
5.717,-0.041
5.718,-0.034
5.719,-0.025
5.720,-0.024
5.721,-0.019
5.722,-0.017
5.723,-0.016
5.724,-0.011
5.725,-0.012
5.726,-0.009
5.727,-0.009
5.728,-0.016
5.729,-0.019
5.730,-0.021
5.731,-0.019
5.732,-0.022
5.733,-0.022
5.734,-0.023
5.735,-0.025
5.736,-0.022
5.737,-0.025
5.738,-0.025
5.739,-0.022
5.740,-0.019
5.741,-0.019
5.742,-0.020
5.743,-0.019
5.744,-0.020
5.745,-0.019
5.746,-0.012
5.747,-0.006
5.748,-0.002
5.749,0.003
5.750,0.006
5.751,0.006
5.752,0.004
5.753,0.003
5.754,-0.003
5.755,-0.012
5.756,-0.016
5.757,-0.016
5.758,-0.014
5.759,-0.012
5.760,-0.011
5.761,-0.009
5.762,-0.011
5.763,-0.012
5.764,-0.012
5.765,-0.009
5.766,-0.016
5.767,-0.019
5.768,-0.022
5.769,-0.028
5.770,-0.027
5.771,-0.028
5.772,-0.036
5.773,-0.041
5.774,-0.041
5.775,-0.044
5.776,-0.044
5.777,-0.044
5.778,-0.044
5.779,-0.047
5.780,-0.046
5.781,-0.044
5.782,-0.041
5.783,-0.038
5.784,-0.042
5.785,-0.044
5.786,-0.047
5.787,-0.053
5.788,-0.061
5.789,-0.066
5.790,-0.068
5.791,-0.066
5.792,-0.069
5.793,-0.072
5.794,-0.072
5.795,-0.072
5.796,-0.075
5.797,-0.078
5.798,-0.082
5.799,-0.084
5.800,-0.084
5.801,-0.084
5.802,-0.086
5.803,-0.087
5.804,-0.087
5.805,-0.087
5.806,-0.087
5.807,-0.087
5.808,-0.087
5.809,-0.087
5.810,-0.087
5.811,-0.087
5.812,-0.087
5.813,-0.091
5.814,-0.087
5.815,-0.087
5.816,-0.089
5.817,-0.087
5.818,-0.087
5.819,-0.087
5.820,-0.092
5.821,-0.091
5.822,-0.089
5.823,-0.091
5.824,-0.091
5.825,-0.091
5.826,-0.087
5.827,-0.087
5.828,-0.091
5.829,-0.091
5.830,-0.094
5.831,-0.097
5.832,-0.097
5.833,-0.097
5.834,-0.097
5.835,-0.097
5.836,-0.092
5.837,-0.094
5.838,-0.097
5.839,-0.097
5.840,-0.098
5.841,-0.097
5.842,-0.097
5.843,-0.097
5.844,-0.096
5.845,-0.097
5.846,-0.095
5.847,-0.097
5.848,-0.097
5.849,-0.097
5.850,-0.097
5.851,-0.094
5.852,-0.097
5.853,-0.097
5.854,-0.096
5.855,-0.097
5.856,-0.095
5.857,-0.097
5.858,-0.096
5.859,-0.094
5.860,-0.097
5.861,-0.100
5.862,-0.102
5.863,-0.106
5.864,-0.109
5.865,-0.122
5.866,-0.136
5.867,-0.147
5.868,-0.159
5.869,-0.178
5.870,-0.197
5.871,-0.206
5.872,-0.217
5.873,-0.216
5.874,-0.214
5.875,-0.206
5.876,-0.196
5.877,-0.175
5.878,-0.152
5.879,-0.122
5.880,-0.092
5.881,-0.056
5.882,-0.017
5.883,0.028
5.884,0.072
5.885,0.106
5.886,0.139
5.887,0.188
5.888,0.234
5.889,0.294
5.890,0.356
5.891,0.409
5.892,0.464
5.893,0.553
5.894,0.641
5.895,0.719
5.896,0.798
5.897,0.866
5.898,0.934
5.899,0.978
5.900,1.028
5.901,1.072
5.902,1.131
5.903,1.188
5.904,1.234
5.905,1.278
5.906,1.302
5.907,1.316
5.908,1.293
5.909,1.228
5.910,1.146
5.911,1.038
5.912,0.936
5.913,0.850
5.914,0.768
5.915,0.688
5.916,0.614
5.917,0.559
5.918,0.502
5.919,0.450
5.920,0.386
5.921,0.322
5.922,0.273
5.923,0.216
5.924,0.167
5.925,0.119
5.926,0.066
5.927,0.016
5.928,-0.017
5.929,-0.044
5.930,-0.062
5.931,-0.075
5.932,-0.082
5.933,-0.087
5.934,-0.091
5.935,-0.087
5.936,-0.080
5.937,-0.069
5.938,-0.059
5.939,-0.044
5.940,-0.038
5.941,-0.028
5.942,-0.019
5.943,-0.009
5.944,-0.003
5.945,0.000
5.946,0.003
5.947,0.006
5.948,0.018
5.949,0.016
5.950,0.016
5.951,0.012
5.952,0.014
5.953,0.009
5.954,0.009
5.955,0.009
5.956,0.006
5.957,0.003
5.958,-0.001
5.959,-0.006
5.960,-0.005
5.961,-0.003
5.962,-0.007
5.963,-0.009
5.964,-0.009
5.965,-0.009
5.966,-0.008
5.967,-0.006
5.968,-0.004
5.969,-0.009
5.970,-0.012
5.971,-0.009
5.972,-0.014
5.973,-0.012
5.974,-0.014
5.975,-0.012
5.976,-0.016
5.977,-0.016
5.978,-0.016
5.979,-0.016
5.980,-0.016
5.981,-0.016
5.982,-0.012
5.983,-0.012
5.984,-0.016
5.985,-0.016
5.986,-0.012
5.987,-0.012
5.988,-0.014
5.989,-0.012
5.990,-0.014
5.991,-0.016
5.992,-0.012
5.993,-0.012
5.994,-0.014
5.995,-0.012
5.996,-0.012
5.997,-0.012
5.998,-0.012
5.999,-0.012
6.000,-0.012
6.001,-0.012
6.002,-0.009
6.003,-0.012
6.004,-0.012
6.005,-0.012
6.006,-0.009
6.007,-0.006
6.008,-0.007
6.009,-0.009
6.010,-0.011
6.011,-0.012
6.012,-0.009
6.013,-0.006
6.014,-0.008
6.015,-0.006
6.016,-0.007
6.017,-0.006
6.018,-0.003
6.019,0.000
6.020,0.003
6.021,0.003
6.022,0.002
6.023,0.000
6.024,0.001
6.025,0.000
6.026,0.000
6.027,0.003
6.028,0.002
6.029,0.003
6.030,0.000
6.031,0.000
6.032,0.003
6.033,0.003
6.034,0.003
6.035,0.003
6.036,0.003
6.037,0.003
6.038,0.002
6.039,0.003
6.040,0.003
6.041,0.003
6.042,0.006
6.043,0.009
6.044,0.008
6.045,0.006
6.046,0.008
6.047,0.006
6.048,0.009
6.049,0.009
6.050,0.009
6.051,0.016
6.052,0.014
6.053,0.012
6.054,0.014
6.055,0.012
6.056,0.016
6.057,0.016
6.058,0.016
6.059,0.016
6.060,0.016
6.061,0.016
6.062,0.016
6.063,0.016
6.064,0.017
6.065,0.019
6.066,0.018
6.067,0.019
6.068,0.020
6.069,0.022
6.070,0.025
6.071,0.028
6.072,0.026
6.073,0.028
6.074,0.031
6.075,0.031
6.076,0.031
6.077,0.031
6.078,0.030
6.079,0.031
6.080,0.030
6.081,0.031
6.082,0.034
6.083,0.038
6.084,0.041
6.085,0.044
6.086,0.041
6.087,0.041
6.088,0.045
6.089,0.047
6.090,0.047
6.091,0.047
6.092,0.047
6.093,0.047
6.094,0.047
6.095,0.047
6.096,0.046
6.097,0.047
6.098,0.047
6.099,0.050
6.100,0.049
6.101,0.050
6.102,0.053
6.103,0.053
6.104,0.058
6.105,0.063
6.106,0.064
6.107,0.069
6.108,0.068
6.109,0.066
6.110,0.064
6.111,0.066
6.112,0.066
6.113,0.066
6.114,0.066
6.115,0.069
6.116,0.072
6.117,0.078
6.118,0.077
6.119,0.075
6.120,0.074
6.121,0.075
6.122,0.077
6.123,0.075
6.124,0.079
6.125,0.078
6.126,0.080
6.127,0.078
6.128,0.079
6.129,0.084
6.130,0.086
6.131,0.087
6.132,0.089
6.133,0.091
6.134,0.092
6.135,0.097
6.136,0.094
6.137,0.097
6.138,0.099
6.139,0.100
6.140,0.100
6.141,0.100
6.142,0.100
6.143,0.103
6.144,0.104
6.145,0.109
6.146,0.114
6.147,0.116
6.148,0.116
6.149,0.116
6.150,0.116
6.151,0.113
6.152,0.120
6.153,0.122
6.154,0.122
6.155,0.125
6.156,0.128
6.157,0.131
6.158,0.134
6.159,0.134
6.160,0.138
6.161,0.138
6.162,0.138
6.163,0.138
6.164,0.141
6.165,0.141
6.166,0.144
6.167,0.144
6.168,0.144
6.169,0.144
6.170,0.145
6.171,0.153
6.172,0.152
6.173,0.150
6.174,0.157
6.175,0.159
6.176,0.158
6.177,0.159
6.178,0.159
6.179,0.159
6.180,0.161
6.181,0.166
6.182,0.166
6.183,0.169
6.184,0.172
6.185,0.169
6.186,0.170
6.187,0.172
6.188,0.176
6.189,0.178
6.190,0.183
6.191,0.191
6.192,0.186
6.193,0.188
6.194,0.191
6.195,0.191
6.196,0.194
6.197,0.197
6.198,0.196
6.199,0.197
6.200,0.197
6.201,0.197
6.202,0.197
6.203,0.197
6.204,0.200
6.205,0.200
6.206,0.197
6.207,0.197
6.208,0.196
6.209,0.191
6.210,0.189
6.211,0.188
6.212,0.184
6.213,0.181
6.214,0.177
6.215,0.175
6.216,0.172
6.217,0.166
6.218,0.164
6.219,0.162
6.220,0.156
6.221,0.153
6.222,0.148
6.223,0.147
6.224,0.139
6.225,0.134
6.226,0.133
6.227,0.128
6.228,0.124
6.229,0.119
6.230,0.111
6.231,0.106
6.232,0.104
6.233,0.100
6.234,0.097
6.235,0.091
6.236,0.089
6.237,0.081
6.238,0.077
6.239,0.066
6.240,0.064
6.241,0.063
6.242,0.061
6.243,0.059
6.244,0.053
6.245,0.047
6.246,0.042
6.247,0.034
6.248,0.036
6.249,0.031
6.250,0.031
6.251,0.031
6.252,0.027
6.253,0.022
6.254,0.014
6.255,0.006
6.256,0.003
6.257,0.003
6.258,0.001
6.259,0.000
6.260,-0.003
6.261,-0.006
6.262,-0.009
6.263,-0.009
6.264,-0.009
6.265,-0.012
6.266,-0.014
6.267,-0.019
6.268,-0.022
6.269,-0.028
6.270,-0.028
6.271,-0.028
6.272,-0.030
6.273,-0.031
6.274,-0.028
6.275,-0.028
6.276,-0.030
6.277,-0.031
6.278,-0.031
6.279,-0.031
6.280,-0.034
6.281,-0.034
6.282,-0.039
6.283,-0.044
6.284,-0.045
6.285,-0.047
6.286,-0.044
6.287,-0.044
6.288,-0.042
6.289,-0.041
6.290,-0.039
6.291,-0.041
6.292,-0.042
6.293,-0.041
6.294,-0.044
6.295,-0.044
6.296,-0.045
6.297,-0.047
6.298,-0.047
6.299,-0.044
6.300,-0.048
6.301,-0.047
6.302,-0.047
6.303,-0.047
6.304,-0.047
6.305,-0.047
6.306,-0.044
6.307,-0.047
6.308,-0.046
6.309,-0.044
6.310,-0.048
6.311,-0.047
6.312,-0.048
6.313,-0.050
6.314,-0.047
6.315,-0.044
6.316,-0.042
6.317,-0.041
6.318,-0.042
6.319,-0.044
6.320,-0.045
6.321,-0.044
6.322,-0.041
6.323,-0.038
6.324,-0.038
6.325,-0.038
6.326,-0.038
6.327,-0.038
6.328,-0.041
6.329,-0.041
6.330,-0.039
6.331,-0.041
6.332,-0.038
6.333,-0.041
6.334,-0.042
6.335,-0.038
6.336,-0.038
6.337,-0.034
6.338,-0.034
6.339,-0.034
6.340,-0.036
6.341,-0.038
6.342,-0.036
6.343,-0.031
6.344,-0.030
6.345,-0.028
6.346,-0.031
6.347,-0.031
6.348,-0.031
6.349,-0.034
6.350,-0.036
6.351,-0.034
6.352,-0.034
6.353,-0.034
6.354,-0.031
6.355,-0.028
6.356,-0.029
6.357,-0.028
6.358,-0.029
6.359,-0.031
6.360,-0.030
6.361,-0.028
6.362,-0.028
6.363,-0.028
6.364,-0.028
6.365,-0.028
6.366,-0.027
6.367,-0.025
6.368,-0.029
6.369,-0.028
6.370,-0.025
6.371,-0.019
6.372,-0.020
6.373,-0.022
6.374,-0.022
6.375,-0.019
6.376,-0.019
6.377,-0.019
6.378,-0.023
6.379,-0.025
6.380,-0.021
6.381,-0.022
6.382,-0.017
6.383,-0.019
6.384,-0.022
6.385,-0.019
6.386,-0.019
6.387,-0.019
6.388,-0.016
6.389,-0.016
6.390,-0.020
6.391,-0.019
6.392,-0.016
6.393,-0.019
6.394,-0.017
6.395,-0.019
6.396,-0.019
6.397,-0.019
6.398,-0.017
6.399,-0.016
6.400,-0.017
6.401,-0.016
6.402,-0.014
6.403,-0.016
6.404,-0.017
6.405,-0.016
6.406,-0.019
6.407,-0.019
6.408,-0.017
6.409,-0.019
6.410,-0.017
6.411,-0.012
6.412,-0.012
6.413,-0.012
6.414,-0.017
6.415,-0.019
6.416,-0.020
6.417,-0.016
6.418,-0.019
6.419,-0.022
6.420,-0.022
6.421,-0.022
6.422,-0.021
6.423,-0.019
6.424,-0.017
6.425,-0.016
6.426,-0.011
6.427,-0.012
6.428,-0.014
6.429,-0.016
6.430,-0.017
6.431,-0.019
6.432,-0.019
6.433,-0.016
6.434,-0.016
6.435,-0.016
6.436,-0.020
6.437,-0.019
6.438,-0.019
6.439,-0.019
6.440,-0.021
6.441,-0.019
6.442,-0.022
6.443,-0.019
6.444,-0.025
6.445,-0.025
6.446,-0.025
6.447,-0.025
6.448,-0.022
6.449,-0.022
6.450,-0.025
6.451,-0.025
6.452,-0.024
6.453,-0.019
6.454,-0.023
6.455,-0.025
6.456,-0.028
6.457,-0.028
6.458,-0.025
6.459,-0.022
6.460,-0.022
6.461,-0.025
6.462,-0.025
6.463,-0.025
6.464,-0.026
6.465,-0.028
6.466,-0.029
6.467,-0.031
6.468,-0.030
6.469,-0.031
6.470,-0.031
6.471,-0.031
6.472,-0.034
6.473,-0.034
6.474,-0.034
6.475,-0.031
6.476,-0.031
6.477,-0.028
6.478,-0.033
6.479,-0.034
6.480,-0.033
6.481,-0.034
6.482,-0.036
6.483,-0.038
6.484,-0.041
6.485,-0.047
6.486,-0.044
6.487,-0.044
6.488,-0.042
6.489,-0.044
6.490,-0.044
6.491,-0.047
6.492,-0.046
6.493,-0.038
6.494,-0.038
6.495,-0.034
6.496,-0.039
6.497,-0.044
6.498,-0.044
6.499,-0.047
6.500,-0.046
6.501,-0.044
6.502,-0.047
6.503,-0.047
6.504,-0.045
6.505,-0.047
6.506,-0.047
6.507,-0.047
6.508,-0.046
6.509,-0.047
6.510,-0.047
6.511,-0.047
6.512,-0.047
6.513,-0.047
6.514,-0.047
6.515,-0.047
6.516,-0.047
6.517,-0.047
6.518,-0.046
6.519,-0.047
6.520,-0.048
6.521,-0.050
6.522,-0.053
6.523,-0.053
6.524,-0.053
6.525,-0.050
6.526,-0.053
6.527,-0.053
6.528,-0.054
6.529,-0.056
6.530,-0.056
6.531,-0.056
6.532,-0.055
6.533,-0.053
6.534,-0.056
6.535,-0.056
6.536,-0.056
6.537,-0.056
6.538,-0.057
6.539,-0.059
6.540,-0.056
6.541,-0.059
6.542,-0.059
6.543,-0.059
6.544,-0.055
6.545,-0.056
6.546,-0.055
6.547,-0.056
6.548,-0.056
6.549,-0.056
6.550,-0.057
6.551,-0.056
6.552,-0.062
6.553,-0.062
6.554,-0.061
6.555,-0.059
6.556,-0.061
6.557,-0.059
6.558,-0.061
6.559,-0.056
6.560,-0.059
6.561,-0.062
6.562,-0.064
6.563,-0.066
6.564,-0.064
6.565,-0.066
6.566,-0.066
6.567,-0.066
6.568,-0.066
6.569,-0.066
6.570,-0.066
6.571,-0.066
6.572,-0.062
6.573,-0.066
6.574,-0.066
6.575,-0.066
6.576,-0.066
6.577,-0.066
6.578,-0.062
6.579,-0.059
6.580,-0.056
6.581,-0.059
6.582,-0.061
6.583,-0.062
6.584,-0.059
6.585,-0.056
6.586,-0.057
6.587,-0.059
6.588,-0.061
6.589,-0.059
6.590,-0.059
6.591,-0.056
6.592,-0.059
6.593,-0.062
6.594,-0.064
6.595,-0.066
6.596,-0.064
6.597,-0.062
6.598,-0.061
6.599,-0.059
6.600,-0.057
6.601,-0.059
6.602,-0.061
6.603,-0.062
6.604,-0.062
6.605,-0.062
6.606,-0.064
6.607,-0.066
6.608,-0.066
6.609,-0.066
6.610,-0.067
6.611,-0.069
6.612,-0.069
6.613,-0.069
6.614,-0.069
6.615,-0.069
6.616,-0.069
6.617,-0.069
6.618,-0.068
6.619,-0.066
6.620,-0.067
6.621,-0.069
6.622,-0.069
6.623,-0.069
6.624,-0.068
6.625,-0.066
6.626,-0.067
6.627,-0.069
6.628,-0.069
6.629,-0.069
6.630,-0.069
6.631,-0.069
6.632,-0.066
6.633,-0.062
6.634,-0.062
6.635,-0.062
6.636,-0.064
6.637,-0.066
6.638,-0.066
6.639,-0.066
6.640,-0.066
6.641,-0.066
6.642,-0.067
6.643,-0.069
6.644,-0.069
6.645,-0.069
6.646,-0.069
6.647,-0.069
6.648,-0.069
6.649,-0.069
6.650,-0.066
6.651,-0.062
6.652,-0.062
6.653,-0.062
6.654,-0.064
6.655,-0.066
6.656,-0.066
6.657,-0.066
6.658,-0.066
6.659,-0.066
6.660,-0.066
6.661,-0.066
6.662,-0.066
6.663,-0.066
6.664,-0.066
6.665,-0.066
6.666,-0.067
6.667,-0.069
6.668,-0.069
6.669,-0.069
6.670,-0.069
6.671,-0.069
6.672,-0.069
6.673,-0.069
6.674,-0.068
6.675,-0.066
6.676,-0.066
6.677,-0.066
6.678,-0.066
6.679,-0.066
6.680,-0.066
6.681,-0.066
6.682,-0.062
6.683,-0.059
6.684,-0.059
6.685,-0.059
6.686,-0.061
6.687,-0.062
6.688,-0.062
6.689,-0.062
6.690,-0.067
6.691,-0.066
6.692,-0.066
6.693,-0.066
6.694,-0.066
6.695,-0.066
6.696,-0.067
6.697,-0.069
6.698,-0.069
6.699,-0.066
6.700,-0.068
6.701,-0.069
6.702,-0.066
6.703,-0.066
6.704,-0.064
6.705,-0.062
6.706,-0.069
6.707,-0.069
6.708,-0.062
6.709,-0.059
6.710,-0.064
6.711,-0.066
6.712,-0.062
6.713,-0.066
6.714,-0.067
6.715,-0.066
6.716,-0.068
6.717,-0.066
6.718,-0.066
6.719,-0.066
6.720,-0.066
6.721,-0.066
6.722,-0.062
6.723,-0.059
6.724,-0.059
6.725,-0.062
6.726,-0.062
6.727,-0.059
6.728,-0.062
6.729,-0.062
6.730,-0.064
6.731,-0.062
6.732,-0.066
6.733,-0.072
6.734,-0.073
6.735,-0.075
6.736,-0.075
6.737,-0.072
6.738,-0.071
6.739,-0.069
6.740,-0.071
6.741,-0.069
6.742,-0.069
6.743,-0.069
6.744,-0.070
6.745,-0.069
6.746,-0.072
6.747,-0.072
6.748,-0.072
6.749,-0.072
6.750,-0.072
6.751,-0.072
6.752,-0.072
6.753,-0.072
6.754,-0.072
6.755,-0.072
6.756,-0.068
6.757,-0.066
6.758,-0.068
6.759,-0.066
6.760,-0.064
6.761,-0.066
6.762,-0.064
6.763,-0.066
6.764,-0.069
6.765,-0.069
6.766,-0.064
6.767,-0.066
6.768,-0.069
6.769,-0.066
6.770,-0.064
6.771,-0.066
6.772,-0.069
6.773,-0.069
6.774,-0.070
6.775,-0.069
6.776,-0.068
6.777,-0.069
6.778,-0.072
6.779,-0.072
6.780,-0.072
6.781,-0.072
6.782,-0.072
6.783,-0.072
6.784,-0.071
6.785,-0.069
6.786,-0.067
6.787,-0.069
6.788,-0.069
6.789,-0.069
6.790,-0.068
6.791,-0.066
6.792,-0.064
6.793,-0.066
6.794,-0.066
6.795,-0.066
6.796,-0.069
6.797,-0.066
6.798,-0.067
6.799,-0.066
6.800,-0.069
6.801,-0.072
6.802,-0.071
6.803,-0.072
6.804,-0.072
6.805,-0.069
6.806,-0.066
6.807,-0.069
6.808,-0.069
6.809,-0.072
6.810,-0.073
6.811,-0.072
6.812,-0.071
6.813,-0.072
6.814,-0.073
6.815,-0.072
6.816,-0.071
6.817,-0.069
6.818,-0.073
6.819,-0.072
6.820,-0.071
6.821,-0.069
6.822,-0.072
6.823,-0.069
6.824,-0.070
6.825,-0.072
6.826,-0.072
6.827,-0.075
6.828,-0.075
6.829,-0.075
6.830,-0.074
6.831,-0.075
6.832,-0.071
6.833,-0.069
6.834,-0.071
6.835,-0.069
6.836,-0.069
6.837,-0.069
6.838,-0.070
6.839,-0.072
6.840,-0.072
6.841,-0.072
6.842,-0.072
6.843,-0.072
6.844,-0.072
6.845,-0.072
6.846,-0.072
6.847,-0.072
6.848,-0.071
6.849,-0.072
6.850,-0.070
6.851,-0.069
6.852,-0.071
6.853,-0.069
6.854,-0.072
6.855,-0.072
6.856,-0.070
6.857,-0.072
6.858,-0.071
6.859,-0.069
6.860,-0.073
6.861,-0.072
6.862,-0.072
6.863,-0.072
6.864,-0.072
6.865,-0.072
6.866,-0.072
6.867,-0.072
6.868,-0.075
6.869,-0.078
6.870,-0.077
6.871,-0.075
6.872,-0.074
6.873,-0.072
6.874,-0.073
6.875,-0.075
6.876,-0.076
6.877,-0.075
6.878,-0.075
6.879,-0.075
6.880,-0.075
6.881,-0.075
6.882,-0.074
6.883,-0.075
6.884,-0.075
6.885,-0.075
6.886,-0.071
6.887,-0.069
6.888,-0.069
6.889,-0.069
6.890,-0.072
6.891,-0.072
6.892,-0.072
6.893,-0.072
6.894,-0.073
6.895,-0.075
6.896,-0.076
6.897,-0.075
6.898,-0.074
6.899,-0.072
6.900,-0.072
6.901,-0.072
6.902,-0.073
6.903,-0.075
6.904,-0.075
6.905,-0.075
6.906,-0.075
6.907,-0.075
6.908,-0.074
6.909,-0.075
6.910,-0.075
6.911,-0.075
6.912,-0.075
6.913,-0.075
6.914,-0.076
6.915,-0.078
6.916,-0.077
6.917,-0.075
6.918,-0.072
6.919,-0.072
6.920,-0.074
6.921,-0.075
6.922,-0.072
6.923,-0.072
6.924,-0.075
6.925,-0.075
6.926,-0.074
6.927,-0.072
6.928,-0.074
6.929,-0.069
6.930,-0.073
6.931,-0.072
6.932,-0.073
6.933,-0.075
6.934,-0.074
6.935,-0.072
6.936,-0.072
6.937,-0.072
6.938,-0.074
6.939,-0.072
6.940,-0.073
6.941,-0.075
6.942,-0.073
6.943,-0.075
6.944,-0.074
6.945,-0.075
6.946,-0.076
6.947,-0.078
6.948,-0.078
6.949,-0.078
6.950,-0.078
6.951,-0.078
6.952,-0.078
6.953,-0.078
6.954,-0.078
6.955,-0.078
6.956,-0.075
6.957,-0.075
6.958,-0.078
6.959,-0.078
6.960,-0.078
6.961,-0.078
6.962,-0.075
6.963,-0.075
6.964,-0.079
6.965,-0.078
6.966,-0.075
6.967,-0.075
6.968,-0.073
6.969,-0.072
6.970,-0.072
6.971,-0.075
6.972,-0.075
6.973,-0.075
6.974,-0.075
6.975,-0.075
6.976,-0.076
6.977,-0.075
6.978,-0.077
6.979,-0.072
6.980,-0.074
6.981,-0.069
6.982,-0.066
6.983,-0.066
6.984,-0.067
6.985,-0.066
6.986,-0.062
6.987,-0.059
6.988,-0.053
6.989,-0.047
6.990,-0.048
6.991,-0.047
6.992,-0.044
6.993,-0.041
6.994,-0.050
6.995,-0.034
6.996,-0.030
6.997,-0.022
6.998,-0.017
6.999,-0.009
7.000,-0.005
7.001,0.000
7.002,0.004
7.003,0.003
7.004,0.006
7.005,0.006
7.006,0.001
7.007,0.000
7.008,-0.006
7.009,-0.009
7.010,-0.011
7.011,-0.009
7.012,-0.011
7.013,-0.012
7.014,-0.008
7.015,-0.009
7.016,-0.012
7.017,-0.012
7.018,-0.008
7.019,-0.006
7.020,-0.005
7.021,0.000
7.022,-0.001
7.023,0.000
7.024,0.000
7.025,0.000
7.026,0.004
7.027,0.009
7.028,0.017
7.029,0.022
7.030,0.020
7.031,0.019
7.032,0.012
7.033,0.003
7.034,0.000
7.035,0.000
7.036,0.001
7.037,0.003
7.038,0.004
7.039,0.006
7.040,0.006
7.041,0.006
7.042,0.003
7.043,0.003
7.044,-0.005
7.045,-0.009
7.046,-0.009
7.047,-0.012
7.048,-0.012
7.049,-0.016
7.050,-0.022
7.051,-0.025
7.052,-0.025
7.053,-0.028
7.054,-0.029
7.055,-0.031
7.056,-0.031
7.057,-0.034
7.058,-0.033
7.059,-0.031
7.060,-0.028
7.061,-0.025
7.062,-0.028
7.063,-0.028
7.064,-0.031
7.065,-0.038
7.066,-0.048
7.067,-0.056
7.068,-0.059
7.069,-0.059
7.070,-0.061
7.071,-0.062
7.072,-0.061
7.073,-0.059
7.074,-0.062
7.075,-0.066
7.076,-0.070
7.077,-0.072
7.078,-0.072
7.079,-0.072
7.080,-0.072
7.081,-0.072
7.082,-0.073
7.083,-0.075
7.084,-0.075
7.085,-0.075
7.086,-0.075
7.087,-0.075
7.088,-0.075
7.089,-0.075
7.090,-0.074
7.091,-0.075
7.092,-0.072
7.093,-0.072
7.094,-0.078
7.095,-0.081
7.096,-0.081
7.097,-0.081
7.098,-0.084
7.099,-0.081
7.100,-0.080
7.101,-0.081
7.102,-0.081
7.103,-0.081
7.104,-0.077
7.105,-0.075
7.106,-0.079
7.107,-0.081
7.108,-0.081
7.109,-0.081
7.110,-0.081
7.111,-0.081
7.112,-0.082
7.113,-0.084
7.114,-0.080
7.115,-0.081
7.116,-0.086
7.117,-0.087
7.118,-0.091
7.119,-0.091
7.120,-0.091
7.121,-0.091
7.122,-0.089
7.123,-0.091
7.124,-0.089
7.125,-0.091
7.126,-0.087
7.127,-0.084
7.128,-0.084
7.129,-0.081
7.130,-0.084
7.131,-0.084
7.132,-0.084
7.133,-0.087
7.134,-0.086
7.135,-0.087
7.136,-0.086
7.137,-0.084
7.138,-0.087
7.139,-0.091
7.140,-0.094
7.141,-0.100
7.142,-0.103
7.143,-0.116
7.144,-0.132
7.145,-0.147
7.146,-0.159
7.147,-0.178
7.148,-0.196
7.149,-0.203
7.150,-0.212
7.151,-0.209
7.152,-0.207
7.153,-0.200
7.154,-0.186
7.155,-0.162
7.156,-0.141
7.157,-0.113
7.158,-0.081
7.159,-0.044
7.160,-0.006
7.161,0.038
7.162,0.083
7.163,0.119
7.164,0.153
7.165,0.203
7.166,0.250
7.167,0.309
7.168,0.376
7.169,0.434
7.170,0.489
7.171,0.578
7.172,0.664
7.173,0.741
7.174,0.814
7.175,0.875
7.176,0.942
7.177,0.984
7.178,1.042
7.179,1.094
7.180,1.152
7.181,1.206
7.182,1.252
7.183,1.294
7.184,1.309
7.185,1.316
7.186,1.280
7.187,1.203
7.188,1.122
7.189,1.016
7.190,0.919
7.191,0.838
7.192,0.759
7.193,0.684
7.194,0.613
7.195,0.559
7.196,0.497
7.197,0.441
7.198,0.384
7.199,0.328
7.200,0.282
7.201,0.228
7.202,0.172
7.203,0.116
7.204,0.061
7.205,0.009
7.206,-0.019
7.207,-0.041
7.208,-0.059
7.209,-0.072
7.210,-0.078
7.211,-0.081
7.212,-0.084
7.213,-0.081
7.214,-0.074
7.215,-0.062
7.216,-0.050
7.217,-0.031
7.218,-0.026
7.219,-0.019
7.220,-0.014
7.221,-0.009
7.222,-0.003
7.223,0.000
7.224,0.005
7.225,0.009
7.226,0.021
7.227,0.019
7.228,0.022
7.229,0.022
7.230,0.025
7.231,0.022
7.232,0.016
7.233,0.009
7.234,0.006
7.235,0.003
7.236,0.001
7.237,0.000
7.238,0.001
7.239,0.003
7.240,0.000
7.241,0.000
7.242,0.000
7.243,0.000
7.244,-0.002
7.245,-0.003
7.246,0.001
7.247,0.000
7.248,-0.003
7.249,0.000
7.250,-0.003
7.251,0.000
7.252,-0.004
7.253,-0.006
7.254,-0.009
7.255,-0.009
7.256,-0.011
7.257,-0.012
7.258,-0.014
7.259,-0.016
7.260,-0.011
7.261,-0.009
7.262,-0.009
7.263,-0.006
7.264,-0.006
7.265,-0.009
7.266,-0.012
7.267,-0.012
7.268,-0.012
7.269,-0.012
7.270,-0.009
7.271,-0.009
7.272,-0.014
7.273,-0.016
7.274,-0.014
7.275,-0.012
7.276,-0.009
7.277,-0.006
7.278,-0.003
7.279,0.000
7.280,0.003
7.281,0.000
7.282,0.000
7.283,0.000
7.284,-0.001
7.285,-0.003
7.286,-0.003
7.287,-0.003
7.288,-0.003
7.289,-0.003
7.290,-0.001
7.291,0.000
7.292,-0.002
7.293,0.000
7.294,-0.001
7.295,0.000
7.296,0.000
7.297,0.000
7.298,0.003
7.299,0.003
7.300,0.003
7.301,0.003
7.302,0.004
7.303,0.003
7.304,0.003
7.305,0.006
7.306,0.006
7.307,0.009
7.308,0.006
7.309,0.006
7.310,0.008
7.311,0.006
7.312,0.005
7.313,0.003
7.314,0.004
7.315,0.006
7.316,0.006
7.317,0.009
7.318,0.009
7.319,0.009
7.320,0.009
7.321,0.009
7.322,0.009
7.323,0.009
7.324,0.016
7.325,0.019
7.326,0.023
7.327,0.025
7.328,0.021
7.329,0.022
7.330,0.021
7.331,0.019
7.332,0.021
7.333,0.019
7.334,0.021
7.335,0.019
7.336,0.022
7.337,0.025
7.338,0.025
7.339,0.025
7.340,0.025
7.341,0.025
7.342,0.025
7.343,0.025
7.344,0.025
7.345,0.028
7.346,0.031
7.347,0.034
7.348,0.038
7.349,0.041
7.350,0.038
7.351,0.038
7.352,0.038
7.353,0.034
7.354,0.038
7.355,0.041
7.356,0.038
7.357,0.038
7.358,0.039
7.359,0.044
7.360,0.047
7.361,0.050
7.362,0.050
7.363,0.050
7.364,0.047
7.365,0.047
7.366,0.049
7.367,0.047
7.368,0.047
7.369,0.047
7.370,0.047
7.371,0.047
7.372,0.047
7.373,0.047
7.374,0.047
7.375,0.050
7.376,0.049
7.377,0.050
7.378,0.051
7.379,0.056
7.380,0.058
7.381,0.056
7.382,0.058
7.383,0.059
7.384,0.058
7.385,0.059
7.386,0.061
7.387,0.063
7.388,0.061
7.389,0.063
7.390,0.063
7.391,0.063
7.392,0.064
7.393,0.069
7.394,0.066
7.395,0.066
7.396,0.066
7.397,0.066
7.398,0.067
7.399,0.072
7.400,0.075
7.401,0.075
7.402,0.079
7.403,0.078
7.404,0.082
7.405,0.084
7.406,0.083
7.407,0.084
7.408,0.087
7.409,0.091
7.410,0.091
7.411,0.091
7.412,0.091
7.413,0.094
7.414,0.092
7.415,0.097
7.416,0.099
7.417,0.100
7.418,0.100
7.419,0.100
7.420,0.101
7.421,0.106
7.422,0.105
7.423,0.106
7.424,0.113
7.425,0.116
7.426,0.111
7.427,0.106
7.428,0.109
7.429,0.109
7.430,0.119
7.431,0.122
7.432,0.121
7.433,0.122
7.434,0.122
7.435,0.122
7.436,0.126
7.437,0.128
7.438,0.133
7.439,0.134
7.440,0.136
7.441,0.138
7.442,0.139
7.443,0.138
7.444,0.141
7.445,0.141
7.446,0.142
7.447,0.144
7.448,0.141
7.449,0.144
7.450,0.147
7.451,0.150
7.452,0.155
7.453,0.153
7.454,0.154
7.455,0.159
7.456,0.158
7.457,0.156
7.458,0.157
7.459,0.162
7.460,0.164
7.461,0.169
7.462,0.175
7.463,0.175
7.464,0.176
7.465,0.178
7.466,0.180
7.467,0.178
7.468,0.178
7.469,0.181
7.470,0.184
7.471,0.194
7.472,0.196
7.473,0.194
7.474,0.195
7.475,0.197
7.476,0.196
7.477,0.197
7.478,0.196
7.479,0.194
7.480,0.195
7.481,0.197
7.482,0.198
7.483,0.197
7.484,0.194
7.485,0.194
7.486,0.195
7.487,0.194
7.488,0.189
7.489,0.184
7.490,0.184
7.491,0.184
7.492,0.181
7.493,0.181
7.494,0.181
7.495,0.178
7.496,0.172
7.497,0.166
7.498,0.161
7.499,0.159
7.500,0.153
7.501,0.150
7.502,0.145
7.503,0.144
7.504,0.138
7.505,0.128
7.506,0.125
7.507,0.122
7.508,0.116
7.509,0.113
7.510,0.106
7.511,0.097
7.512,0.094
7.513,0.087
7.514,0.087
7.515,0.081
7.516,0.080
7.517,0.072
7.518,0.069
7.519,0.066
7.520,0.059
7.521,0.053
7.522,0.051
7.523,0.050
7.524,0.046
7.525,0.038
7.526,0.036
7.527,0.028
7.528,0.028
7.529,0.028
7.530,0.025
7.531,0.022
7.532,0.018
7.533,0.012
7.534,0.008
7.535,0.006
7.536,0.006
7.537,0.006
7.538,0.004
7.539,0.003
7.540,0.000
7.541,0.000
7.542,-0.003
7.543,-0.009
7.544,-0.011
7.545,-0.016
7.546,-0.014
7.547,-0.016
7.548,-0.016
7.549,-0.016
7.550,-0.022
7.551,-0.028
7.552,-0.028
7.553,-0.031
7.554,-0.033
7.555,-0.034
7.556,-0.034
7.557,-0.034
7.558,-0.038
7.559,-0.038
7.560,-0.039
7.561,-0.041
7.562,-0.039
7.563,-0.038
7.564,-0.038
7.565,-0.041
7.566,-0.039
7.567,-0.038
7.568,-0.036
7.569,-0.038
7.570,-0.038
7.571,-0.034
7.572,-0.039
7.573,-0.041
7.574,-0.042
7.575,-0.044
7.576,-0.044
7.577,-0.041
7.578,-0.044
7.579,-0.041
7.580,-0.042
7.581,-0.044
7.582,-0.044
7.583,-0.044
7.584,-0.041
7.585,-0.044
7.586,-0.042
7.587,-0.041
7.588,-0.045
7.589,-0.044
7.590,-0.044
7.591,-0.044
7.592,-0.044
7.593,-0.044
7.594,-0.044
7.595,-0.044
7.596,-0.044
7.597,-0.044
7.598,-0.045
7.599,-0.044
7.600,-0.044
7.601,-0.044
7.602,-0.044
7.603,-0.044
7.604,-0.041
7.605,-0.038
7.606,-0.039
7.607,-0.038
7.608,-0.036
7.609,-0.038
7.610,-0.036
7.611,-0.041
7.612,-0.041
7.613,-0.034
7.614,-0.036
7.615,-0.034
7.616,-0.034
7.617,-0.034
7.618,-0.034
7.619,-0.034
7.620,-0.038
7.621,-0.038
7.622,-0.036
7.623,-0.034
7.624,-0.038
7.625,-0.038
7.626,-0.036
7.627,-0.038
7.628,-0.038
7.629,-0.034
7.630,-0.034
7.631,-0.034
7.632,-0.034
7.633,-0.034
7.634,-0.036
7.635,-0.034
7.636,-0.033
7.637,-0.031
7.638,-0.031
7.639,-0.031
7.640,-0.033
7.641,-0.034
7.642,-0.033
7.643,-0.031
7.644,-0.031
7.645,-0.031
7.646,-0.036
7.647,-0.034
7.648,-0.036
7.649,-0.034
7.650,-0.034
7.651,-0.034
7.652,-0.034
7.653,-0.031
7.654,-0.028
7.655,-0.025
7.656,-0.029
7.657,-0.031
7.658,-0.028
7.659,-0.031
7.660,-0.027
7.661,-0.028
7.662,-0.029
7.663,-0.025
7.664,-0.025
7.665,-0.025
7.666,-0.025
7.667,-0.028
7.668,-0.033
7.669,-0.031
7.670,-0.027
7.671,-0.028
7.672,-0.026
7.673,-0.028
7.674,-0.027
7.675,-0.025
7.676,-0.022
7.677,-0.019
7.678,-0.022
7.679,-0.022
7.680,-0.022
7.681,-0.025
7.682,-0.025
7.683,-0.022
7.684,-0.025
7.685,-0.025
7.686,-0.024
7.687,-0.025
7.688,-0.026
7.689,-0.025
7.690,-0.024
7.691,-0.022
7.692,-0.025
7.693,-0.025
7.694,-0.026
7.695,-0.022
7.696,-0.024
7.697,-0.025
7.698,-0.025
7.699,-0.025
7.700,-0.025
7.701,-0.025
7.702,-0.025
7.703,-0.025
7.704,-0.022
7.705,-0.025
7.706,-0.025
7.707,-0.025
7.708,-0.024
7.709,-0.022
7.710,-0.026
7.711,-0.028
7.712,-0.028
7.713,-0.028
7.714,-0.033
7.715,-0.031
7.716,-0.030
7.717,-0.028
7.718,-0.031
7.719,-0.031
7.720,-0.033
7.721,-0.028
7.722,-0.031
7.723,-0.028
7.724,-0.031
7.725,-0.034
7.726,-0.031
7.727,-0.031
7.728,-0.034
7.729,-0.034
7.730,-0.034
7.731,-0.031
7.732,-0.034
7.733,-0.034
7.734,-0.038
7.735,-0.038
7.736,-0.038
7.737,-0.038
7.738,-0.036
7.739,-0.038
7.740,-0.038
7.741,-0.038
7.742,-0.041
7.743,-0.044
7.744,-0.044
7.745,-0.044
7.746,-0.041
7.747,-0.041
7.748,-0.041
7.749,-0.041
7.750,-0.041
7.751,-0.038
7.752,-0.041
7.753,-0.041
7.754,-0.041
7.755,-0.038
7.756,-0.041
7.757,-0.041
7.758,-0.041
7.759,-0.044
7.760,-0.044
7.761,-0.044
7.762,-0.044
7.763,-0.047
7.764,-0.045
7.765,-0.047
7.766,-0.046
7.767,-0.047
7.768,-0.046
7.769,-0.047
7.770,-0.048
7.771,-0.044
7.772,-0.046
7.773,-0.044
7.774,-0.046
7.775,-0.047
7.776,-0.045
7.777,-0.047
7.778,-0.048
7.779,-0.050
7.780,-0.053
7.781,-0.053
7.782,-0.050
7.783,-0.050
7.784,-0.050
7.785,-0.050
7.786,-0.049
7.787,-0.050
7.788,-0.051
7.789,-0.053
7.790,-0.053
7.791,-0.053
7.792,-0.053
7.793,-0.053
7.794,-0.053
7.795,-0.053
7.796,-0.052
7.797,-0.053
7.798,-0.052
7.799,-0.050
7.800,-0.056
7.801,-0.059
7.802,-0.059
7.803,-0.056
7.804,-0.059
7.805,-0.059
7.806,-0.058
7.807,-0.056
7.808,-0.056
7.809,-0.056
7.810,-0.059
7.811,-0.062
7.812,-0.064
7.813,-0.062
7.814,-0.064
7.815,-0.066
7.816,-0.066
7.817,-0.066
7.818,-0.062
7.819,-0.066
7.820,-0.066
7.821,-0.066
7.822,-0.062
7.823,-0.066
7.824,-0.066
7.825,-0.069
7.826,-0.069
7.827,-0.069
7.828,-0.069
7.829,-0.066
7.830,-0.069
7.831,-0.066
7.832,-0.067
7.833,-0.069
7.834,-0.071
7.835,-0.069
7.836,-0.073
7.837,-0.072
7.838,-0.069
7.839,-0.066
7.840,-0.066
7.841,-0.066
7.842,-0.064
7.843,-0.066
7.844,-0.067
7.845,-0.069
7.846,-0.070
7.847,-0.072
7.848,-0.073
7.849,-0.075
7.850,-0.071
7.851,-0.072
7.852,-0.072
7.853,-0.072
7.854,-0.073
7.855,-0.075
7.856,-0.075
7.857,-0.075
7.858,-0.072
7.859,-0.075
7.860,-0.074
7.861,-0.072
7.862,-0.072
7.863,-0.072
7.864,-0.073
7.865,-0.075
7.866,-0.075
7.867,-0.072
7.868,-0.075
7.869,-0.075
7.870,-0.075
7.871,-0.075
7.872,-0.075
7.873,-0.075
7.874,-0.075
7.875,-0.075
7.876,-0.075
7.877,-0.075
7.878,-0.072
7.879,-0.072
7.880,-0.072
7.881,-0.072
7.882,-0.072
7.883,-0.072
7.884,-0.074
7.885,-0.075
7.886,-0.074
7.887,-0.072
7.888,-0.072
7.889,-0.072
7.890,-0.076
7.891,-0.081
7.892,-0.081
7.893,-0.081
7.894,-0.081
7.895,-0.081
7.896,-0.081
7.897,-0.081
7.898,-0.078
7.899,-0.075
7.900,-0.076
7.901,-0.078
7.902,-0.079
7.903,-0.081
7.904,-0.081
7.905,-0.081
7.906,-0.080
7.907,-0.078
7.908,-0.078
7.909,-0.078
7.910,-0.079
7.911,-0.081
7.912,-0.081
7.913,-0.081
7.914,-0.080
7.915,-0.081
7.916,-0.079
7.917,-0.081
7.918,-0.078
7.919,-0.075
7.920,-0.076
7.921,-0.078
7.922,-0.078
7.923,-0.078
7.924,-0.074
7.925,-0.075
7.926,-0.079
7.927,-0.078
7.928,-0.075
7.929,-0.072
7.930,-0.072
7.931,-0.075
7.932,-0.078
7.933,-0.081
7.934,-0.080
7.935,-0.081
7.936,-0.080
7.937,-0.075
7.938,-0.081
7.939,-0.084
7.940,-0.080
7.941,-0.081
7.942,-0.080
7.943,-0.078
7.944,-0.078
7.945,-0.078
7.946,-0.078
7.947,-0.078
7.948,-0.079
7.949,-0.081
7.950,-0.084
7.951,-0.084
7.952,-0.081
7.953,-0.084
7.954,-0.084
7.955,-0.084
7.956,-0.080
7.957,-0.078
7.958,-0.080
7.959,-0.078
7.960,-0.079
7.961,-0.081
7.962,-0.079
7.963,-0.081
7.964,-0.080
7.965,-0.081
7.966,-0.082
7.967,-0.084
7.968,-0.084
7.969,-0.084
7.970,-0.081
7.971,-0.084
7.972,-0.084
7.973,-0.084
7.974,-0.084
7.975,-0.084
7.976,-0.084
7.977,-0.084
7.978,-0.083
7.979,-0.081
7.980,-0.082
7.981,-0.081
7.982,-0.080
7.983,-0.081
7.984,-0.082
7.985,-0.081
7.986,-0.080
7.987,-0.078
7.988,-0.081
7.989,-0.081
7.990,-0.078
7.991,-0.075
7.992,-0.075
7.993,-0.075
7.994,-0.073
7.995,-0.075
7.996,-0.079
7.997,-0.081
7.998,-0.079
7.999,-0.081
8.000,-0.077
8.001,-0.075
8.002,-0.078
8.003,-0.081
8.004,-0.081
8.005,-0.081
8.006,-0.081
8.007,-0.081
8.008,-0.078
8.009,-0.075
8.010,-0.076
8.011,-0.075
8.012,-0.076
8.013,-0.078
8.014,-0.077
8.015,-0.075
8.016,-0.075
8.017,-0.075
8.018,-0.075
8.019,-0.072
8.020,-0.073
8.021,-0.078
8.022,-0.076
8.023,-0.078
8.024,-0.076
8.025,-0.078
8.026,-0.078
8.027,-0.078
8.028,-0.081
8.029,-0.081
8.030,-0.077
8.031,-0.072
8.032,-0.075
8.033,-0.075
8.034,-0.078
8.035,-0.078
8.036,-0.075
8.037,-0.075
8.038,-0.078
8.039,-0.078
8.040,-0.076
8.041,-0.078
8.042,-0.078
8.043,-0.081
8.044,-0.079
8.045,-0.081
8.046,-0.080
8.047,-0.081
8.048,-0.077
8.049,-0.075
8.050,-0.075
8.051,-0.075
8.052,-0.079
8.053,-0.078
8.054,-0.074
8.055,-0.072
8.056,-0.075
8.057,-0.072
8.058,-0.073
8.059,-0.078
8.060,-0.079
8.061,-0.081
8.062,-0.081
8.063,-0.081
8.064,-0.078
8.065,-0.075
8.066,-0.075
8.067,-0.075
8.068,-0.075
8.069,-0.075
8.070,-0.076
8.071,-0.078
8.072,-0.075
8.073,-0.072
8.074,-0.075
8.075,-0.072
8.076,-0.069
8.077,-0.072
8.078,-0.071
8.079,-0.072
8.080,-0.075
8.081,-0.075
8.082,-0.075
8.083,-0.075
8.084,-0.078
8.085,-0.084
8.086,-0.082
8.087,-0.084
8.088,-0.084
8.089,-0.084
8.090,-0.080
8.091,-0.075
8.092,-0.076
8.093,-0.078
8.094,-0.079
8.095,-0.081
8.096,-0.082
8.097,-0.084
8.098,-0.084
8.099,-0.084
8.100,-0.084
8.101,-0.084
8.102,-0.082
8.103,-0.084
8.104,-0.081
8.105,-0.078
8.106,-0.079
8.107,-0.081
8.108,-0.084
8.109,-0.084
8.110,-0.086
8.111,-0.084
8.112,-0.084
8.113,-0.084
8.114,-0.083
8.115,-0.084
8.116,-0.086
8.117,-0.087
8.118,-0.087
8.119,-0.087
8.120,-0.087
8.121,-0.087
8.122,-0.086
8.123,-0.087
8.124,-0.087
8.125,-0.087
8.126,-0.087
8.127,-0.087
8.128,-0.087
8.129,-0.087
8.130,-0.087
8.131,-0.087
8.132,-0.086
8.133,-0.084
8.134,-0.087
8.135,-0.087
8.136,-0.087
8.137,-0.087
8.138,-0.087
8.139,-0.087
8.140,-0.086
8.141,-0.084
8.142,-0.087
8.143,-0.087
8.144,-0.086
8.145,-0.087
8.146,-0.089
8.147,-0.084
8.148,-0.086
8.149,-0.087
8.150,-0.086
8.151,-0.087
8.152,-0.086
8.153,-0.087
8.154,-0.084
8.155,-0.087
8.156,-0.084
8.157,-0.084
8.158,-0.084
8.159,-0.084
8.160,-0.086
8.161,-0.087
8.162,-0.086
8.163,-0.087
8.164,-0.087
8.165,-0.087
8.166,-0.087
8.167,-0.084
8.168,-0.084
8.169,-0.084
8.170,-0.087
8.171,-0.087
8.172,-0.087
8.173,-0.087
8.174,-0.087
8.175,-0.087
8.176,-0.087
8.177,-0.087
8.178,-0.087
8.179,-0.087
8.180,-0.089
8.181,-0.087
8.182,-0.086
8.183,-0.087
8.184,-0.087
8.185,-0.087
8.186,-0.089
8.187,-0.087
8.188,-0.086
8.189,-0.087
8.190,-0.084
8.191,-0.084
8.192,-0.089
8.193,-0.087
8.194,-0.084
8.195,-0.084
8.196,-0.087
8.197,-0.087
8.198,-0.087
8.199,-0.087
8.200,-0.087
8.201,-0.087
8.202,-0.084
8.203,-0.087
8.204,-0.084
8.205,-0.087
8.206,-0.084
8.207,-0.081
8.208,-0.080
8.209,-0.078
8.210,-0.076
8.211,-0.075
8.212,-0.073
8.213,-0.072
8.214,-0.069
8.215,-0.069
8.216,-0.066
8.217,-0.066
8.218,-0.067
8.219,-0.066
8.220,-0.038
8.221,-0.038
8.222,-0.033
8.223,-0.031
8.224,-0.027
8.225,-0.022
8.226,-0.019
8.227,-0.016
8.228,-0.016
8.229,-0.009
8.230,-0.008
8.231,-0.012
8.232,-0.017
8.233,-0.022
8.234,-0.023
8.235,-0.028
8.236,-0.028
8.237,-0.028
8.238,-0.028
8.239,-0.025
8.240,-0.028
8.241,-0.028
8.242,-0.025
8.243,-0.022
8.244,-0.021
8.245,-0.019
8.246,-0.016
8.247,-0.016
8.248,-0.012
8.249,-0.009
8.250,-0.005
8.251,-0.003
8.252,-0.003
8.253,0.003
8.254,0.006
8.255,0.003
8.256,-0.001
8.257,-0.009
8.258,-0.019
8.259,-0.019
8.260,-0.017
8.261,-0.019
8.262,-0.016
8.263,-0.012
8.264,-0.011
8.265,-0.012
8.266,-0.016
8.267,-0.016
8.268,-0.012
8.269,-0.022
8.270,-0.028
8.271,-0.028
8.272,-0.033
8.273,-0.034
8.274,-0.039
8.275,-0.044
8.276,-0.044
8.277,-0.044
8.278,-0.047
8.279,-0.047
8.280,-0.046
8.281,-0.044
8.282,-0.047
8.283,-0.047
8.284,-0.048
8.285,-0.050
8.286,-0.049
8.287,-0.050
8.288,-0.050
8.289,-0.053
8.290,-0.059
8.291,-0.066
8.292,-0.069
8.293,-0.072
8.294,-0.072
8.295,-0.075
8.296,-0.079
8.297,-0.081
8.298,-0.082
8.299,-0.087
8.300,-0.089
8.301,-0.091
8.302,-0.091
8.303,-0.091
8.304,-0.091
8.305,-0.091
8.306,-0.091
8.307,-0.091
8.308,-0.091
8.309,-0.091
8.310,-0.092
8.311,-0.094
8.312,-0.092
8.313,-0.091
8.314,-0.091
8.315,-0.091
8.316,-0.095
8.317,-0.094
8.318,-0.094
8.319,-0.097
8.320,-0.096
8.321,-0.094
8.322,-0.094
8.323,-0.097
8.324,-0.094
8.325,-0.094
8.326,-0.098
8.327,-0.100
8.328,-0.100
8.329,-0.097
8.330,-0.094
8.331,-0.094
8.332,-0.095
8.333,-0.097
8.334,-0.098
8.335,-0.100
8.336,-0.097
8.337,-0.094
8.338,-0.092
8.339,-0.087
8.340,-0.091
8.341,-0.094
8.342,-0.095
8.343,-0.097
8.344,-0.094
8.345,-0.094
8.346,-0.094
8.347,-0.094
8.348,-0.100
8.349,-0.100
8.350,-0.099
8.351,-0.097
8.352,-0.097
8.353,-0.097
8.354,-0.092
8.355,-0.094
8.356,-0.094
8.357,-0.094
8.358,-0.100
8.359,-0.100
8.360,-0.099
8.361,-0.097
8.362,-0.094
8.363,-0.094
8.364,-0.096
8.365,-0.097
8.366,-0.106
8.367,-0.113
8.368,-0.126
8.369,-0.144
8.370,-0.157
8.371,-0.172
8.372,-0.188
8.373,-0.203
8.374,-0.209
8.375,-0.216
8.376,-0.216
8.377,-0.216
8.378,-0.202
8.379,-0.188
8.380,-0.164
8.381,-0.137
8.382,-0.108
8.383,-0.078
8.384,-0.042
8.385,-0.003
8.386,0.033
8.387,0.072
8.388,0.117
8.389,0.156
8.390,0.206
8.391,0.256
8.392,0.308
8.393,0.363
8.394,0.426
8.395,0.491
8.396,0.577
8.397,0.662
8.398,0.736
8.399,0.809
8.400,0.874
8.401,0.941
8.402,0.984
8.403,1.034
8.404,1.084
8.405,1.150
8.406,1.202
8.407,1.244
8.408,1.289
8.409,1.316
8.410,1.314
8.411,1.281
8.412,1.211
8.413,1.116
8.414,1.017
8.415,0.922
8.416,0.838
8.417,0.759
8.418,0.688
8.419,0.619
8.420,0.561
8.421,0.509
8.422,0.463
8.423,0.403
8.424,0.344
8.425,0.291
8.426,0.233
8.427,0.181
8.428,0.128
8.429,0.072
8.430,0.022
8.431,-0.019
8.432,-0.053
8.433,-0.069
8.434,-0.080
8.435,-0.084
8.436,-0.086
8.437,-0.087
8.438,-0.080
8.439,-0.075
8.440,-0.071
8.441,-0.059
8.442,-0.045
8.443,-0.038
8.444,-0.028
8.445,-0.022
8.446,-0.016
8.447,-0.012
8.448,-0.006
8.449,0.003
8.450,0.006
8.451,0.016
8.452,0.016
8.453,0.016
8.454,0.009
8.455,0.009
8.456,0.009
8.457,0.009
8.458,0.007
8.459,0.006
8.460,0.003
8.461,0.000
8.462,-0.004
8.463,-0.006
8.464,-0.005
8.465,-0.006
8.466,-0.006
8.467,-0.003
8.468,0.003
8.469,0.003
8.470,-0.001
8.471,0.000
8.472,-0.003
8.473,-0.006
8.474,-0.004
8.475,-0.009
8.476,-0.006
8.477,-0.009
8.478,-0.008
8.479,-0.009
8.480,-0.009
8.481,-0.009
8.482,-0.009
8.483,-0.009
8.484,-0.011
8.485,-0.009
8.486,-0.008
8.487,-0.009
8.488,-0.011
8.489,-0.009
8.490,-0.008
8.491,-0.009
8.492,-0.011
8.493,-0.012
8.494,-0.012
8.495,-0.009
8.496,-0.008
8.497,-0.009
8.498,-0.012
8.499,-0.012
8.500,-0.011
8.501,-0.012
8.502,-0.012
8.503,-0.012
8.504,-0.009
8.505,-0.003
8.506,-0.006
8.507,-0.006
8.508,-0.007
8.509,-0.009
8.510,-0.009
8.511,-0.009
8.512,-0.005
8.513,0.000
8.514,-0.003
8.515,-0.003
8.516,0.000
8.517,-0.003
8.518,-0.003
8.519,-0.003
8.520,-0.003
8.521,-0.006
8.522,-0.005
8.523,0.000
8.524,0.000
8.525,0.000
8.526,0.000
8.527,0.000
8.528,-0.003
8.529,-0.003
8.530,0.000
8.531,0.000
8.532,0.004
8.533,0.003
8.534,0.002
8.535,0.003
8.536,0.003
8.537,0.003
8.538,0.007
8.539,0.012
8.540,0.011
8.541,0.009
8.542,0.011
8.543,0.009
8.544,0.009
8.545,0.009
8.546,0.009
8.547,0.009
8.548,0.008
8.549,0.009
8.550,0.011
8.551,0.016
8.552,0.016
8.553,0.012
8.554,0.016
8.555,0.016
8.556,0.016
8.557,0.019
8.558,0.020
8.559,0.025
8.560,0.025
8.561,0.025
8.562,0.025
8.563,0.025
8.564,0.025
8.565,0.025
8.566,0.025
8.567,0.025
8.568,0.025
8.569,0.025
8.570,0.029
8.571,0.031
8.572,0.030
8.573,0.031
8.574,0.034
8.575,0.031
8.576,0.033
8.577,0.038
8.578,0.039
8.579,0.041
8.580,0.041
8.581,0.041
8.582,0.042
8.583,0.041
8.584,0.042
8.585,0.041
8.586,0.041
8.587,0.041
8.588,0.041
8.589,0.041
8.590,0.041
8.591,0.041
8.592,0.041
8.593,0.041
8.594,0.044
8.595,0.047
8.596,0.047
8.597,0.047
8.598,0.047
8.599,0.047
8.600,0.049
8.601,0.047
8.602,0.051
8.603,0.053
8.604,0.058
8.605,0.063
8.606,0.063
8.607,0.063
8.608,0.063
8.609,0.063
8.610,0.064
8.611,0.063
8.612,0.061
8.613,0.059
8.614,0.066
8.615,0.069
8.616,0.069
8.617,0.069
8.618,0.071
8.619,0.069
8.620,0.075
8.621,0.078
8.622,0.078
8.623,0.078
8.624,0.078
8.625,0.078
8.626,0.079
8.627,0.084
8.628,0.081
8.629,0.084
8.630,0.081
8.631,0.078
8.632,0.078
8.633,0.078
8.634,0.082
8.635,0.084
8.636,0.087
8.637,0.091
8.638,0.097
8.639,0.097
8.640,0.099
8.641,0.100
8.642,0.103
8.643,0.103
8.644,0.103
8.645,0.103
8.646,0.109
8.647,0.113
8.648,0.114
8.649,0.116
8.650,0.116
8.651,0.116
8.652,0.114
8.653,0.116
8.654,0.114
8.655,0.119
8.656,0.119
8.657,0.119
8.658,0.123
8.659,0.125
8.660,0.124
8.661,0.125
8.662,0.126
8.663,0.131
8.664,0.131
8.665,0.134
8.666,0.134
8.667,0.134
8.668,0.136
8.669,0.141
8.670,0.142
8.671,0.144
8.672,0.144
8.673,0.144
8.674,0.150
8.675,0.150
8.676,0.150
8.677,0.156
8.678,0.156
8.679,0.156
8.680,0.161
8.681,0.162
8.682,0.162
8.683,0.162
8.684,0.167
8.685,0.172
8.686,0.178
8.687,0.181
8.688,0.178
8.689,0.178
8.690,0.177
8.691,0.178
8.692,0.179
8.693,0.184
8.694,0.192
8.695,0.191
8.696,0.193
8.697,0.194
8.698,0.194
8.699,0.194
8.700,0.194
8.701,0.194
8.702,0.196
8.703,0.194
8.704,0.195
8.705,0.197
8.706,0.201
8.707,0.206
8.708,0.203
8.709,0.200
8.710,0.200
8.711,0.200
8.712,0.197
8.713,0.194
8.714,0.189
8.715,0.184
8.716,0.181
8.717,0.178
8.718,0.179
8.719,0.181
8.720,0.175
8.721,0.169
8.722,0.167
8.723,0.162
8.724,0.158
8.725,0.150
8.726,0.147
8.727,0.141
8.728,0.138
8.729,0.134
8.730,0.127
8.731,0.122
8.732,0.117
8.733,0.109
8.734,0.108
8.735,0.106
8.736,0.100
8.737,0.097
8.738,0.089
8.739,0.084
8.740,0.075
8.741,0.075
8.742,0.072
8.743,0.072
8.744,0.070
8.745,0.069
8.746,0.066
8.747,0.063
8.748,0.055
8.749,0.047
8.750,0.039
8.751,0.038
8.752,0.033
8.753,0.031
8.754,0.027
8.755,0.022
8.756,0.018
8.757,0.012
8.758,0.011
8.759,0.009
8.760,0.009
8.761,0.006
8.762,0.003
8.763,0.000
8.764,-0.003
8.765,-0.006
8.766,-0.005
8.767,-0.003
8.768,-0.005
8.769,-0.003
8.770,-0.007
8.771,-0.012
8.772,-0.019
8.773,-0.019
8.774,-0.020
8.775,-0.025
8.776,-0.028
8.777,-0.025
8.778,-0.024
8.779,-0.025
8.780,-0.029
8.781,-0.031
8.782,-0.031
8.783,-0.034
8.784,-0.034
8.785,-0.034
8.786,-0.034
8.787,-0.034
8.788,-0.034
8.789,-0.034
8.790,-0.038
8.791,-0.038
8.792,-0.036
8.793,-0.034
8.794,-0.038
8.795,-0.038
8.796,-0.034
8.797,-0.038
8.798,-0.039
8.799,-0.041
8.800,-0.041
8.801,-0.041
8.802,-0.038
8.803,-0.041
8.804,-0.038
8.805,-0.038
8.806,-0.038
8.807,-0.038
8.808,-0.039
8.809,-0.038
8.810,-0.039
8.811,-0.038
8.812,-0.036
8.813,-0.038
8.814,-0.034
8.815,-0.034
8.816,-0.034
8.817,-0.034
8.818,-0.034
8.819,-0.034
8.820,-0.034
8.821,-0.034
8.822,-0.034
8.823,-0.034
8.824,-0.033
8.825,-0.034
8.826,-0.033
8.827,-0.031
8.828,-0.031
8.829,-0.031
8.830,-0.033
8.831,-0.034
8.832,-0.030
8.833,-0.028
8.834,-0.031
8.835,-0.028
8.836,-0.031
8.837,-0.031
8.838,-0.025
8.839,-0.028
8.840,-0.028
8.841,-0.028
8.842,-0.028
8.843,-0.028
8.844,-0.029
8.845,-0.031
8.846,-0.029
8.847,-0.031
8.848,-0.028
8.849,-0.028
8.850,-0.028
8.851,-0.025
8.852,-0.024
8.853,-0.022
8.854,-0.020
8.855,-0.022
8.856,-0.022
8.857,-0.022
8.858,-0.022
8.859,-0.022
8.860,-0.016
8.861,-0.012
8.862,-0.012
8.863,-0.012
8.864,-0.012
8.865,-0.012
8.866,-0.014
8.867,-0.016
8.868,-0.017
8.869,-0.019
8.870,-0.019
8.871,-0.022
8.872,-0.017
8.873,-0.016
8.874,-0.014
8.875,-0.016
8.876,-0.017
8.877,-0.019
8.878,-0.019
8.879,-0.022
8.880,-0.017
8.881,-0.016
8.882,-0.016
8.883,-0.012
8.884,-0.014
8.885,-0.009
8.886,-0.014
8.887,-0.016
8.888,-0.011
8.889,-0.012
8.890,-0.011
8.891,-0.009
8.892,-0.011
8.893,-0.012
8.894,-0.011
8.895,-0.009
8.896,-0.014
8.897,-0.012
8.898,-0.014
8.899,-0.016
8.900,-0.016
8.901,-0.016
8.902,-0.014
8.903,-0.016
8.904,-0.016
8.905,-0.012
8.906,-0.012
8.907,-0.012
8.908,-0.009
8.909,-0.012
8.910,-0.012
8.911,-0.012
8.912,-0.016
8.913,-0.016
8.914,-0.014
8.915,-0.016
8.916,-0.014
8.917,-0.016
8.918,-0.017
8.919,-0.019
8.920,-0.012
8.921,-0.016
8.922,-0.017
8.923,-0.016
8.924,-0.016
8.925,-0.016
8.926,-0.016
8.927,-0.016
8.928,-0.016
8.929,-0.012
8.930,-0.016
8.931,-0.016
8.932,-0.016
8.933,-0.016
8.934,-0.016
8.935,-0.019
8.936,-0.019
8.937,-0.019
8.938,-0.017
8.939,-0.019
8.940,-0.022
8.941,-0.028
8.942,-0.028
8.943,-0.031
8.944,-0.030
8.945,-0.031
8.946,-0.028
8.947,-0.031
8.948,-0.027
8.949,-0.028
8.950,-0.031
8.951,-0.028
8.952,-0.028
8.953,-0.031
8.954,-0.033
8.955,-0.034
8.956,-0.030
8.957,-0.031
8.958,-0.031
8.959,-0.034
8.960,-0.034
8.961,-0.034
8.962,-0.034
8.963,-0.034
8.964,-0.041
8.965,-0.044
8.966,-0.044
8.967,-0.044
8.968,-0.041
8.969,-0.038
8.970,-0.039
8.971,-0.041
8.972,-0.045
8.973,-0.047
8.974,-0.047
8.975,-0.047
8.976,-0.044
8.977,-0.047
8.978,-0.046
8.979,-0.044
8.980,-0.041
8.981,-0.047
8.982,-0.051
8.983,-0.050
8.984,-0.051
8.985,-0.053
8.986,-0.052
8.987,-0.050
8.988,-0.052
8.989,-0.047
8.990,-0.047
8.991,-0.047
8.992,-0.049
8.993,-0.047
8.994,-0.051
8.995,-0.053
8.996,-0.047
8.997,-0.050
8.998,-0.050
8.999,-0.053
9.000,-0.057
9.001,-0.056
9.002,-0.057
9.003,-0.059
9.004,-0.056
9.005,-0.056
9.006,-0.056
9.007,-0.053
9.008,-0.053
9.009,-0.053
9.010,-0.052
9.011,-0.050
9.012,-0.052
9.013,-0.050
9.014,-0.050
9.015,-0.050
9.016,-0.049
9.017,-0.047
9.018,-0.047
9.019,-0.047
9.020,-0.050
9.021,-0.053
9.022,-0.055
9.023,-0.053
9.024,-0.053
9.025,-0.056
9.026,-0.056
9.027,-0.056
9.028,-0.053
9.029,-0.056
9.030,-0.056
9.031,-0.056
9.032,-0.053
9.033,-0.050
9.034,-0.051
9.035,-0.053
9.036,-0.052
9.037,-0.053
9.038,-0.053
9.039,-0.053
9.040,-0.054
9.041,-0.056
9.042,-0.055
9.043,-0.050
9.044,-0.050
9.045,-0.047
9.046,-0.050
9.047,-0.050
9.048,-0.053
9.049,-0.053
9.050,-0.056
9.051,-0.056
9.052,-0.056
9.053,-0.056
9.054,-0.054
9.055,-0.059
9.056,-0.056
9.057,-0.056
9.058,-0.055
9.059,-0.056
9.060,-0.056
9.061,-0.059
9.062,-0.056
9.063,-0.056
9.064,-0.056
9.065,-0.056
9.066,-0.055
9.067,-0.053
9.068,-0.057
9.069,-0.059
9.070,-0.061
9.071,-0.062
9.072,-0.059
9.073,-0.056
9.074,-0.057
9.075,-0.056
9.076,-0.058
9.077,-0.056
9.078,-0.056
9.079,-0.056
9.080,-0.057
9.081,-0.059
9.082,-0.059
9.083,-0.056
9.084,-0.058
9.085,-0.056
9.086,-0.057
9.087,-0.059
9.088,-0.061
9.089,-0.062
9.090,-0.061
9.091,-0.059
9.092,-0.055
9.093,-0.056
9.094,-0.056
9.095,-0.056
9.096,-0.056
9.097,-0.056
9.098,-0.059
9.099,-0.062
9.100,-0.062
9.101,-0.062
9.102,-0.062
9.103,-0.059
9.104,-0.056
9.105,-0.056
9.106,-0.061
9.107,-0.062
9.108,-0.061
9.109,-0.059
9.110,-0.061
9.111,-0.059
9.112,-0.057
9.113,-0.056
9.114,-0.056
9.115,-0.056
9.116,-0.053
9.117,-0.053
9.118,-0.056
9.119,-0.056
9.120,-0.054
9.121,-0.056
9.122,-0.054
9.123,-0.056
9.124,-0.059
9.125,-0.062
9.126,-0.062
9.127,-0.062
9.128,-0.062
9.129,-0.062
9.130,-0.064
9.131,-0.066
9.132,-0.069
9.133,-0.069
9.134,-0.069
9.135,-0.069
9.136,-0.066
9.137,-0.062
9.138,-0.061
9.139,-0.059
9.140,-0.064
9.141,-0.066
9.142,-0.066
9.143,-0.069
9.144,-0.067
9.145,-0.069
9.146,-0.059
9.147,-0.053
9.148,-0.056
9.149,-0.059
9.150,-0.062
9.151,-0.062
9.152,-0.061
9.153,-0.059
9.154,-0.061
9.155,-0.059
9.156,-0.062
9.157,-0.062
9.158,-0.062
9.159,-0.066
9.160,-0.069
9.161,-0.069
9.162,-0.067
9.163,-0.069
9.164,-0.069
9.165,-0.072
9.166,-0.069
9.167,-0.069
9.168,-0.069
9.169,-0.072
9.170,-0.070
9.171,-0.072
9.172,-0.071
9.173,-0.069
9.174,-0.072
9.175,-0.069
9.176,-0.064
9.177,-0.062
9.178,-0.067
9.179,-0.066
9.180,-0.064
9.181,-0.066
9.182,-0.066
9.183,-0.066
9.184,-0.066
9.185,-0.066
9.186,-0.067
9.187,-0.069
9.188,-0.070
9.189,-0.072
9.190,-0.072
9.191,-0.072
9.192,-0.069
9.193,-0.066
9.194,-0.067
9.195,-0.069
9.196,-0.073
9.197,-0.072
9.198,-0.069
9.199,-0.072
9.200,-0.071
9.201,-0.072
9.202,-0.069
9.203,-0.062
9.204,-0.064
9.205,-0.066
9.206,-0.069
9.207,-0.075
9.208,-0.073
9.209,-0.075
9.210,-0.074
9.211,-0.072
9.212,-0.069
9.213,-0.066
9.214,-0.066
9.215,-0.066
9.216,-0.069
9.217,-0.072
9.218,-0.075
9.219,-0.078
9.220,-0.077
9.221,-0.075
9.222,-0.075
9.223,-0.075
9.224,-0.072
9.225,-0.072
9.226,-0.073
9.227,-0.075
9.228,-0.074
9.229,-0.072
9.230,-0.071
9.231,-0.066
9.232,-0.067
9.233,-0.066
9.234,-0.069
9.235,-0.072
9.236,-0.072
9.237,-0.075
9.238,-0.075
9.239,-0.075
9.240,-0.075
9.241,-0.075
9.242,-0.075
9.243,-0.075
9.244,-0.072
9.245,-0.072
9.246,-0.072
9.247,-0.072
9.248,-0.072
9.249,-0.072
9.250,-0.072
9.251,-0.072
9.252,-0.072
9.253,-0.072
9.254,-0.072
9.255,-0.072
9.256,-0.075
9.257,-0.075
9.258,-0.075
9.259,-0.075
9.260,-0.074
9.261,-0.072
9.262,-0.075
9.263,-0.078
9.264,-0.078
9.265,-0.075
9.266,-0.074
9.267,-0.075
9.268,-0.081
9.269,-0.081
9.270,-0.081
9.271,-0.081
9.272,-0.079
9.273,-0.081
9.274,-0.081
9.275,-0.084
9.276,-0.082
9.277,-0.087
9.278,-0.084
9.279,-0.084
9.280,-0.083
9.281,-0.081
9.282,-0.080
9.283,-0.078
9.284,-0.077
9.285,-0.078
9.286,-0.078
9.287,-0.078
9.288,-0.081
9.289,-0.081
9.290,-0.080
9.291,-0.078
9.292,-0.081
9.293,-0.081
9.294,-0.082
9.295,-0.084
9.296,-0.084
9.297,-0.084
9.298,-0.084
9.299,-0.084
9.300,-0.084
9.301,-0.084
9.302,-0.087
9.303,-0.087
9.304,-0.084
9.305,-0.084
9.306,-0.084
9.307,-0.084
9.308,-0.084
9.309,-0.081
9.310,-0.078
9.311,-0.078
9.312,-0.078
9.313,-0.081
9.314,-0.083
9.315,-0.078
9.316,-0.074
9.317,-0.072
9.318,-0.076
9.319,-0.078
9.320,-0.078
9.321,-0.078
9.322,-0.077
9.323,-0.075
9.324,-0.075
9.325,-0.081
9.326,-0.077
9.327,-0.078
9.328,-0.078
9.329,-0.078
9.330,-0.078
9.331,-0.078
9.332,-0.076
9.333,-0.075
9.334,-0.072
9.335,-0.069
9.336,-0.062
9.337,-0.059
9.338,-0.056
9.339,-0.056
9.340,-0.052
9.341,-0.044
9.342,-0.009
9.343,-0.003
9.344,-0.001
9.345,-0.003
9.346,-0.003
9.347,-0.003
9.348,-0.003
9.349,-0.003
9.350,-0.011
9.351,-0.012
9.352,-0.012
9.353,-0.019
9.354,-0.026
9.355,-0.034
9.356,-0.033
9.357,-0.034
9.358,-0.030
9.359,-0.025
9.360,-0.025
9.361,-0.022
9.362,-0.024
9.363,-0.022
9.364,-0.022
9.365,-0.022
9.366,-0.022
9.367,-0.022
9.368,-0.020
9.369,-0.022
9.370,-0.019
9.371,-0.016
9.372,-0.012
9.373,-0.012
9.374,-0.012
9.375,-0.006
9.376,0.000
9.377,0.000
9.378,-0.002
9.379,-0.006
9.380,-0.016
9.381,-0.016
9.382,-0.014
9.383,-0.016
9.384,-0.019
9.385,-0.022
9.386,-0.023
9.387,-0.028
9.388,-0.031
9.389,-0.031
9.390,-0.025
9.391,-0.031
9.392,-0.041
9.393,-0.044
9.394,-0.046
9.395,-0.044
9.396,-0.046
9.397,-0.047
9.398,-0.047
9.399,-0.047
9.400,-0.050
9.401,-0.050
9.402,-0.050
9.403,-0.050
9.404,-0.052
9.405,-0.050
9.406,-0.051
