'Elapsed time','II'
'seconds','mV'
0.000,-0.151
0.001,-0.131
0.002,-0.134
0.003,-0.134
0.004,-0.131
0.005,-0.131
0.006,-0.128
0.007,-0.125
0.008,-0.124
0.009,-0.122
0.010,-0.122
0.011,-0.122
0.012,-0.123
0.013,-0.125
0.014,-0.125
0.015,-0.119
0.016,-0.120
0.017,-0.122
0.018,-0.126
0.019,-0.128
0.020,-0.134
0.021,-0.141
0.022,-0.143
0.023,-0.141
0.024,-0.139
0.025,-0.134
0.026,-0.131
0.027,-0.128
0.028,-0.131
0.029,-0.134
0.030,-0.134
0.031,-0.134
0.032,-0.138
0.033,-0.134
0.034,-0.127
0.035,-0.116
0.036,-0.105
0.037,-0.094
0.038,-0.086
0.039,-0.078
0.040,-0.075
0.041,-0.069
0.042,-0.067
0.043,-0.066
0.044,-0.064
0.045,-0.063
0.046,-0.061
0.047,-0.056
0.048,-0.056
0.049,-0.056
0.050,-0.052
0.051,-0.053
0.052,-0.059
0.053,-0.066
0.054,-0.066
0.055,-0.066
0.056,-0.061
0.057,-0.053
0.058,-0.047
0.059,-0.038
0.060,-0.031
0.061,-0.028
0.062,-0.026
0.063,-0.025
0.064,-0.029
0.065,-0.031
0.066,-0.033
0.067,-0.031
0.068,-0.029
0.069,-0.025
0.070,-0.022
0.071,-0.019
0.072,-0.021
0.073,-0.019
0.074,-0.018
0.075,-0.019
0.076,-0.016
0.077,-0.009
0.078,-0.014
0.079,-0.019
0.080,-0.029
0.081,-0.038
0.082,-0.045
0.083,-0.053
0.084,-0.053
0.085,-0.053
0.086,-0.052
0.087,-0.050
0.088,-0.052
0.089,-0.053
0.090,-0.053
0.091,-0.056
0.092,-0.058
0.093,-0.056
0.094,-0.055
0.095,-0.056
0.096,-0.061
0.097,-0.063
0.098,-0.059
0.099,-0.059
0.100,-0.064
0.101,-0.075
0.102,-0.089
0.103,-0.100
0.104,-0.103
0.105,-0.106
0.106,-0.117
0.107,-0.125
0.108,-0.127
0.109,-0.128
0.110,-0.134
0.111,-0.138
0.112,-0.139
0.113,-0.138
0.114,-0.139
0.115,-0.141
0.116,-0.141
0.117,-0.141
0.118,-0.142
0.119,-0.144
0.120,-0.144
0.121,-0.147
0.122,-0.150
0.123,-0.156
0.124,-0.156
0.125,-0.156
0.126,-0.152
0.127,-0.150
0.128,-0.150
0.129,-0.147
0.130,-0.147
0.131,-0.147
0.132,-0.146
0.133,-0.147
0.134,-0.148
0.135,-0.150
0.136,-0.147
0.137,-0.147
0.138,-0.144
0.139,-0.138
0.140,-0.141
0.141,-0.144
0.142,-0.147
0.143,-0.150
0.144,-0.159
0.145,-0.172
0.146,-0.170
0.147,-0.175
0.148,-0.175
0.149,-0.178
0.150,-0.172
0.151,-0.166
0.152,-0.161
0.153,-0.159
0.154,-0.161
0.155,-0.162
0.156,-0.164
0.157,-0.172
0.158,-0.169
0.159,-0.169
0.160,-0.169
0.161,-0.169
0.162,-0.167
0.163,-0.166
0.164,-0.170
0.165,-0.172
0.166,-0.169
0.167,-0.166
0.168,-0.166
0.169,-0.166
0.170,-0.167
0.171,-0.175
0.172,-0.174
0.173,-0.181
0.174,-0.197
0.175,-0.213
0.176,-0.234
0.177,-0.259
0.178,-0.291
0.179,-0.322
0.180,-0.341
0.181,-0.353
0.182,-0.353
0.183,-0.347
0.184,-0.330
0.185,-0.313
0.186,-0.289
0.187,-0.259
0.188,-0.222
0.189,-0.184
0.190,-0.156
0.191,-0.125
0.192,-0.084
0.193,-0.038
0.194,0.025
0.195,0.091
0.196,0.150
0.197,0.212
0.198,0.297
0.199,0.391
0.200,0.503
0.201,0.612
0.202,0.728
0.203,0.841
0.204,0.945
0.205,1.053
0.206,1.151
0.207,1.259
0.208,1.369
0.209,1.478
0.210,1.566
0.211,1.619
0.212,1.593
0.213,1.531
0.214,1.426
0.215,1.328
0.216,1.229
0.217,1.128
0.218,1.000
0.219,0.869
0.220,0.750
0.221,0.631
0.222,0.517
0.223,0.409
0.224,0.306
0.225,0.206
0.226,0.125
0.227,0.050
0.228,-0.005
0.229,-0.059
0.230,-0.108
0.231,-0.150
0.232,-0.169
0.233,-0.178
0.234,-0.175
0.235,-0.166
0.236,-0.149
0.237,-0.125
0.238,-0.106
0.239,-0.087
0.240,-0.069
0.241,-0.050
0.242,-0.034
0.243,-0.019
0.244,-0.011
0.245,-0.006
0.246,-0.003
0.247,-0.003
0.248,-0.005
0.249,-0.006
0.250,-0.014
0.251,-0.019
0.252,-0.025
0.253,-0.034
0.254,-0.038
0.255,-0.041
0.256,-0.036
0.257,-0.034
0.258,-0.036
0.259,-0.038
0.260,-0.044
0.261,-0.050
0.262,-0.053
0.263,-0.059
0.264,-0.064
0.265,-0.072
0.266,-0.078
0.267,-0.084
0.268,-0.086
0.269,-0.084
0.270,-0.083
0.271,-0.084
0.272,-0.087
0.273,-0.087
0.274,-0.083
0.275,-0.084
0.276,-0.086
0.277,-0.087
0.278,-0.084
0.279,-0.081
0.280,-0.075
0.281,-0.069
0.282,-0.070
0.283,-0.072
0.284,-0.075
0.285,-0.078
0.286,-0.081
0.287,-0.084
0.288,-0.086
0.289,-0.084
0.290,-0.086
0.291,-0.084
0.292,-0.078
0.293,-0.078
0.294,-0.074
0.295,-0.072
0.296,-0.075
0.297,-0.072
0.298,-0.070
0.299,-0.072
0.300,-0.071
0.301,-0.072
0.302,-0.075
0.303,-0.075
0.304,-0.079
0.305,-0.078
0.306,-0.074
0.307,-0.072
0.308,-0.069
0.309,-0.066
0.310,-0.066
0.311,-0.059
0.312,-0.059
0.313,-0.056
0.314,-0.058
0.315,-0.056
0.316,-0.056
0.317,-0.056
0.318,-0.053
0.319,-0.053
0.320,-0.054
0.321,-0.056
0.322,-0.056
0.323,-0.056
0.324,-0.049
0.325,-0.041
0.326,-0.038
0.327,-0.034
0.328,-0.031
0.329,-0.028
0.330,-0.033
0.331,-0.034
0.332,-0.038
0.333,-0.044
0.334,-0.045
0.335,-0.044
0.336,-0.039
0.337,-0.034
0.338,-0.038
0.339,-0.041
0.340,-0.034
0.341,-0.034
0.342,-0.031
0.343,-0.031
0.344,-0.028
0.345,-0.022
0.346,-0.022
0.347,-0.022
0.348,-0.019
0.349,-0.016
0.350,-0.014
0.351,-0.012
0.352,-0.012
0.353,-0.012
0.354,-0.012
0.355,-0.012
0.356,-0.009
0.357,-0.006
0.358,-0.009
0.359,-0.009
0.360,-0.006
0.361,-0.006
0.362,-0.002
0.363,0.000
0.364,0.003
0.365,0.003
0.366,0.003
0.367,0.006
0.368,0.011
0.369,0.016
0.370,0.019
0.371,0.022
0.372,0.028
0.373,0.034
0.374,0.041
0.375,0.047
0.376,0.046
0.377,0.047
0.378,0.046
0.379,0.044
0.380,0.039
0.381,0.037
0.382,0.034
0.383,0.037
0.384,0.041
0.385,0.044
0.386,0.048
0.387,0.047
0.388,0.047
0.389,0.044
0.390,0.044
0.391,0.044
0.392,0.047
0.393,0.050
0.394,0.056
0.395,0.062
0.396,0.062
0.397,0.062
0.398,0.064
0.399,0.066
0.400,0.068
0.401,0.066
0.402,0.068
0.403,0.066
0.404,0.069
0.405,0.069
0.406,0.068
0.407,0.066
0.408,0.068
0.409,0.066
0.410,0.069
0.411,0.072
0.412,0.076
0.413,0.078
0.414,0.079
0.415,0.084
0.416,0.086
0.417,0.087
0.418,0.087
0.419,0.091
0.420,0.092
0.421,0.094
0.422,0.086
0.423,0.084
0.424,0.087
0.425,0.084
0.426,0.083
0.427,0.081
0.428,0.081
0.429,0.084
0.430,0.081
0.431,0.081
0.432,0.082
0.433,0.081
0.434,0.084
0.435,0.081
0.436,0.080
0.437,0.081
0.438,0.091
0.439,0.100
0.440,0.097
0.441,0.097
0.442,0.098
0.443,0.100
0.444,0.091
0.445,0.087
0.446,0.087
0.447,0.087
0.448,0.086
0.449,0.084
0.450,0.086
0.451,0.091
0.452,0.092
0.453,0.094
0.454,0.092
0.455,0.091
0.456,0.089
0.457,0.091
0.458,0.094
0.459,0.097
0.460,0.103
0.461,0.106
0.462,0.107
0.463,0.112
0.464,0.116
0.465,0.116
0.466,0.119
0.467,0.122
0.468,0.119
0.469,0.119
0.470,0.119
0.471,0.119
0.472,0.117
0.473,0.119
0.474,0.122
0.475,0.125
0.476,0.121
0.477,0.122
0.478,0.123
0.479,0.122
0.480,0.119
0.481,0.119
0.482,0.117
0.483,0.112
0.484,0.111
0.485,0.106
0.486,0.104
0.487,0.106
0.488,0.104
0.489,0.100
0.490,0.100
0.491,0.100
0.492,0.100
0.493,0.100
0.494,0.091
0.495,0.081
0.496,0.071
0.497,0.066
0.498,0.058
0.499,0.050
0.500,0.037
0.501,0.034
0.502,0.042
0.503,0.044
0.504,0.039
0.505,0.034
0.506,0.031
0.507,0.025
0.508,0.021
0.509,0.012
0.510,0.008
0.511,0.003
0.512,0.000
0.513,-0.006
0.514,-0.006
0.515,-0.009
0.516,-0.012
0.517,-0.022
0.518,-0.022
0.519,-0.025
0.520,-0.027
0.521,-0.028
0.522,-0.028
0.523,-0.034
0.524,-0.038
0.525,-0.044
0.526,-0.047
0.527,-0.050
0.528,-0.053
0.529,-0.053
0.530,-0.054
0.531,-0.056
0.532,-0.055
0.533,-0.059
0.534,-0.064
0.535,-0.066
0.536,-0.066
0.537,-0.069
0.538,-0.070
0.539,-0.072
0.540,-0.078
0.541,-0.081
0.542,-0.081
0.543,-0.084
0.544,-0.081
0.545,-0.078
0.546,-0.081
0.547,-0.081
0.548,-0.084
0.549,-0.087
0.550,-0.072
0.551,-0.059
0.552,-0.058
0.553,-0.056
0.554,-0.059
0.555,-0.069
0.556,-0.072
0.557,-0.078
0.558,-0.081
0.559,-0.084
0.560,-0.084
0.561,-0.087
0.562,-0.084
0.563,-0.087
0.564,-0.084
0.565,-0.084
0.566,-0.086
0.567,-0.087
0.568,-0.083
0.569,-0.084
0.570,-0.080
0.571,-0.078
0.572,-0.068
0.573,-0.066
0.574,-0.069
0.575,-0.069
0.576,-0.067
0.577,-0.072
0.578,-0.071
0.579,-0.069
0.580,-0.072
0.581,-0.072
0.582,-0.072
0.583,-0.069
0.584,-0.064
0.585,-0.063
0.586,-0.061
0.587,-0.059
0.588,-0.059
0.589,-0.059
0.590,-0.059
0.591,-0.059
0.592,-0.059
0.593,-0.063
0.594,-0.061
0.595,-0.063
0.596,-0.059
0.597,-0.059
0.598,-0.056
0.599,-0.059
0.600,-0.058
0.601,-0.059
0.602,-0.058
0.603,-0.059
0.604,-0.061
0.605,-0.063
0.606,-0.059
0.607,-0.056
0.608,-0.049
0.609,-0.044
0.610,-0.041
0.611,-0.038
0.612,-0.038
0.613,-0.034
0.614,-0.034
0.615,-0.034
0.616,-0.039
0.617,-0.041
0.618,-0.045
0.619,-0.050
0.620,-0.054
0.621,-0.066
0.622,-0.067
0.623,-0.066
0.624,-0.061
0.625,-0.053
0.626,-0.052
0.627,-0.053
0.628,-0.053
0.629,-0.056
0.630,-0.052
0.631,-0.050
0.632,-0.054
0.633,-0.053
0.634,-0.052
0.635,-0.053
0.636,-0.055
0.637,-0.053
0.638,-0.053
0.639,-0.053
0.640,-0.054
0.641,-0.056
0.642,-0.055
0.643,-0.053
0.644,-0.058
0.645,-0.056
0.646,-0.061
0.647,-0.059
0.648,-0.056
0.649,-0.056
0.650,-0.055
0.651,-0.059
0.652,-0.058
0.653,-0.059
0.654,-0.058
0.655,-0.063
0.656,-0.066
0.657,-0.066
0.658,-0.066
0.659,-0.066
0.660,-0.070
0.661,-0.072
0.662,-0.072
0.663,-0.072
0.664,-0.063
0.665,-0.050
0.666,-0.049
0.667,-0.050
0.668,-0.050
0.669,-0.056
0.670,-0.063
0.671,-0.063
0.672,-0.064
0.673,-0.069
0.674,-0.073
0.675,-0.078
0.676,-0.082
0.677,-0.084
0.678,-0.084
0.679,-0.087
0.680,-0.091
0.681,-0.087
0.682,-0.087
0.683,-0.091
0.684,-0.084
0.685,-0.081
0.686,-0.084
0.687,-0.081
0.688,-0.083
0.689,-0.084
0.690,-0.086
0.691,-0.087
0.692,-0.091
0.693,-0.094
0.694,-0.097
0.695,-0.097
0.696,-0.089
0.697,-0.087
0.698,-0.089
0.699,-0.087
0.700,-0.091
0.701,-0.091
0.702,-0.091
0.703,-0.091
0.704,-0.084
0.705,-0.081
0.706,-0.084
0.707,-0.084
0.708,-0.086
0.709,-0.091
0.710,-0.095
0.711,-0.097
0.712,-0.096
0.713,-0.094
0.714,-0.094
0.715,-0.094
0.716,-0.100
0.717,-0.103
0.718,-0.106
0.719,-0.106
0.720,-0.099
0.721,-0.087
0.722,-0.083
0.723,-0.078
0.724,-0.079
0.725,-0.087
0.726,-0.095
0.727,-0.106
0.728,-0.113
0.729,-0.122
0.730,-0.119
0.731,-0.122
0.732,-0.119
0.733,-0.116
0.734,-0.114
0.735,-0.109
0.736,-0.108
0.737,-0.106
0.738,-0.102
0.739,-0.103
0.740,-0.103
0.741,-0.103
0.742,-0.105
0.743,-0.106
0.744,-0.104
0.745,-0.106
0.746,-0.108
0.747,-0.106
0.748,-0.113
0.749,-0.116
0.750,-0.119
0.751,-0.119
0.752,-0.114
0.753,-0.116
0.754,-0.119
0.755,-0.119
0.756,-0.118
0.757,-0.119
0.758,-0.122
0.759,-0.119
0.760,-0.118
0.761,-0.119
0.762,-0.114
0.763,-0.109
0.764,-0.113
0.765,-0.113
0.766,-0.113
0.767,-0.113
0.768,-0.116
0.769,-0.119
0.770,-0.119
0.771,-0.119
0.772,-0.116
0.773,-0.116
0.774,-0.109
0.775,-0.106
0.776,-0.105
0.777,-0.106
0.778,-0.106
0.779,-0.106
0.780,-0.106
0.781,-0.109
0.782,-0.117
0.783,-0.125
0.784,-0.125
0.785,-0.128
0.786,-0.129
0.787,-0.131
0.788,-0.130
0.789,-0.125
0.790,-0.118
0.791,-0.113
0.792,-0.111
0.793,-0.113
0.794,-0.106
0.795,-0.100
0.796,-0.091
0.797,-0.081
0.798,-0.076
0.799,-0.075
0.800,-0.069
0.801,-0.066
0.802,-0.059
0.803,-0.053
0.804,-0.051
0.805,-0.050
0.806,-0.044
0.807,-0.044
0.808,-0.041
0.809,-0.038
0.810,-0.043
0.811,-0.044
0.812,-0.046
0.813,-0.044
0.814,-0.044
0.815,-0.041
0.816,-0.034
0.817,-0.031
0.818,-0.031
0.819,-0.028
0.820,-0.023
0.821,-0.019
0.822,-0.012
0.823,-0.016
0.824,-0.017
0.825,-0.019
0.826,-0.017
0.827,-0.016
0.828,-0.009
0.829,-0.006
0.830,-0.004
0.831,-0.009
0.832,-0.009
0.833,-0.012
0.834,-0.018
0.835,-0.019
0.836,-0.018
0.837,-0.019
0.838,-0.018
0.839,-0.016
0.840,-0.014
0.841,-0.016
0.842,-0.020
0.843,-0.022
0.844,-0.025
0.845,-0.028
0.846,-0.029
0.847,-0.034
0.848,-0.036
0.849,-0.034
0.850,-0.039
0.851,-0.044
0.852,-0.045
0.853,-0.047
0.854,-0.050
0.855,-0.053
0.856,-0.053
0.857,-0.053
0.858,-0.058
0.859,-0.066
0.860,-0.075
0.861,-0.084
0.862,-0.091
0.863,-0.094
0.864,-0.100
0.865,-0.106
0.866,-0.108
0.867,-0.109
0.868,-0.113
0.869,-0.116
0.870,-0.119
0.871,-0.125
0.872,-0.126
0.873,-0.131
0.874,-0.134
0.875,-0.134
0.876,-0.134
0.877,-0.134
0.878,-0.131
0.879,-0.128
0.880,-0.128
0.881,-0.125
0.882,-0.131
0.883,-0.134
0.884,-0.134
0.885,-0.134
0.886,-0.139
0.887,-0.144
0.888,-0.145
0.889,-0.147
0.890,-0.148
0.891,-0.150
0.892,-0.149
0.893,-0.144
0.894,-0.141
0.895,-0.134
0.896,-0.134
0.897,-0.138
0.898,-0.145
0.899,-0.153
0.900,-0.159
0.901,-0.166
0.902,-0.167
0.903,-0.169
0.904,-0.172
0.905,-0.169
0.906,-0.169
0.907,-0.166
0.908,-0.167
0.909,-0.166
0.910,-0.161
0.911,-0.156
0.912,-0.155
0.913,-0.150
0.914,-0.150
0.915,-0.147
0.916,-0.150
0.917,-0.147
0.918,-0.147
0.919,-0.147
0.920,-0.146
0.921,-0.144
0.922,-0.144
0.923,-0.147
0.924,-0.151
0.925,-0.156
0.926,-0.158
0.927,-0.159
0.928,-0.162
0.929,-0.166
0.930,-0.169
0.931,-0.169
0.932,-0.180
0.933,-0.194
0.934,-0.209
0.935,-0.231
0.936,-0.258
0.937,-0.288
0.938,-0.314
0.939,-0.331
0.940,-0.343
0.941,-0.338
0.942,-0.329
0.943,-0.316
0.944,-0.296
0.945,-0.266
0.946,-0.233
0.947,-0.197
0.948,-0.158
0.949,-0.125
0.950,-0.089
0.951,-0.044
0.952,0.007
0.953,0.072
0.954,0.133
0.955,0.200
0.956,0.272
0.957,0.362
0.958,0.462
0.959,0.575
0.960,0.692
0.961,0.809
0.962,0.911
0.963,1.009
0.964,1.114
0.965,1.206
0.966,1.314
0.967,1.428
0.968,1.525
0.969,1.587
0.970,1.603
0.971,1.553
0.972,1.491
0.973,1.381
0.974,1.289
0.975,1.197
0.976,1.089
0.977,0.969
0.978,0.846
0.979,0.725
0.980,0.609
0.981,0.500
0.982,0.396
0.983,0.297
0.984,0.204
0.985,0.122
0.986,0.048
0.987,-0.009
0.988,-0.068
0.989,-0.113
0.990,-0.149
0.991,-0.162
0.992,-0.174
0.993,-0.169
0.994,-0.158
0.995,-0.141
0.996,-0.120
0.997,-0.100
0.998,-0.081
0.999,-0.066
1.000,-0.044
1.001,-0.028
1.002,-0.011
1.003,0.003
1.004,0.008
1.005,0.009
1.006,0.009
1.007,0.006
1.008,0.002
1.009,-0.003
1.010,-0.004
1.011,-0.009
1.012,-0.017
1.013,-0.025
1.014,-0.027
1.015,-0.025
1.016,-0.027
1.017,-0.028
1.018,-0.034
1.019,-0.038
1.020,-0.048
1.021,-0.056
1.022,-0.064
1.023,-0.069
1.024,-0.072
1.025,-0.072
1.026,-0.071
1.027,-0.072
1.028,-0.071
1.029,-0.069
1.030,-0.072
1.031,-0.072
1.032,-0.070
1.033,-0.069
1.034,-0.068
1.035,-0.063
1.036,-0.061
1.037,-0.059
1.038,-0.063
1.039,-0.066
1.040,-0.063
1.041,-0.059
1.042,-0.061
1.043,-0.063
1.044,-0.063
1.045,-0.063
1.046,-0.059
1.047,-0.056
1.048,-0.053
1.049,-0.056
1.050,-0.063
1.051,-0.066
1.052,-0.070
1.053,-0.069
1.054,-0.072
1.055,-0.075
1.056,-0.070
1.057,-0.069
1.058,-0.066
1.059,-0.063
1.060,-0.059
1.061,-0.053
1.062,-0.049
1.063,-0.050
1.064,-0.048
1.065,-0.050
1.066,-0.053
1.067,-0.050
1.068,-0.044
1.069,-0.044
1.070,-0.041
1.071,-0.041
1.072,-0.039
1.073,-0.041
1.074,-0.041
1.075,-0.044
1.076,-0.047
1.077,-0.047
1.078,-0.048
1.079,-0.050
1.080,-0.049
1.081,-0.044
1.082,-0.039
1.083,-0.038
1.084,-0.036
1.085,-0.034
1.086,-0.034
1.087,-0.034
1.088,-0.036
1.089,-0.038
1.090,-0.031
1.091,-0.025
1.092,-0.024
1.093,-0.022
1.094,-0.020
1.095,-0.022
1.096,-0.025
1.097,-0.028
1.098,-0.031
1.099,-0.028
1.100,-0.025
1.101,-0.019
1.102,-0.014
1.103,-0.009
1.104,-0.006
1.105,-0.006
1.106,-0.007
1.107,-0.006
1.108,-0.002
1.109,0.003
1.110,0.006
1.111,0.006
1.112,0.007
1.113,0.009
1.114,0.008
1.115,0.009
1.116,0.011
1.117,0.009
1.118,0.009
1.119,0.009
1.120,0.008
1.121,0.009
1.122,0.014
1.123,0.022
1.124,0.023
1.125,0.025
1.126,0.027
1.127,0.028
1.128,0.031
1.129,0.031
1.130,0.032
1.131,0.037
1.132,0.045
1.133,0.053
1.134,0.055
1.135,0.053
1.136,0.053
1.137,0.050
1.138,0.044
1.139,0.037
1.140,0.039
1.141,0.034
1.142,0.041
1.143,0.044
1.144,0.045
1.145,0.050
1.146,0.048
1.147,0.053
1.148,0.056
1.149,0.062
1.150,0.066
1.151,0.066
1.152,0.067
1.153,0.072
1.154,0.074
1.155,0.072
1.156,0.071
1.157,0.069
1.158,0.066
1.159,0.066
1.160,0.067
1.161,0.072
1.162,0.072
1.163,0.075
1.164,0.076
1.165,0.078
1.166,0.077
1.167,0.078
1.168,0.078
1.169,0.078
1.170,0.081
1.171,0.087
1.172,0.087
1.173,0.087
1.174,0.087
1.175,0.084
1.176,0.084
1.177,0.081
1.178,0.080
1.179,0.081
1.180,0.086
1.181,0.081
1.182,0.078
1.183,0.078
1.184,0.076
1.185,0.078
1.186,0.077
1.187,0.075
1.188,0.077
1.189,0.072
1.190,0.075
1.191,0.078
1.192,0.081
1.193,0.091
1.194,0.091
1.195,0.094
1.196,0.091
1.197,0.084
1.198,0.077
1.199,0.066
1.200,0.061
1.201,0.056
1.202,0.057
1.203,0.056
1.204,0.066
1.205,0.072
1.206,0.073
1.207,0.075
1.208,0.075
1.209,0.075
1.210,0.079
1.211,0.081
1.212,0.080
1.213,0.078
1.214,0.082
1.215,0.087
1.216,0.092
1.217,0.097
1.218,0.097
1.219,0.097
1.220,0.097
1.221,0.097
1.222,0.100
1.223,0.103
1.224,0.104
1.225,0.106
1.226,0.106
1.227,0.106
1.228,0.106
1.229,0.106
1.230,0.108
1.231,0.103
1.232,0.107
1.233,0.112
1.234,0.116
1.235,0.116
1.236,0.117
1.237,0.116
1.238,0.111
1.239,0.106
1.240,0.105
1.241,0.103
1.242,0.100
1.243,0.100
1.244,0.092
1.245,0.084
1.246,0.083
1.247,0.078
1.248,0.075
1.249,0.078
1.250,0.081
1.251,0.081
1.252,0.077
1.253,0.072
1.254,0.072
1.255,0.069
1.256,0.064
1.257,0.056
1.258,0.057
1.259,0.053
1.260,0.052
1.261,0.050
1.262,0.045
1.263,0.041
1.264,0.031
1.265,0.025
1.266,0.014
1.267,0.006
1.268,0.003
1.269,0.003
1.270,0.000
1.271,-0.003
1.272,-0.011
1.273,-0.016
1.274,-0.025
1.275,-0.028
1.276,-0.033
1.277,-0.031
1.278,-0.033
1.279,-0.034
1.280,-0.038
1.281,-0.038
1.282,-0.041
1.283,-0.038
1.284,-0.041
1.285,-0.041
1.286,-0.041
1.287,-0.047
1.288,-0.056
1.289,-0.063
1.290,-0.066
1.291,-0.069
1.292,-0.075
1.293,-0.081
1.294,-0.081
1.295,-0.078
1.296,-0.077
1.297,-0.072
1.298,-0.071
1.299,-0.072
1.300,-0.076
1.301,-0.081
1.302,-0.084
1.303,-0.084
1.304,-0.083
1.305,-0.084
1.306,-0.084
1.307,-0.084
1.308,-0.087
1.309,-0.087
1.310,-0.089
1.311,-0.091
1.312,-0.091
1.313,-0.087
1.314,-0.092
1.315,-0.091
1.316,-0.087
1.317,-0.084
1.318,-0.084
1.319,-0.084
1.320,-0.087
1.321,-0.084
1.322,-0.089
1.323,-0.087
1.324,-0.087
1.325,-0.087
1.326,-0.083
1.327,-0.075
1.328,-0.077
1.329,-0.072
1.330,-0.068
1.331,-0.053
1.332,-0.050
1.333,-0.050
1.334,-0.054
1.335,-0.056
1.336,-0.063
1.337,-0.066
1.338,-0.069
1.339,-0.075
1.340,-0.074
1.341,-0.072
1.342,-0.070
1.343,-0.069
1.344,-0.069
1.345,-0.069
1.346,-0.070
1.347,-0.072
1.348,-0.073
1.349,-0.072
1.350,-0.069
1.351,-0.066
1.352,-0.064
1.353,-0.063
1.354,-0.064
1.355,-0.059
1.356,-0.059
1.357,-0.056
1.358,-0.058
1.359,-0.053
1.360,-0.056
1.361,-0.056
1.362,-0.056
1.363,-0.056
1.364,-0.056
1.365,-0.056
1.366,-0.058
1.367,-0.056
1.368,-0.056
1.369,-0.056
1.370,-0.055
1.371,-0.056
1.372,-0.055
1.373,-0.053
1.374,-0.054
1.375,-0.056
1.376,-0.054
1.377,-0.056
1.378,-0.056
1.379,-0.056
1.380,-0.063
1.381,-0.063
1.382,-0.058
1.383,-0.056
1.384,-0.056
1.385,-0.059
1.386,-0.061
1.387,-0.059
1.388,-0.059
1.389,-0.053
1.390,-0.050
1.391,-0.050
1.392,-0.048
1.393,-0.050
1.394,-0.058
1.395,-0.066
1.396,-0.066
1.397,-0.066
1.398,-0.067
1.399,-0.069
1.400,-0.069
1.401,-0.069
1.402,-0.069
1.403,-0.072
1.404,-0.070
1.405,-0.075
1.406,-0.072
1.407,-0.072
1.408,-0.072
1.409,-0.069
1.410,-0.075
1.411,-0.072
1.412,-0.073
1.413,-0.072
1.414,-0.072
1.415,-0.069
1.416,-0.066
1.417,-0.069
1.418,-0.072
1.419,-0.075
1.420,-0.075
1.421,-0.075
1.422,-0.078
1.423,-0.081
1.424,-0.081
1.425,-0.084
1.426,-0.087
1.427,-0.084
1.428,-0.086
1.429,-0.087
1.430,-0.083
1.431,-0.081
1.432,-0.084
1.433,-0.084
1.434,-0.084
1.435,-0.087
1.436,-0.087
1.437,-0.087
1.438,-0.089
1.439,-0.091
1.440,-0.087
1.441,-0.087
1.442,-0.091
1.443,-0.087
1.444,-0.083
1.445,-0.081
1.446,-0.079
1.447,-0.084
1.448,-0.087
1.449,-0.087
1.450,-0.084
1.451,-0.081
1.452,-0.080
1.453,-0.081
1.454,-0.087
1.455,-0.091
1.456,-0.095
1.457,-0.100
1.458,-0.103
1.459,-0.109
1.460,-0.109
1.461,-0.109
1.462,-0.108
1.463,-0.103
1.464,-0.102
1.465,-0.103
1.466,-0.106
1.467,-0.109
1.468,-0.113
1.469,-0.113
1.470,-0.108
1.471,-0.106
1.472,-0.105
1.473,-0.106
1.474,-0.108
1.475,-0.109
1.476,-0.108
1.477,-0.109
1.478,-0.109
1.479,-0.109
1.480,-0.107
1.481,-0.109
1.482,-0.103
1.483,-0.103
1.484,-0.102
1.485,-0.100
1.486,-0.103
1.487,-0.106
1.488,-0.103
1.489,-0.103
1.490,-0.104
1.491,-0.103
1.492,-0.108
1.493,-0.109
1.494,-0.113
1.495,-0.113
1.496,-0.113
1.497,-0.119
1.498,-0.120
1.499,-0.119
1.500,-0.116
1.501,-0.116
1.502,-0.120
1.503,-0.119
1.504,-0.114
1.505,-0.113
1.506,-0.105
1.507,-0.097
1.508,-0.100
1.509,-0.100
1.510,-0.103
1.511,-0.106
1.512,-0.114
1.513,-0.122
1.514,-0.125
1.515,-0.128
1.516,-0.127
1.517,-0.128
1.518,-0.126
1.519,-0.128
1.520,-0.127
1.521,-0.128
1.522,-0.127
1.523,-0.125
1.524,-0.124
1.525,-0.125
1.526,-0.126
1.527,-0.128
1.528,-0.122
1.529,-0.119
1.530,-0.118
1.531,-0.116
1.532,-0.117
1.533,-0.116
1.534,-0.117
1.535,-0.122
1.536,-0.119
1.537,-0.119
1.538,-0.116
1.539,-0.113
1.540,-0.103
1.541,-0.094
1.542,-0.083
1.543,-0.075
1.544,-0.070
1.545,-0.069
1.546,-0.061
1.547,-0.053
1.548,-0.054
1.549,-0.056
1.550,-0.050
1.551,-0.050
1.552,-0.049
1.553,-0.047
1.554,-0.052
1.555,-0.053
1.556,-0.056
1.557,-0.056
1.558,-0.059
1.559,-0.059
1.560,-0.054
1.561,-0.053
1.562,-0.046
1.563,-0.034
1.564,-0.028
1.565,-0.022
1.566,-0.014
1.567,-0.016
1.568,-0.016
1.569,-0.016
1.570,-0.014
1.571,-0.012
1.572,0.000
1.573,0.009
1.574,0.011
1.575,0.006
1.576,0.000
1.577,-0.009
1.578,-0.016
1.579,-0.019
1.580,-0.022
1.581,-0.028
1.582,-0.030
1.583,-0.031
1.584,-0.030
1.585,-0.031
1.586,-0.039
1.587,-0.044
1.588,-0.045
1.589,-0.047
1.590,-0.039
1.591,-0.034
1.592,-0.034
1.593,-0.031
1.594,-0.033
1.595,-0.034
1.596,-0.036
1.597,-0.038
1.598,-0.044
1.599,-0.050
1.600,-0.054
1.601,-0.059
1.602,-0.059
1.603,-0.063
1.604,-0.075
1.605,-0.087
1.606,-0.098
1.607,-0.106
1.608,-0.108
1.609,-0.109
1.610,-0.113
1.611,-0.116
1.612,-0.116
1.613,-0.116
1.614,-0.116
1.615,-0.119
1.616,-0.125
1.617,-0.134
1.618,-0.138
1.619,-0.138
1.620,-0.138
1.621,-0.138
1.622,-0.139
1.623,-0.141
1.624,-0.143
1.625,-0.141
1.626,-0.144
1.627,-0.144
1.628,-0.144
1.629,-0.144
1.630,-0.146
1.631,-0.147
1.632,-0.148
1.633,-0.150
1.634,-0.146
1.635,-0.141
1.636,-0.143
1.637,-0.141
1.638,-0.133
1.639,-0.122
1.640,-0.122
1.641,-0.125
1.642,-0.134
1.643,-0.144
1.644,-0.150
1.645,-0.156
1.646,-0.164
1.647,-0.172
1.648,-0.175
1.649,-0.172
1.650,-0.169
1.651,-0.162
1.652,-0.158
1.653,-0.150
1.654,-0.149
1.655,-0.147
1.656,-0.150
1.657,-0.150
1.658,-0.150
1.659,-0.147
1.660,-0.151
1.661,-0.150
1.662,-0.151
1.663,-0.153
1.664,-0.152
1.665,-0.150
1.666,-0.150
1.667,-0.153
1.668,-0.156
1.669,-0.159
1.670,-0.159
1.671,-0.159
1.672,-0.162
1.673,-0.166
1.674,-0.169
1.675,-0.169
1.676,-0.175
1.677,-0.184
1.678,-0.197
1.679,-0.216
1.680,-0.241
1.681,-0.269
1.682,-0.298
1.683,-0.319
1.684,-0.334
1.685,-0.334
1.686,-0.326
1.687,-0.313
1.688,-0.297
1.689,-0.272
1.690,-0.239
1.691,-0.203
1.692,-0.170
1.693,-0.144
1.694,-0.116
1.695,-0.078
1.696,-0.022
1.697,0.047
1.698,0.109
1.699,0.178
1.700,0.239
1.701,0.319
1.702,0.411
1.703,0.516
1.704,0.619
1.705,0.722
1.706,0.827
1.707,0.928
1.708,1.041
1.709,1.141
1.710,1.250
1.711,1.366
1.712,1.482
1.713,1.566
1.714,1.607
1.715,1.584
1.716,1.524
1.717,1.416
1.718,1.326
1.719,1.237
1.720,1.137
1.721,1.025
1.722,0.906
1.723,0.791
1.724,0.676
1.725,0.569
1.726,0.464
1.727,0.366
1.728,0.264
1.729,0.172
1.730,0.094
1.731,0.031
1.732,-0.034
1.733,-0.087
1.734,-0.134
1.735,-0.159
1.736,-0.172
1.737,-0.169
1.738,-0.159
1.739,-0.144
1.740,-0.122
1.741,-0.100
1.742,-0.078
1.743,-0.059
1.744,-0.042
1.745,-0.031
1.746,-0.011
1.747,0.006
1.748,0.017
1.749,0.025
1.750,0.026
1.751,0.025
1.752,0.019
1.753,0.012
1.754,0.002
1.755,-0.012
1.756,-0.022
1.757,-0.031
1.758,-0.034
1.759,-0.034
1.760,-0.038
1.761,-0.041
1.762,-0.046
1.763,-0.047
1.764,-0.049
1.765,-0.047
1.766,-0.050
1.767,-0.050
1.768,-0.056
1.769,-0.059
1.770,-0.058
1.771,-0.059
1.772,-0.061
1.773,-0.063
1.774,-0.067
1.775,-0.069
1.776,-0.064
1.777,-0.059
1.778,-0.064
1.779,-0.066
1.780,-0.066
1.781,-0.066
1.782,-0.066
1.783,-0.066
1.784,-0.061
1.785,-0.056
1.786,-0.055
1.787,-0.053
1.788,-0.053
1.789,-0.053
1.790,-0.056
1.791,-0.059
1.792,-0.059
1.793,-0.066
1.794,-0.066
1.795,-0.063
1.796,-0.064
1.797,-0.059
1.798,-0.059
1.799,-0.059
1.800,-0.053
1.801,-0.050
1.802,-0.046
1.803,-0.041
1.804,-0.043
1.805,-0.041
1.806,-0.038
1.807,-0.041
1.808,-0.041
1.809,-0.044
1.810,-0.047
1.811,-0.044
1.812,-0.039
1.813,-0.041
1.814,-0.039
1.815,-0.041
1.816,-0.039
1.817,-0.041
1.818,-0.041
1.819,-0.044
1.820,-0.043
1.821,-0.038
1.822,-0.034
1.823,-0.031
1.824,-0.030
1.825,-0.025
1.826,-0.018
1.827,-0.012
1.828,-0.011
1.829,-0.009
1.830,-0.009
1.831,-0.009
1.832,-0.014
1.833,-0.019
1.834,-0.022
1.835,-0.025
1.836,-0.025
1.837,-0.025
1.838,-0.021
1.839,-0.019
1.840,-0.020
1.841,-0.022
1.842,-0.023
1.843,-0.019
1.844,-0.018
1.845,-0.012
1.846,-0.009
1.847,-0.006
1.848,-0.002
1.849,0.000
1.850,-0.001
1.851,0.000
1.852,0.003
1.853,0.006
1.854,0.009
1.855,0.009
1.856,0.009
1.857,0.009
1.858,0.009
1.859,0.012
1.860,0.017
1.861,0.019
1.862,0.019
1.863,0.019
1.864,0.025
1.865,0.034
1.866,0.031
1.867,0.031
1.868,0.034
1.869,0.037
1.870,0.039
1.871,0.041
1.872,0.041
1.873,0.037
1.874,0.037
1.875,0.041
1.876,0.042
1.877,0.044
1.878,0.047
1.879,0.047
1.880,0.050
1.881,0.050
1.882,0.050
1.883,0.050
1.884,0.054
1.885,0.053
1.886,0.056
1.887,0.056
1.888,0.056
1.889,0.059
1.890,0.056
1.891,0.059
1.892,0.058
1.893,0.059
1.894,0.062
1.895,0.062
1.896,0.061
1.897,0.062
1.898,0.073
1.899,0.081
1.900,0.091
1.901,0.100
1.902,0.099
1.903,0.100
1.904,0.097
1.905,0.097
1.906,0.092
1.907,0.091
1.908,0.087
1.909,0.084
1.910,0.081
1.911,0.081
1.912,0.081
1.913,0.081
1.914,0.080
1.915,0.081
1.916,0.080
1.917,0.078
1.918,0.080
1.919,0.078
1.920,0.081
1.921,0.081
1.922,0.081
1.923,0.084
1.924,0.095
1.925,0.097
1.926,0.096
1.927,0.097
1.928,0.094
1.929,0.094
1.930,0.094
1.931,0.094
1.932,0.096
1.933,0.091
1.934,0.091
1.935,0.091
1.936,0.087
1.937,0.091
1.938,0.089
1.939,0.091
1.940,0.094
1.941,0.094
1.942,0.095
1.943,0.094
1.944,0.092
1.945,0.091
1.946,0.091
1.947,0.087
1.948,0.089
1.949,0.087
1.950,0.087
1.951,0.087
1.952,0.089
1.953,0.091
1.954,0.094
1.955,0.094
1.956,0.092
1.957,0.091
1.958,0.092
1.959,0.094
1.960,0.097
1.961,0.100
1.962,0.104
1.963,0.109
1.964,0.111
1.965,0.112
1.966,0.117
1.967,0.122
1.968,0.125
1.969,0.128
1.970,0.132
1.971,0.137
1.972,0.137
1.973,0.137
1.974,0.136
1.975,0.128
1.976,0.127
1.977,0.125
1.978,0.121
1.979,0.112
1.980,0.116
1.981,0.116
1.982,0.114
1.983,0.112
1.984,0.111
1.985,0.109
1.986,0.105
1.987,0.103
1.988,0.100
1.989,0.097
1.990,0.098
1.991,0.097
1.992,0.089
1.993,0.087
1.994,0.084
1.995,0.078
1.996,0.076
1.997,0.075
1.998,0.075
1.999,0.072
2.000,0.071
2.001,0.066
2.002,0.064
2.003,0.056
2.004,0.053
2.005,0.050
2.006,0.048
2.007,0.047
2.008,0.039
2.009,0.034
2.010,0.032
2.011,0.034
2.012,0.029
2.013,0.028
2.014,0.022
2.015,0.016
2.016,0.009
2.017,0.006
2.018,0.001
2.019,0.003
2.020,-0.004
2.021,-0.006
2.022,-0.006
2.023,-0.006
2.024,-0.012
2.025,-0.016
2.026,-0.022
2.027,-0.022
2.028,-0.026
2.029,-0.028
2.030,-0.027
2.031,-0.031
2.032,-0.038
2.033,-0.041
2.034,-0.041
2.035,-0.041
2.036,-0.044
2.037,-0.047
2.038,-0.051
2.039,-0.053
2.040,-0.055
2.041,-0.053
2.042,-0.053
2.043,-0.056
2.044,-0.055
2.045,-0.053
2.046,-0.058
2.047,-0.059
2.048,-0.058
2.049,-0.059
2.050,-0.059
2.051,-0.059
2.052,-0.058
2.053,-0.053
2.054,-0.053
2.055,-0.053
2.056,-0.054
2.057,-0.053
2.058,-0.050
2.059,-0.041
2.060,-0.034
2.061,-0.028
2.062,-0.033
2.063,-0.038
2.064,-0.047
2.065,-0.050
2.066,-0.054
2.067,-0.053
2.068,-0.053
2.069,-0.053
2.070,-0.053
2.071,-0.050
2.072,-0.054
2.073,-0.053
2.074,-0.054
2.075,-0.047
2.076,-0.046
2.077,-0.047
2.078,-0.046
2.079,-0.041
2.080,-0.043
2.081,-0.041
2.082,-0.039
2.083,-0.041
2.084,-0.041
2.085,-0.041
2.086,-0.042
2.087,-0.044
2.088,-0.041
2.089,-0.038
2.090,-0.039
2.091,-0.041
2.092,-0.045
2.093,-0.047
2.094,-0.043
2.095,-0.038
2.096,-0.038
2.097,-0.038
2.098,-0.041
2.099,-0.038
2.100,-0.036
2.101,-0.031
2.102,-0.036
2.103,-0.034
2.104,-0.034
2.105,-0.031
2.106,-0.031
2.107,-0.031
2.108,-0.031
2.109,-0.031
2.110,-0.033
2.111,-0.031
2.112,-0.030
2.113,-0.028
2.114,-0.027
2.115,-0.028
2.116,-0.029
2.117,-0.031
2.118,-0.031
2.119,-0.031
2.120,-0.029
2.121,-0.031
2.122,-0.030
2.123,-0.028
2.124,-0.034
2.125,-0.034
2.126,-0.038
2.127,-0.044
2.128,-0.038
2.129,-0.034
2.130,-0.033
2.131,-0.028
2.132,-0.031
2.133,-0.028
2.134,-0.027
2.135,-0.028
2.136,-0.026
2.137,-0.028
2.138,-0.030
2.139,-0.031
2.140,-0.031
2.141,-0.031
2.142,-0.031
2.143,-0.031
2.144,-0.027
2.145,-0.022
2.146,-0.019
2.147,-0.019
2.148,-0.022
2.149,-0.031
2.150,-0.033
2.151,-0.038
2.152,-0.041
2.153,-0.041
2.154,-0.048
2.155,-0.047
2.156,-0.048
2.157,-0.047
2.158,-0.050
2.159,-0.050
2.160,-0.046
2.161,-0.047
2.162,-0.050
2.163,-0.053
2.164,-0.053
2.165,-0.053
2.166,-0.050
2.167,-0.047
2.168,-0.045
2.169,-0.047
2.170,-0.053
2.171,-0.053
2.172,-0.055
2.173,-0.056
2.174,-0.053
2.175,-0.053
2.176,-0.056
2.177,-0.056
2.178,-0.050
2.179,-0.047
2.180,-0.047
2.181,-0.047
2.182,-0.050
2.183,-0.053
2.184,-0.053
2.185,-0.056
2.186,-0.063
2.187,-0.063
2.188,-0.063
2.189,-0.066
2.190,-0.063
2.191,-0.066
2.192,-0.069
2.193,-0.069
2.194,-0.070
2.195,-0.072
2.196,-0.071
2.197,-0.072
2.198,-0.072
2.199,-0.069
2.200,-0.071
2.201,-0.072
2.202,-0.071
2.203,-0.072
2.204,-0.073
2.205,-0.075
2.206,-0.076
2.207,-0.075
2.208,-0.074
2.209,-0.075
2.210,-0.075
2.211,-0.075
2.212,-0.078
2.213,-0.078
2.214,-0.074
2.215,-0.072
2.216,-0.073
2.217,-0.078
2.218,-0.077
2.219,-0.075
2.220,-0.077
2.221,-0.078
2.222,-0.081
2.223,-0.078
2.224,-0.084
2.225,-0.087
2.226,-0.086
2.227,-0.087
2.228,-0.091
2.229,-0.087
2.230,-0.089
2.231,-0.091
2.232,-0.086
2.233,-0.087
2.234,-0.086
2.235,-0.087
2.236,-0.081
2.237,-0.072
2.238,-0.079
2.239,-0.084
2.240,-0.087
2.241,-0.094
2.242,-0.098
2.243,-0.100
2.244,-0.094
2.245,-0.094
2.246,-0.092
2.247,-0.087
2.248,-0.086
2.249,-0.087
2.250,-0.083
2.251,-0.078
2.252,-0.078
2.253,-0.078
2.254,-0.081
2.255,-0.084
2.256,-0.089
2.257,-0.094
2.258,-0.100
2.259,-0.100
2.260,-0.100
2.261,-0.100
2.262,-0.103
2.263,-0.103
2.264,-0.099
2.265,-0.094
2.266,-0.097
2.267,-0.097
2.268,-0.100
2.269,-0.100
2.270,-0.100
2.271,-0.100
2.272,-0.097
2.273,-0.094
2.274,-0.087
2.275,-0.081
2.276,-0.081
2.277,-0.075
2.278,-0.071
2.279,-0.063
2.280,-0.059
2.281,-0.056
2.282,-0.053
2.283,-0.050
2.284,-0.048
2.285,-0.044
2.286,-0.041
2.287,-0.038
2.288,-0.038
2.289,-0.038
2.290,-0.034
2.291,-0.028
2.292,-0.028
2.293,-0.028
2.294,-0.027
2.295,-0.031
2.296,-0.033
2.297,-0.034
2.298,-0.034
2.299,-0.034
2.300,-0.031
2.301,-0.025
2.302,-0.021
2.303,-0.012
2.304,-0.004
2.305,0.000
2.306,0.005
2.307,0.009
2.308,0.006
2.309,0.006
2.310,0.006
2.311,0.009
2.312,0.014
2.313,0.022
2.314,0.025
2.315,0.028
2.316,0.021
2.317,0.016
2.318,0.016
2.319,0.012
2.320,0.011
2.321,0.012
2.322,0.009
2.323,0.006
2.324,0.002
2.325,0.000
2.326,-0.003
2.327,-0.006
2.328,-0.007
2.329,-0.009
2.330,-0.009
2.331,-0.009
2.332,-0.009
2.333,-0.009
2.334,-0.009
2.335,-0.012
2.336,-0.016
2.337,-0.016
2.338,-0.014
2.339,-0.016
2.340,-0.019
2.341,-0.019
2.342,-0.022
2.343,-0.028
2.344,-0.038
2.345,-0.053
2.346,-0.066
2.347,-0.075
2.348,-0.080
2.349,-0.084
2.350,-0.087
2.351,-0.087
2.352,-0.094
2.353,-0.100
2.354,-0.103
2.355,-0.103
2.356,-0.106
2.357,-0.106
2.358,-0.108
2.359,-0.109
2.360,-0.109
2.361,-0.109
2.362,-0.109
2.363,-0.109
2.364,-0.111
2.365,-0.116
2.366,-0.114
2.367,-0.116
2.368,-0.111
2.369,-0.106
2.370,-0.106
2.371,-0.109
2.372,-0.116
2.373,-0.119
2.374,-0.122
2.375,-0.125
2.376,-0.128
2.377,-0.134
2.378,-0.136
2.379,-0.138
2.380,-0.133
2.381,-0.131
2.382,-0.136
2.383,-0.138
2.384,-0.139
2.385,-0.141
2.386,-0.139
2.387,-0.138
2.388,-0.133
2.389,-0.131
2.390,-0.127
2.391,-0.128
2.392,-0.127
2.393,-0.128
2.394,-0.129
2.395,-0.131
2.396,-0.127
2.397,-0.125
2.398,-0.128
2.399,-0.131
2.400,-0.133
2.401,-0.141
2.402,-0.136
2.403,-0.134
2.404,-0.133
2.405,-0.131
2.406,-0.130
2.407,-0.128
2.408,-0.128
2.409,-0.125
2.410,-0.125
2.411,-0.125
2.412,-0.129
2.413,-0.134
2.414,-0.134
2.415,-0.141
2.416,-0.145
2.417,-0.159
2.418,-0.172
2.419,-0.184
2.420,-0.211
2.421,-0.241
2.422,-0.266
2.423,-0.291
2.424,-0.303
2.425,-0.309
2.426,-0.305
2.427,-0.294
2.428,-0.272
2.429,-0.250
2.430,-0.221
2.431,-0.184
2.432,-0.158
2.433,-0.131
2.434,-0.099
2.435,-0.063
2.436,-0.006
2.437,0.056
2.438,0.122
2.439,0.191
2.440,0.266
2.441,0.344
2.442,0.434
2.443,0.534
2.444,0.642
2.445,0.747
2.446,0.853
2.447,0.956
2.448,1.055
2.449,1.156
2.450,1.259
2.451,1.372
2.452,1.462
2.453,1.553
2.454,1.556
2.455,1.525
2.456,1.459
2.457,1.359
2.458,1.262
2.459,1.172
2.460,1.072
2.461,0.969
2.462,0.856
2.463,0.741
2.464,0.639
2.465,0.537
2.466,0.447
2.467,0.362
2.468,0.282
2.469,0.206
2.470,0.131
2.471,0.062
2.472,-0.004
2.473,-0.072
2.474,-0.122
2.475,-0.166
2.476,-0.188
2.477,-0.200
2.478,-0.197
2.479,-0.188
2.480,-0.167
2.481,-0.141
2.482,-0.114
2.483,-0.087
2.484,-0.068
2.485,-0.047
2.486,-0.034
2.487,-0.022
2.488,-0.009
2.489,0.000
2.490,0.002
2.491,0.000
2.492,0.000
2.493,0.000
2.494,-0.004
2.495,-0.006
2.496,-0.005
2.497,-0.006
2.498,-0.011
2.499,-0.016
2.500,-0.020
2.501,-0.028
2.502,-0.031
2.503,-0.034
2.504,-0.036
2.505,-0.038
2.506,-0.039
2.507,-0.044
2.508,-0.044
2.509,-0.047
2.510,-0.046
2.511,-0.044
2.512,-0.048
2.513,-0.050
2.514,-0.050
2.515,-0.053
2.516,-0.054
2.517,-0.053
2.518,-0.050
2.519,-0.053
2.520,-0.056
2.521,-0.059
2.522,-0.058
2.523,-0.056
2.524,-0.058
2.525,-0.059
2.526,-0.058
2.527,-0.056
2.528,-0.058
2.529,-0.059
2.530,-0.061
2.531,-0.063
2.532,-0.061
2.533,-0.056
2.534,-0.059
2.535,-0.059
2.536,-0.059
2.537,-0.066
2.538,-0.064
2.539,-0.066
2.540,-0.066
2.541,-0.059
2.542,-0.058
2.543,-0.059
2.544,-0.059
2.545,-0.063
2.546,-0.061
2.547,-0.056
2.548,-0.059
2.549,-0.056
2.550,-0.053
2.551,-0.053
2.552,-0.050
2.553,-0.047
2.554,-0.046
2.555,-0.038
2.556,-0.039
2.557,-0.038
2.558,-0.041
2.559,-0.041
2.560,-0.044
2.561,-0.047
2.562,-0.039
2.563,-0.034
2.564,-0.033
2.565,-0.031
2.566,-0.029
2.567,-0.028
2.568,-0.027
2.569,-0.025
2.570,-0.024
2.571,-0.022
2.572,-0.022
2.573,-0.022
2.574,-0.022
2.575,-0.019
2.576,-0.016
2.577,-0.016
2.578,-0.016
2.579,-0.012
2.580,-0.009
2.581,-0.006
2.582,-0.003
2.583,0.000
2.584,0.005
2.585,0.003
2.586,0.005
2.587,0.003
2.588,0.000
2.589,0.000
2.590,0.000
2.591,0.000
2.592,0.000
2.593,0.000
2.594,0.004
2.595,0.009
2.596,0.009
2.597,0.009
2.598,0.012
2.599,0.016
2.600,0.017
2.601,0.019
2.602,0.014
2.603,0.012
2.604,0.017
2.605,0.019
2.606,0.022
2.607,0.022
2.608,0.028
2.609,0.031
2.610,0.031
2.611,0.034
2.612,0.037
2.613,0.041
2.614,0.036
2.615,0.031
2.616,0.033
2.617,0.034
2.618,0.039
2.619,0.044
2.620,0.051
2.621,0.062
2.622,0.062
2.623,0.062
2.624,0.061
2.625,0.062
2.626,0.059
2.627,0.062
2.628,0.062
2.629,0.062
2.630,0.062
2.631,0.056
2.632,0.058
2.633,0.056
2.634,0.059
2.635,0.062
2.636,0.064
2.637,0.066
2.638,0.068
2.639,0.069
2.640,0.069
2.641,0.069
2.642,0.069
2.643,0.069
2.644,0.073
2.645,0.075
2.646,0.077
2.647,0.075
2.648,0.077
2.649,0.075
2.650,0.075
2.651,0.075
2.652,0.078
2.653,0.078
2.654,0.078
2.655,0.078
2.656,0.080
2.657,0.078
2.658,0.075
2.659,0.075
2.660,0.075
2.661,0.075
2.662,0.069
2.663,0.066
2.664,0.069
2.665,0.072
2.666,0.070
2.667,0.075
2.668,0.078
2.669,0.075
2.670,0.074
2.671,0.072
2.672,0.069
2.673,0.069
2.674,0.069
2.675,0.072
2.676,0.072
2.677,0.069
2.678,0.071
2.679,0.066
2.680,0.066
2.681,0.069
2.682,0.069
2.683,0.069
2.684,0.066
2.685,0.066
2.686,0.067
2.687,0.069
2.688,0.067
2.689,0.072
2.690,0.073
2.691,0.075
2.692,0.075
2.693,0.075
2.694,0.075
2.695,0.078
2.696,0.077
2.697,0.075
2.698,0.074
2.699,0.072
2.700,0.072
2.701,0.075
2.702,0.079
2.703,0.084
2.704,0.087
2.705,0.087
2.706,0.084
2.707,0.084
2.708,0.089
2.709,0.091
2.710,0.091
2.711,0.091
2.712,0.092
2.713,0.097
2.714,0.100
2.715,0.103
2.716,0.103
2.717,0.106
2.718,0.105
2.719,0.103
2.720,0.099
2.721,0.100
2.722,0.101
2.723,0.100
2.724,0.097
2.725,0.097
2.726,0.100
2.727,0.100
2.728,0.097
2.729,0.091
2.730,0.084
2.731,0.081
2.732,0.082
2.733,0.081
2.734,0.081
2.735,0.081
2.736,0.075
2.737,0.069
2.738,0.067
2.739,0.066
2.740,0.055
2.741,0.050
2.742,0.047
2.743,0.044
2.744,0.034
2.745,0.034
2.746,0.037
2.747,0.034
2.748,0.028
2.749,0.022
2.750,0.017
2.751,0.009
2.752,0.007
2.753,0.003
2.754,0.003
2.755,0.003
2.756,0.000
2.757,-0.006
2.758,-0.008
2.759,-0.012
2.760,-0.011
2.761,-0.016
2.762,-0.012
2.763,-0.012
2.764,-0.017
2.765,-0.022
2.766,-0.025
2.767,-0.034
2.768,-0.034
2.769,-0.038
2.770,-0.038
2.771,-0.038
2.772,-0.044
2.773,-0.047
2.774,-0.047
2.775,-0.047
2.776,-0.044
2.777,-0.047
2.778,-0.050
2.779,-0.050
2.780,-0.053
2.781,-0.059
2.782,-0.059
2.783,-0.059
2.784,-0.061
2.785,-0.059
2.786,-0.059
2.787,-0.063
2.788,-0.063
2.789,-0.063
2.790,-0.066
2.791,-0.066
2.792,-0.067
2.793,-0.069
2.794,-0.066
2.795,-0.066
2.796,-0.066
2.797,-0.066
2.798,-0.063
2.799,-0.066
2.800,-0.064
2.801,-0.066
2.802,-0.061
2.803,-0.056
2.804,-0.055
2.805,-0.056
2.806,-0.053
2.807,-0.056
2.808,-0.054
2.809,-0.056
2.810,-0.059
2.811,-0.063
2.812,-0.056
2.813,-0.056
2.814,-0.052
2.815,-0.050
2.816,-0.039
2.817,-0.038
2.818,-0.045
2.819,-0.050
2.820,-0.047
2.821,-0.050
2.822,-0.049
2.823,-0.047
2.824,-0.051
2.825,-0.053
2.826,-0.056
2.827,-0.056
2.828,-0.053
2.829,-0.053
2.830,-0.046
2.831,-0.038
2.832,-0.036
2.833,-0.034
2.834,-0.034
2.835,-0.034
2.836,-0.033
2.837,-0.034
2.838,-0.034
2.839,-0.038
2.840,-0.036
2.841,-0.038
2.842,-0.033
2.843,-0.034
2.844,-0.031
2.845,-0.031
2.846,-0.028
2.847,-0.028
2.848,-0.028
2.849,-0.028
2.850,-0.028
2.851,-0.028
2.852,-0.022
2.853,-0.019
2.854,-0.018
2.855,-0.016
2.856,-0.020
2.857,-0.022
2.858,-0.025
2.859,-0.028
2.860,-0.029
2.861,-0.028
2.862,-0.028
2.863,-0.028
2.864,-0.028
2.865,-0.034
2.866,-0.034
2.867,-0.031
2.868,-0.031
2.869,-0.028
2.870,-0.028
2.871,-0.031
2.872,-0.030
2.873,-0.031
2.874,-0.033
2.875,-0.038
2.876,-0.042
2.877,-0.041
2.878,-0.036
2.879,-0.034
2.880,-0.036
2.881,-0.034
2.882,-0.034
2.883,-0.034
2.884,-0.036
2.885,-0.038
2.886,-0.041
2.887,-0.044
2.888,-0.043
2.889,-0.034
2.890,-0.034
2.891,-0.028
2.892,-0.031
2.893,-0.038
2.894,-0.038
2.895,-0.044
2.896,-0.042
2.897,-0.044
2.898,-0.041
2.899,-0.044
2.900,-0.043
2.901,-0.038
2.902,-0.041
2.903,-0.044
2.904,-0.048
2.905,-0.050
2.906,-0.050
2.907,-0.050
2.908,-0.051
2.909,-0.050
2.910,-0.049
2.911,-0.050
2.912,-0.046
2.913,-0.047
2.914,-0.051
2.915,-0.050
2.916,-0.049
2.917,-0.050
2.918,-0.050
2.919,-0.050
2.920,-0.049
2.921,-0.044
2.922,-0.044
2.923,-0.047
2.924,-0.051
2.925,-0.050
2.926,-0.050
2.927,-0.053
2.928,-0.054
2.929,-0.059
2.930,-0.066
2.931,-0.066
2.932,-0.068
2.933,-0.069
2.934,-0.069
2.935,-0.069
2.936,-0.068
2.937,-0.066
2.938,-0.069
2.939,-0.069
2.940,-0.064
2.941,-0.066
2.942,-0.069
2.943,-0.069
2.944,-0.073
2.945,-0.075
2.946,-0.078
2.947,-0.081
2.948,-0.081
2.949,-0.084
2.950,-0.086
2.951,-0.084
2.952,-0.081
2.953,-0.081
2.954,-0.077
2.955,-0.069
2.956,-0.069
2.957,-0.069
2.958,-0.076
2.959,-0.078
2.960,-0.082
2.961,-0.081
2.962,-0.084
2.963,-0.084
2.964,-0.083
2.965,-0.084
2.966,-0.089
2.967,-0.087
2.968,-0.087
2.969,-0.087
2.970,-0.084
2.971,-0.087
2.972,-0.086
2.973,-0.087
2.974,-0.089
2.975,-0.087
2.976,-0.091
2.977,-0.091
2.978,-0.087
2.979,-0.087
2.980,-0.091
2.981,-0.091
2.982,-0.084
2.983,-0.084
2.984,-0.087
2.985,-0.087
2.986,-0.086
2.987,-0.087
2.988,-0.087
2.989,-0.087
2.990,-0.087
2.991,-0.087
2.992,-0.084
2.993,-0.081
2.994,-0.082
2.995,-0.084
2.996,-0.092
2.997,-0.094
2.998,-0.094
2.999,-0.094
3.000,-0.098
3.001,-0.100
3.002,-0.099
3.003,-0.097
3.004,-0.096
3.005,-0.091
3.006,-0.091
3.007,-0.087
3.008,-0.087
3.009,-0.087
3.010,-0.086
3.011,-0.084
3.012,-0.084
3.013,-0.084
3.014,-0.083
3.015,-0.075
3.016,-0.071
3.017,-0.063
3.018,-0.059
3.019,-0.056
3.020,-0.053
3.021,-0.050
3.022,-0.044
3.023,-0.034
3.024,-0.034
3.025,-0.034
3.026,-0.030
3.027,-0.025
3.028,-0.022
3.029,-0.016
3.030,-0.017
3.031,-0.019
3.032,-0.022
3.033,-0.031
3.034,-0.031
3.035,-0.031
3.036,-0.027
3.037,-0.022
3.038,-0.018
3.039,-0.009
3.040,-0.005
3.041,0.003
3.042,0.012
3.043,0.019
3.044,0.021
3.045,0.022
3.046,0.019
3.047,0.019
3.048,0.019
3.049,0.022
3.050,0.024
3.051,0.028
3.052,0.030
3.053,0.031
3.054,0.027
3.055,0.025
3.056,0.026
3.057,0.025
3.058,0.021
3.059,0.019
3.060,0.016
3.061,0.012
3.062,0.011
3.063,0.012
3.064,0.011
3.065,0.009
3.066,0.009
3.067,0.009
3.068,0.009
3.069,0.009
3.070,0.006
3.071,0.003
3.072,0.000
3.073,-0.006
3.074,-0.011
3.075,-0.012
3.076,-0.011
3.077,-0.012
3.078,-0.016
3.079,-0.016
3.080,-0.020
3.081,-0.028
3.082,-0.036
3.083,-0.050
3.084,-0.058
3.085,-0.063
3.086,-0.069
3.087,-0.075
3.088,-0.080
3.089,-0.081
3.090,-0.083
3.091,-0.084
3.092,-0.087
3.093,-0.087
3.094,-0.091
3.095,-0.091
3.096,-0.094
3.097,-0.097
3.098,-0.097
3.099,-0.097
3.100,-0.100
3.101,-0.103
3.102,-0.102
3.103,-0.103
3.104,-0.103
3.105,-0.106
3.106,-0.106
3.107,-0.106
3.108,-0.108
3.109,-0.113
3.110,-0.114
3.111,-0.113
3.112,-0.111
3.113,-0.109
3.114,-0.109
3.115,-0.113
3.116,-0.111
3.117,-0.109
3.118,-0.108
3.119,-0.109
3.120,-0.113
3.121,-0.113
3.122,-0.116
3.123,-0.119
3.124,-0.120
3.125,-0.122
3.126,-0.122
3.127,-0.125
3.128,-0.122
3.129,-0.125
3.130,-0.125
3.131,-0.128
3.132,-0.128
3.133,-0.128
3.134,-0.127
3.135,-0.128
3.136,-0.128
3.137,-0.128
3.138,-0.125
3.139,-0.128
3.140,-0.125
3.141,-0.125
3.142,-0.125
3.143,-0.125
3.144,-0.125
3.145,-0.125
3.146,-0.124
3.147,-0.119
3.148,-0.120
3.149,-0.122
3.150,-0.125
3.151,-0.128
3.152,-0.131
3.153,-0.141
3.154,-0.141
3.155,-0.150
3.156,-0.166
3.157,-0.181
3.158,-0.203
3.159,-0.228
3.160,-0.252
3.161,-0.275
3.162,-0.288
3.163,-0.294
3.164,-0.291
3.165,-0.281
3.166,-0.263
3.167,-0.244
3.168,-0.213
3.169,-0.175
3.170,-0.139
3.171,-0.103
3.172,-0.074
3.173,-0.041
3.174,0.011
3.175,0.069
3.176,0.134
3.177,0.203
3.178,0.278
3.179,0.356
3.180,0.444
3.181,0.541
3.182,0.642
3.183,0.741
3.184,0.842
3.185,0.941
3.186,1.034
3.187,1.131
3.188,1.225
3.189,1.328
3.190,1.427
3.191,1.525
3.192,1.556
3.193,1.553
3.194,1.484
3.195,1.381
3.196,1.274
3.197,1.172
3.198,1.066
3.199,0.956
3.200,0.837
3.201,0.716
3.202,0.614
3.203,0.512
3.204,0.429
3.205,0.353
3.206,0.278
3.207,0.206
3.208,0.137
3.209,0.075
3.210,0.014
3.211,-0.047
3.212,-0.098
3.213,-0.144
3.214,-0.169
3.215,-0.184
3.216,-0.184
3.217,-0.178
3.218,-0.153
3.219,-0.122
3.220,-0.094
3.221,-0.066
3.222,-0.046
3.223,-0.025
3.224,-0.012
3.225,0.000
3.226,0.009
3.227,0.016
3.228,0.020
3.229,0.022
3.230,0.022
3.231,0.022
3.232,0.020
3.233,0.022
3.234,0.017
3.235,0.009
3.236,0.002
3.237,-0.006
3.238,-0.006
3.239,-0.009
3.240,-0.017
3.241,-0.025
3.242,-0.029
3.243,-0.034
3.244,-0.033
3.245,-0.034
3.246,-0.033
3.247,-0.034
3.248,-0.034
3.249,-0.034
3.250,-0.038
3.251,-0.038
3.252,-0.036
3.253,-0.038
3.254,-0.036
3.255,-0.031
3.256,-0.029
3.257,-0.034
3.258,-0.036
3.259,-0.038
3.260,-0.038
3.261,-0.038
3.262,-0.038
3.263,-0.038
3.264,-0.038
3.265,-0.038
3.266,-0.038
3.267,-0.038
3.268,-0.036
3.269,-0.034
3.270,-0.036
3.271,-0.034
3.272,-0.038
3.273,-0.038
3.274,-0.034
3.275,-0.038
3.276,-0.034
3.277,-0.034
3.278,-0.036
3.279,-0.031
3.280,-0.028
3.281,-0.028
3.282,-0.027
3.283,-0.028
3.284,-0.028
3.285,-0.025
3.286,-0.029
3.287,-0.028
3.288,-0.027
3.289,-0.028
3.290,-0.025
3.291,-0.022
3.292,-0.025
3.293,-0.022
3.294,-0.023
3.295,-0.022
3.296,-0.023
3.297,-0.022
3.298,-0.022
3.299,-0.022
3.300,-0.019
3.301,-0.019
3.302,-0.018
3.303,-0.016
3.304,-0.014
3.305,-0.012
3.306,-0.012
3.307,-0.012
3.308,-0.012
3.309,-0.012
3.310,-0.009
3.311,-0.006
3.312,-0.009
3.313,-0.009
3.314,-0.006
3.315,-0.006
3.316,-0.003
3.317,0.003
3.318,0.003
3.319,0.003
3.320,0.002
3.321,0.000
3.322,0.006
3.323,0.006
3.324,0.009
3.325,0.009
3.326,0.008
3.327,0.009
3.328,0.008
3.329,0.006
3.330,0.008
3.331,0.009
3.332,0.016
3.333,0.022
3.334,0.023
3.335,0.025
3.336,0.024
3.337,0.022
3.338,0.025
3.339,0.028
3.340,0.027
3.341,0.028
3.342,0.032
3.343,0.034
3.344,0.041
3.345,0.044
3.346,0.047
3.347,0.047
3.348,0.044
3.349,0.044
3.350,0.044
3.351,0.044
3.352,0.042
3.353,0.041
3.354,0.045
3.355,0.050
3.356,0.052
3.357,0.053
3.358,0.052
3.359,0.053
3.360,0.052
3.361,0.050
3.362,0.050
3.363,0.053
3.364,0.049
3.365,0.050
3.366,0.051
3.367,0.053
3.368,0.057
3.369,0.056
3.370,0.058
3.371,0.056
3.372,0.058
3.373,0.059
3.374,0.062
3.375,0.066
3.376,0.070
3.377,0.075
3.378,0.075
3.379,0.075
3.380,0.076
3.381,0.078
3.382,0.080
3.383,0.078
3.384,0.078
3.385,0.075
3.386,0.078
3.387,0.078
3.388,0.079
3.389,0.081
3.390,0.086
3.391,0.087
3.392,0.087
3.393,0.087
3.394,0.089
3.395,0.087
3.396,0.084
3.397,0.084
3.398,0.084
3.399,0.084
3.400,0.081
3.401,0.081
3.402,0.080
3.403,0.078
3.404,0.073
3.405,0.075
3.406,0.081
3.407,0.081
3.408,0.081
3.409,0.081
3.410,0.080
3.411,0.081
3.412,0.079
3.413,0.081
3.414,0.081
3.415,0.078
3.416,0.080
3.417,0.075
3.418,0.076
3.419,0.081
3.420,0.082
3.421,0.084
3.422,0.081
3.423,0.081
3.424,0.081
3.425,0.081
3.426,0.075
3.427,0.075
3.428,0.076
3.429,0.078
3.430,0.077
3.431,0.075
3.432,0.071
3.433,0.069
3.434,0.070
3.435,0.072
3.436,0.073
3.437,0.075
3.438,0.072
3.439,0.072
3.440,0.074
3.441,0.075
3.442,0.081
3.443,0.084
3.444,0.086
3.445,0.091
3.446,0.094
3.447,0.094
3.448,0.094
3.449,0.094
3.450,0.092
3.451,0.094
3.452,0.096
3.453,0.097
3.454,0.095
3.455,0.097
3.456,0.098
3.457,0.100
3.458,0.097
3.459,0.100
3.460,0.103
3.461,0.103
3.462,0.094
3.463,0.087
3.464,0.086
3.465,0.081
3.466,0.084
3.467,0.084
3.468,0.078
3.469,0.075
3.470,0.075
3.471,0.072
3.472,0.072
3.473,0.072
3.474,0.069
3.475,0.066
3.476,0.061
3.477,0.056
3.478,0.051
3.479,0.053
3.480,0.051
3.481,0.050
3.482,0.041
3.483,0.041
3.484,0.039
3.485,0.031
3.486,0.024
3.487,0.016
3.488,0.012
3.489,0.006
3.490,0.006
3.491,0.003
3.492,0.003
3.493,0.003
3.494,-0.001
3.495,-0.009
3.496,-0.014
3.497,-0.022
3.498,-0.022
3.499,-0.028
3.500,-0.027
3.501,-0.028
3.502,-0.031
3.503,-0.034
3.504,-0.033
3.505,-0.038
3.506,-0.041
3.507,-0.047
3.508,-0.046
3.509,-0.044
3.510,-0.049
3.511,-0.050
3.512,-0.053
3.513,-0.056
3.514,-0.053
3.515,-0.056
3.516,-0.063
3.517,-0.066
3.518,-0.067
3.519,-0.072
3.520,-0.072
3.521,-0.072
3.522,-0.074
3.523,-0.072
3.524,-0.071
3.525,-0.072
3.526,-0.075
3.527,-0.078
3.528,-0.081
3.529,-0.081
3.530,-0.078
3.531,-0.075
3.532,-0.072
3.533,-0.072
3.534,-0.076
3.535,-0.081
3.536,-0.078
3.537,-0.081
3.538,-0.079
3.539,-0.081
3.540,-0.081
3.541,-0.081
3.542,-0.078
3.543,-0.078
3.544,-0.074
3.545,-0.075
3.546,-0.073
3.547,-0.075
3.548,-0.076
3.549,-0.078
3.550,-0.072
3.551,-0.072
3.552,-0.068
3.553,-0.066
3.554,-0.056
3.555,-0.056
3.556,-0.059
3.557,-0.059
3.558,-0.058
3.559,-0.063
3.560,-0.061
3.561,-0.059
3.562,-0.063
3.563,-0.063
3.564,-0.059
3.565,-0.053
3.566,-0.049
3.567,-0.047
3.568,-0.048
3.569,-0.050
3.570,-0.050
3.571,-0.050
3.572,-0.048
3.573,-0.047
3.574,-0.043
3.575,-0.041
3.576,-0.039
3.577,-0.041
3.578,-0.041
3.579,-0.044
3.580,-0.041
3.581,-0.044
3.582,-0.042
3.583,-0.044
3.584,-0.044
3.585,-0.047
3.586,-0.046
3.587,-0.044
3.588,-0.043
3.589,-0.041
3.590,-0.036
3.591,-0.034
3.592,-0.028
3.593,-0.022
3.594,-0.025
3.595,-0.025
3.596,-0.028
3.597,-0.031
3.598,-0.033
3.599,-0.031
3.600,-0.031
3.601,-0.031
3.602,-0.033
3.603,-0.041
3.604,-0.044
3.605,-0.044
3.606,-0.048
3.607,-0.050
3.608,-0.050
3.609,-0.053
3.610,-0.052
3.611,-0.053
3.612,-0.050
3.613,-0.050
3.614,-0.054
3.615,-0.053
3.616,-0.050
3.617,-0.050
3.618,-0.053
3.619,-0.053
3.620,-0.054
3.621,-0.056
3.622,-0.058
3.623,-0.059
3.624,-0.055
3.625,-0.050
3.626,-0.054
3.627,-0.053
3.628,-0.058
3.629,-0.056
3.630,-0.053
3.631,-0.053
3.632,-0.052
3.633,-0.056
3.634,-0.054
3.635,-0.056
3.636,-0.052
3.637,-0.053
3.638,-0.056
3.639,-0.056
3.640,-0.058
3.641,-0.059
3.642,-0.063
3.643,-0.063
3.644,-0.064
3.645,-0.066
3.646,-0.070
3.647,-0.072
3.648,-0.071
3.649,-0.072
3.650,-0.070
3.651,-0.075
3.652,-0.078
3.653,-0.075
3.654,-0.074
3.655,-0.075
3.656,-0.075
3.657,-0.075
3.658,-0.078
3.659,-0.078
3.660,-0.075
3.661,-0.075
3.662,-0.079
3.663,-0.078
3.664,-0.077
3.665,-0.078
3.666,-0.075
3.667,-0.075
3.668,-0.078
3.669,-0.075
3.670,-0.078
3.671,-0.081
3.672,-0.082
3.673,-0.084
3.674,-0.080
3.675,-0.075
3.676,-0.078
3.677,-0.078
3.678,-0.076
3.679,-0.081
3.680,-0.083
3.681,-0.081
3.682,-0.083
3.683,-0.081
3.684,-0.080
3.685,-0.078
3.686,-0.079
3.687,-0.084
3.688,-0.087
3.689,-0.087
3.690,-0.089
3.691,-0.094
3.692,-0.098
3.693,-0.100
3.694,-0.103
3.695,-0.106
3.696,-0.106
3.697,-0.106
3.698,-0.110
3.699,-0.113
3.700,-0.109
3.701,-0.113
3.702,-0.111
3.703,-0.109
3.704,-0.111
3.705,-0.113
3.706,-0.109
3.707,-0.109
3.708,-0.108
3.709,-0.103
3.710,-0.103
3.711,-0.100
3.712,-0.109
3.713,-0.116
3.714,-0.111
3.715,-0.113
3.716,-0.113
3.717,-0.109
3.718,-0.108
3.719,-0.109
3.720,-0.111
3.721,-0.106
3.722,-0.103
3.723,-0.103
3.724,-0.104
3.725,-0.106
3.726,-0.108
3.727,-0.106
3.728,-0.106
3.729,-0.106
3.730,-0.109
3.731,-0.113
3.732,-0.114
3.733,-0.116
3.734,-0.117
3.735,-0.122
3.736,-0.122
3.737,-0.125
3.738,-0.125
3.739,-0.128
3.740,-0.129
3.741,-0.131
3.742,-0.130
3.743,-0.131
3.744,-0.134
3.745,-0.138
3.746,-0.136
3.747,-0.138
3.748,-0.134
3.749,-0.131
3.750,-0.131
3.751,-0.128
3.752,-0.121
3.753,-0.116
3.754,-0.113
3.755,-0.113
3.756,-0.106
3.757,-0.100
3.758,-0.095
3.759,-0.091
3.760,-0.083
3.761,-0.078
3.762,-0.072
3.763,-0.069
3.764,-0.064
3.765,-0.059
3.766,-0.056
3.767,-0.053
3.768,-0.046
3.769,-0.044
3.770,-0.043
3.771,-0.041
3.772,-0.050
3.773,-0.056
3.774,-0.061
3.775,-0.063
3.776,-0.061
3.777,-0.056
3.778,-0.053
3.779,-0.053
3.780,-0.048
3.781,-0.041
3.782,-0.033
3.783,-0.025
3.784,-0.019
3.785,-0.022
3.786,-0.022
3.787,-0.022
3.788,-0.019
3.789,-0.016
3.790,-0.005
3.791,0.003
3.792,0.007
3.793,0.006
3.794,0.005
3.795,0.000
3.796,-0.007
3.797,-0.012
3.798,-0.011
3.799,-0.012
3.800,-0.017
3.801,-0.022
3.802,-0.023
3.803,-0.028
3.804,-0.033
3.805,-0.034
3.806,-0.038
3.807,-0.041
3.808,-0.036
3.809,-0.034
3.810,-0.038
3.811,-0.038
3.812,-0.041
3.813,-0.044
3.814,-0.047
3.815,-0.050
3.816,-0.052
3.817,-0.053
3.818,-0.052
3.819,-0.050
3.820,-0.049
3.821,-0.050
3.822,-0.058
3.823,-0.066
3.824,-0.079
3.825,-0.091
3.826,-0.101
3.827,-0.113
3.828,-0.119
3.829,-0.125
3.830,-0.133
3.831,-0.141
3.832,-0.139
3.833,-0.141
3.834,-0.139
3.835,-0.141
3.836,-0.144
3.837,-0.144
3.838,-0.148
3.839,-0.153
3.840,-0.152
3.841,-0.150
3.842,-0.149
3.843,-0.144
3.844,-0.146
3.845,-0.144
3.846,-0.144
3.847,-0.144
3.848,-0.146
3.849,-0.147
3.850,-0.147
3.851,-0.147
3.852,-0.147
3.853,-0.147
3.854,-0.150
3.855,-0.150
3.856,-0.151
3.857,-0.150
3.858,-0.151
3.859,-0.156
3.860,-0.158
3.861,-0.159
3.862,-0.155
3.863,-0.150
3.864,-0.150
3.865,-0.150
3.866,-0.156
3.867,-0.156
3.868,-0.158
3.869,-0.156
3.870,-0.161
3.871,-0.162
3.872,-0.162
3.873,-0.162
3.874,-0.162
3.875,-0.159
3.876,-0.161
3.877,-0.159
3.878,-0.162
3.879,-0.159
3.880,-0.162
3.881,-0.166
3.882,-0.166
3.883,-0.166
3.884,-0.166
3.885,-0.169
3.886,-0.166
3.887,-0.162
3.888,-0.161
3.889,-0.159
3.890,-0.158
3.891,-0.156
3.892,-0.161
3.893,-0.162
3.894,-0.174
3.895,-0.188
3.896,-0.203
3.897,-0.225
3.898,-0.247
3.899,-0.272
3.900,-0.303
3.901,-0.325
3.902,-0.342
3.903,-0.344
3.904,-0.344
3.905,-0.338
3.906,-0.326
3.907,-0.306
3.908,-0.275
3.909,-0.241
3.910,-0.203
3.911,-0.172
3.912,-0.148
3.913,-0.116
3.914,-0.073
3.915,-0.019
3.916,0.044
3.917,0.112
3.918,0.174
3.919,0.253
3.920,0.341
3.921,0.441
3.922,0.546
3.923,0.650
3.924,0.755
3.925,0.856
3.926,0.961
3.927,1.053
3.928,1.155
3.929,1.262
3.930,1.400
3.931,1.503
3.932,1.589
3.933,1.609
3.934,1.562
3.935,1.469
3.936,1.370
3.937,1.272
3.938,1.176
3.939,1.069
3.940,0.941
3.941,0.816
3.942,0.696
3.943,0.581
3.944,0.474
3.945,0.372
3.946,0.272
3.947,0.181
3.948,0.106
3.949,0.047
3.950,-0.019
3.951,-0.072
3.952,-0.129
3.953,-0.166
3.954,-0.181
3.955,-0.181
3.956,-0.178
3.957,-0.169
3.958,-0.148
3.959,-0.128
3.960,-0.100
3.961,-0.075
3.962,-0.055
3.963,-0.041
3.964,-0.027
3.965,-0.016
3.966,-0.006
3.967,0.000
3.968,0.001
3.969,0.000
3.970,-0.003
3.971,-0.006
3.972,-0.006
3.973,-0.009
3.974,-0.019
3.975,-0.028
3.976,-0.038
3.977,-0.044
3.978,-0.050
3.979,-0.056
3.980,-0.061
3.981,-0.063
3.982,-0.066
3.983,-0.066
3.984,-0.068
3.985,-0.066
3.986,-0.069
3.987,-0.069
3.988,-0.072
3.989,-0.078
3.990,-0.078
3.991,-0.078
3.992,-0.081
3.993,-0.081
3.994,-0.079
3.995,-0.078
3.996,-0.078
3.997,-0.075
3.998,-0.076
3.999,-0.078
4.000,-0.079
4.001,-0.081
4.002,-0.082
4.003,-0.084
4.004,-0.077
4.005,-0.069
4.006,-0.069
4.007,-0.069
4.008,-0.072
4.009,-0.075
4.010,-0.071
4.011,-0.072
4.012,-0.072
4.013,-0.069
4.014,-0.073
4.015,-0.072
4.016,-0.072
4.017,-0.072
4.018,-0.069
4.019,-0.069
4.020,-0.072
4.021,-0.075
4.022,-0.078
4.023,-0.078
4.024,-0.071
4.025,-0.069
4.026,-0.061
4.027,-0.056
4.028,-0.061
4.029,-0.059
4.030,-0.059
4.031,-0.066
4.032,-0.066
4.033,-0.069
4.034,-0.066
4.035,-0.066
4.036,-0.059
4.037,-0.056
4.038,-0.056
4.039,-0.053
4.040,-0.053
4.041,-0.053
4.042,-0.056
4.043,-0.056
4.044,-0.054
4.045,-0.056
4.046,-0.056
4.047,-0.056
4.048,-0.053
4.049,-0.050
4.050,-0.047
4.051,-0.044
4.052,-0.044
4.053,-0.044
4.054,-0.045
4.055,-0.047
4.056,-0.044
4.057,-0.044
4.058,-0.039
4.059,-0.034
4.060,-0.034
4.061,-0.028
4.062,-0.029
4.063,-0.028
4.064,-0.028
4.065,-0.028
4.066,-0.022
4.067,-0.019
4.068,-0.020
4.069,-0.019
4.070,-0.017
4.071,-0.016
4.072,-0.012
4.073,-0.012
4.074,-0.012
4.075,-0.012
4.076,-0.016
4.077,-0.016
4.078,-0.011
4.079,-0.009
4.080,-0.006
4.081,-0.003
4.082,-0.006
4.083,-0.006
4.084,-0.005
4.085,0.000
4.086,0.001
4.087,0.003
4.088,0.006
4.089,0.009
4.090,0.012
4.091,0.012
4.092,0.020
4.093,0.031
4.094,0.036
4.095,0.041
4.096,0.041
4.097,0.037
4.098,0.037
4.099,0.034
4.100,0.031
4.101,0.028
4.102,0.031
4.103,0.028
4.104,0.032
4.105,0.034
4.106,0.037
4.107,0.044
4.108,0.039
4.109,0.041
4.110,0.037
4.111,0.037
4.112,0.041
4.113,0.041
4.114,0.041
4.115,0.044
4.116,0.048
4.117,0.050
4.118,0.050
4.119,0.050
4.120,0.049
4.121,0.050
4.122,0.049
4.123,0.050
4.124,0.056
4.125,0.066
4.126,0.072
4.127,0.078
4.128,0.075
4.129,0.075
4.130,0.071
4.131,0.066
4.132,0.064
4.133,0.066
4.134,0.066
4.135,0.066
4.136,0.068
4.137,0.066
4.138,0.066
4.139,0.062
4.140,0.059
4.141,0.059
4.142,0.067
4.143,0.066
4.144,0.069
4.145,0.075
4.146,0.069
4.147,0.066
4.148,0.066
4.149,0.066
4.150,0.069
4.151,0.066
4.152,0.066
4.153,0.066
4.154,0.062
4.155,0.066
4.156,0.062
4.157,0.062
4.158,0.061
4.159,0.056
4.160,0.056
4.161,0.053
4.162,0.056
4.163,0.059
4.164,0.067
4.165,0.072
4.166,0.072
4.167,0.069
4.168,0.068
4.169,0.066
4.170,0.062
4.171,0.059
4.172,0.058
4.173,0.053
4.174,0.056
4.175,0.059
4.176,0.059
4.177,0.059
4.178,0.066
4.179,0.072
4.180,0.072
4.181,0.072
4.182,0.072
4.183,0.072
4.184,0.072
4.185,0.072
4.186,0.076
4.187,0.081
4.188,0.082
4.189,0.084
4.190,0.084
4.191,0.084
4.192,0.086
4.193,0.081
4.194,0.082
4.195,0.084
4.196,0.084
4.197,0.081
4.198,0.084
4.199,0.084
4.200,0.081
4.201,0.078
4.202,0.078
4.203,0.078
4.204,0.078
4.205,0.081
4.206,0.078
4.207,0.075
4.208,0.075
4.209,0.072
4.210,0.061
4.211,0.056
4.212,0.056
4.213,0.053
4.214,0.051
4.215,0.050
4.216,0.048
4.217,0.044
4.218,0.044
4.219,0.041
4.220,0.036
4.221,0.025
4.222,0.025
4.223,0.025
4.224,0.019
4.225,0.012
4.226,0.011
4.227,0.012
4.228,0.007
4.229,0.006
4.230,-0.001
4.231,-0.006
4.232,-0.012
4.233,-0.019
4.234,-0.029
4.235,-0.038
4.236,-0.043
4.237,-0.041
4.238,-0.047
4.239,-0.047
4.240,-0.049
4.241,-0.050
4.242,-0.052
4.243,-0.050
4.244,-0.059
4.245,-0.063
4.246,-0.066
4.247,-0.066
4.248,-0.063
4.249,-0.066
4.250,-0.073
4.251,-0.078
4.252,-0.078
4.253,-0.078
4.254,-0.077
4.255,-0.075
4.256,-0.081
4.257,-0.084
4.258,-0.089
4.259,-0.091
4.260,-0.089
4.261,-0.091
4.262,-0.091
4.263,-0.091
4.264,-0.092
4.265,-0.091
4.266,-0.089
4.267,-0.091
4.268,-0.094
4.269,-0.097
4.270,-0.097
4.271,-0.094
4.272,-0.095
4.273,-0.097
4.274,-0.098
4.275,-0.097
4.276,-0.101
4.277,-0.100
4.278,-0.101
4.279,-0.103
4.280,-0.103
4.281,-0.103
4.282,-0.099
4.283,-0.087
4.284,-0.092
4.285,-0.091
4.286,-0.091
4.287,-0.091
4.288,-0.091
4.289,-0.087
4.290,-0.091
4.291,-0.087
4.292,-0.089
4.293,-0.081
4.294,-0.080
4.295,-0.081
4.296,-0.075
4.297,-0.066
4.298,-0.063
4.299,-0.056
4.300,-0.056
4.301,-0.059
4.302,-0.064
4.303,-0.069
4.304,-0.070
4.305,-0.072
4.306,-0.073
4.307,-0.075
4.308,-0.075
4.309,-0.075
4.310,-0.076
4.311,-0.075
4.312,-0.078
4.313,-0.081
4.314,-0.077
4.315,-0.072
4.316,-0.072
4.317,-0.066
4.318,-0.067
4.319,-0.066
4.320,-0.068
4.321,-0.063
4.322,-0.063
4.323,-0.059
4.324,-0.061
4.325,-0.063
4.326,-0.064
4.327,-0.066
4.328,-0.069
4.329,-0.069
4.330,-0.068
4.331,-0.066
4.332,-0.063
4.333,-0.063
4.334,-0.059
4.335,-0.056
4.336,-0.056
4.337,-0.056
4.338,-0.053
4.339,-0.053
4.340,-0.052
4.341,-0.050
4.342,-0.058
4.343,-0.059
4.344,-0.058
4.345,-0.059
4.346,-0.059
4.347,-0.063
4.348,-0.064
4.349,-0.063
4.350,-0.064
4.351,-0.059
4.352,-0.059
4.353,-0.063
4.354,-0.059
4.355,-0.059
4.356,-0.063
4.357,-0.066
4.358,-0.063
4.359,-0.059
4.360,-0.061
4.361,-0.063
4.362,-0.063
4.363,-0.063
4.364,-0.058
4.365,-0.056
4.366,-0.053
4.367,-0.056
4.368,-0.054
4.369,-0.056
4.370,-0.064
4.371,-0.069
4.372,-0.078
4.373,-0.078
4.374,-0.079
4.375,-0.078
4.376,-0.080
4.377,-0.078
4.378,-0.074
4.379,-0.075
4.380,-0.078
4.381,-0.081
4.382,-0.082
4.383,-0.084
4.384,-0.083
4.385,-0.081
4.386,-0.078
4.387,-0.078
4.388,-0.081
4.389,-0.078
4.390,-0.078
4.391,-0.078
4.392,-0.076
4.393,-0.078
4.394,-0.081
4.395,-0.081
4.396,-0.082
4.397,-0.087
4.398,-0.087
4.399,-0.087
4.400,-0.089
4.401,-0.091
4.402,-0.087
4.403,-0.087
4.404,-0.092
4.405,-0.091
4.406,-0.089
4.407,-0.091
4.408,-0.087
4.409,-0.091
4.410,-0.092
4.411,-0.091
4.412,-0.091
4.413,-0.091
4.414,-0.092
4.415,-0.097
4.416,-0.098
4.417,-0.097
4.418,-0.099
4.419,-0.100
4.420,-0.096
4.421,-0.094
4.422,-0.094
4.423,-0.094
4.424,-0.095
4.425,-0.094
4.426,-0.094
4.427,-0.097
4.428,-0.097
4.429,-0.097
4.430,-0.100
4.431,-0.100
4.432,-0.096
4.433,-0.094
4.434,-0.092
4.435,-0.094
4.436,-0.098
4.437,-0.103
4.438,-0.104
4.439,-0.109
4.440,-0.117
4.441,-0.125
4.442,-0.123
4.443,-0.125
4.444,-0.122
4.445,-0.116
4.446,-0.116
4.447,-0.113
4.448,-0.114
4.449,-0.113
4.450,-0.116
4.451,-0.113
4.452,-0.113
4.453,-0.109
4.454,-0.105
4.455,-0.100
4.456,-0.098
4.457,-0.103
4.458,-0.106
4.459,-0.109
4.460,-0.113
4.461,-0.109
4.462,-0.111
4.463,-0.109
4.464,-0.108
4.465,-0.109
4.466,-0.117
4.467,-0.119
4.468,-0.120
4.469,-0.122
4.470,-0.119
4.471,-0.122
4.472,-0.122
4.473,-0.125
4.474,-0.126
4.475,-0.125
4.476,-0.127
4.477,-0.125
4.478,-0.122
4.479,-0.122
4.480,-0.126
4.481,-0.128
4.482,-0.122
4.483,-0.122
4.484,-0.124
4.485,-0.122
4.486,-0.122
4.487,-0.125
4.488,-0.125
4.489,-0.125
4.490,-0.125
4.491,-0.125
4.492,-0.125
4.493,-0.125
4.494,-0.121
4.495,-0.116
4.496,-0.118
4.497,-0.113
4.498,-0.114
4.499,-0.116
4.500,-0.114
4.501,-0.109
4.502,-0.109
4.503,-0.109
4.504,-0.117
4.505,-0.122
4.506,-0.123
4.507,-0.122
4.508,-0.125
4.509,-0.128
4.510,-0.129
4.511,-0.131
4.512,-0.128
4.513,-0.125
4.514,-0.125
4.515,-0.119
4.516,-0.116
4.517,-0.109
4.518,-0.102
4.519,-0.094
4.520,-0.084
4.521,-0.075
4.522,-0.071
4.523,-0.063
4.524,-0.058
4.525,-0.053
4.526,-0.046
4.527,-0.038
4.528,-0.039
4.529,-0.038
4.530,-0.041
4.531,-0.044
4.532,-0.044
4.533,-0.050
4.534,-0.054
4.535,-0.059
4.536,-0.059
4.537,-0.059
4.538,-0.050
4.539,-0.038
4.540,-0.031
4.541,-0.022
4.542,-0.017
4.543,-0.016
4.544,-0.012
4.545,-0.009
4.546,-0.012
4.547,-0.012
4.548,-0.014
4.549,-0.012
4.550,-0.006
4.551,0.003
4.552,0.003
4.553,0.003
4.554,0.001
4.555,0.003
4.556,0.000
4.557,-0.006
4.558,-0.008
4.559,-0.006
4.560,-0.009
4.561,-0.012
4.562,-0.016
4.563,-0.016
4.564,-0.020
4.565,-0.025
4.566,-0.025
4.567,-0.025
4.568,-0.025
4.569,-0.025
4.570,-0.029
4.571,-0.034
4.572,-0.033
4.573,-0.034
4.574,-0.033
4.575,-0.028
4.576,-0.027
4.577,-0.028
4.578,-0.033
4.579,-0.034
4.580,-0.042
4.581,-0.053
4.582,-0.061
4.583,-0.075
4.584,-0.087
4.585,-0.097
4.586,-0.100
4.587,-0.103
4.588,-0.106
4.589,-0.106
4.590,-0.108
4.591,-0.109
4.592,-0.116
4.593,-0.119
4.594,-0.122
4.595,-0.122
4.596,-0.125
4.597,-0.128
4.598,-0.127
4.599,-0.125
4.600,-0.125
4.601,-0.125
4.602,-0.126
4.603,-0.131
4.604,-0.134
4.605,-0.141
4.606,-0.142
4.607,-0.144
4.608,-0.141
4.609,-0.141
4.610,-0.143
4.611,-0.141
4.612,-0.141
4.613,-0.141
4.614,-0.141
4.615,-0.144
4.616,-0.145
4.617,-0.147
4.618,-0.143
4.619,-0.141
4.620,-0.144
4.621,-0.144
4.622,-0.144
4.623,-0.144
4.624,-0.145
4.625,-0.147
4.626,-0.144
4.627,-0.144
4.628,-0.139
4.629,-0.141
4.630,-0.141
4.631,-0.144
4.632,-0.145
4.633,-0.147
4.634,-0.151
4.635,-0.159
4.636,-0.159
4.637,-0.159
4.638,-0.156
4.639,-0.159
4.640,-0.159
4.641,-0.162
4.642,-0.162
4.643,-0.162
4.644,-0.161
4.645,-0.159
4.646,-0.162
4.647,-0.162
4.648,-0.162
4.649,-0.162
4.650,-0.161
4.651,-0.159
4.652,-0.156
4.653,-0.159
4.654,-0.156
4.655,-0.162
4.656,-0.177
4.657,-0.191
4.658,-0.209
4.659,-0.231
4.660,-0.261
4.661,-0.291
4.662,-0.311
4.663,-0.325
4.664,-0.328
4.665,-0.325
4.666,-0.316
4.667,-0.306
4.668,-0.284
4.669,-0.256
4.670,-0.221
4.671,-0.184
4.672,-0.159
4.673,-0.131
4.674,-0.087
4.675,-0.038
4.676,0.023
4.677,0.087
4.678,0.149
4.679,0.212
4.680,0.300
4.681,0.397
4.682,0.503
4.683,0.606
4.684,0.716
4.685,0.822
4.686,0.928
4.687,1.038
4.688,1.141
4.689,1.253
4.690,1.372
4.691,1.491
4.692,1.579
4.693,1.634
4.694,1.617
4.695,1.566
4.696,1.469
4.697,1.378
4.698,1.282
4.699,1.184
4.700,1.062
4.701,0.937
4.702,0.819
4.703,0.700
4.704,0.583
4.705,0.472
4.706,0.366
4.707,0.262
4.708,0.178
4.709,0.100
4.710,0.039
4.711,-0.022
4.712,-0.073
4.713,-0.119
4.714,-0.138
4.715,-0.147
4.716,-0.144
4.717,-0.134
4.718,-0.119
4.719,-0.097
4.720,-0.076
4.721,-0.056
4.722,-0.041
4.723,-0.025
4.724,-0.009
4.725,0.006
4.726,0.016
4.727,0.022
4.728,0.024
4.729,0.022
4.730,0.020
4.731,0.019
4.732,0.011
4.733,0.006
4.734,0.003
4.735,-0.003
4.736,-0.009
4.737,-0.016
4.738,-0.019
4.739,-0.025
4.740,-0.027
4.741,-0.028
4.742,-0.034
4.743,-0.041
4.744,-0.042
4.745,-0.047
4.746,-0.046
4.747,-0.047
4.748,-0.046
4.749,-0.044
4.750,-0.047
4.751,-0.047
4.752,-0.047
4.753,-0.050
4.754,-0.050
4.755,-0.047
4.756,-0.039
4.757,-0.038
4.758,-0.044
4.759,-0.050
4.760,-0.056
4.761,-0.063
4.762,-0.064
4.763,-0.066
4.764,-0.066
4.765,-0.066
4.766,-0.066
4.767,-0.066
4.768,-0.061
4.769,-0.056
4.770,-0.056
4.771,-0.053
4.772,-0.056
4.773,-0.056
4.774,-0.053
4.775,-0.056
4.776,-0.052
4.777,-0.050
4.778,-0.050
4.779,-0.044
4.780,-0.039
4.781,-0.038
4.782,-0.038
4.783,-0.041
4.784,-0.042
4.785,-0.041
4.786,-0.047
4.787,-0.047
4.788,-0.044
4.789,-0.044
4.790,-0.039
4.791,-0.034
4.792,-0.038
4.793,-0.034
4.794,-0.036
4.795,-0.034
4.796,-0.036
4.797,-0.034
4.798,-0.033
4.799,-0.031
4.800,-0.027
4.801,-0.025
4.802,-0.026
4.803,-0.028
4.804,-0.028
4.805,-0.028
4.806,-0.029
4.807,-0.031
4.808,-0.031
4.809,-0.031
4.810,-0.031
4.811,-0.031
4.812,-0.033
4.813,-0.031
4.814,-0.029
4.815,-0.031
4.816,-0.027
4.817,-0.019
4.818,-0.020
4.819,-0.022
4.820,-0.021
4.821,-0.019
4.822,-0.009
4.823,-0.006
4.824,0.000
4.825,0.003
4.826,0.002
4.827,0.003
4.828,0.004
4.829,0.006
4.830,0.005
4.831,0.003
4.832,0.003
4.833,0.003
4.834,0.003
4.835,0.003
4.836,0.003
4.837,0.003
4.838,0.006
4.839,0.009
4.840,0.012
4.841,0.019
4.842,0.022
4.843,0.022
4.844,0.025
4.845,0.025
4.846,0.028
4.847,0.028
4.848,0.027
4.849,0.028
4.850,0.030
4.851,0.031
4.852,0.034
4.853,0.037
4.854,0.039
4.855,0.041
4.856,0.047
4.857,0.053
4.858,0.056
4.859,0.062
4.860,0.062
4.861,0.062
4.862,0.056
4.863,0.053
4.864,0.049
4.865,0.050
4.866,0.049
4.867,0.047
4.868,0.053
4.869,0.053
4.870,0.059
4.871,0.062
4.872,0.062
4.873,0.062
4.874,0.062
4.875,0.062
4.876,0.066
4.877,0.069
4.878,0.072
4.879,0.075
4.880,0.075
4.881,0.075
4.882,0.079
4.883,0.081
4.884,0.087
4.885,0.091
4.886,0.092
4.887,0.091
4.888,0.089
4.889,0.087
4.890,0.087
4.891,0.084
4.892,0.084
4.893,0.084
4.894,0.091
4.895,0.094
4.896,0.092
4.897,0.094
4.898,0.097
4.899,0.100
4.900,0.096
4.901,0.094
4.902,0.094
4.903,0.094
4.904,0.087
4.905,0.087
4.906,0.095
4.907,0.097
4.908,0.100
4.909,0.103
4.910,0.100
4.911,0.100
4.912,0.091
4.913,0.084
4.914,0.081
4.915,0.075
4.916,0.077
4.917,0.072
4.918,0.073
4.919,0.078
4.920,0.079
4.921,0.081
4.922,0.078
4.923,0.078
4.924,0.079
4.925,0.081
4.926,0.082
4.927,0.091
4.928,0.091
4.929,0.091
4.930,0.091
4.931,0.091
4.932,0.091
4.933,0.094
4.934,0.091
4.935,0.087
4.936,0.086
4.937,0.084
4.938,0.084
4.939,0.087
4.940,0.091
4.941,0.094
4.942,0.100
4.943,0.103
4.944,0.102
4.945,0.103
4.946,0.105
4.947,0.103
4.948,0.104
4.949,0.106
4.950,0.111
4.951,0.119
4.952,0.119
4.953,0.119
4.954,0.116
4.955,0.116
4.956,0.117
4.957,0.119
4.958,0.114
4.959,0.116
4.960,0.114
4.961,0.109
4.962,0.105
4.963,0.103
4.964,0.104
4.965,0.103
4.966,0.106
4.967,0.106
4.968,0.103
4.969,0.103
4.970,0.100
4.971,0.094
4.972,0.092
4.973,0.091
4.974,0.091
4.975,0.091
4.976,0.086
4.977,0.081
4.978,0.075
4.979,0.075
4.980,0.076
4.981,0.078
4.982,0.069
4.983,0.069
4.984,0.061
4.985,0.047
4.986,0.037
4.987,0.028
4.988,0.025
4.989,0.019
4.990,0.019
4.991,0.016
4.992,0.016
4.993,0.016
4.994,0.014
4.995,0.009
4.996,0.009
4.997,0.006
4.998,0.007
4.999,0.003
5.000,0.000
5.001,-0.006
5.002,-0.012
5.003,-0.019
5.004,-0.019
5.005,-0.025
5.006,-0.024
5.007,-0.025
5.008,-0.025
5.009,-0.025
5.010,-0.031
5.011,-0.034
5.012,-0.034
5.013,-0.034
5.014,-0.030
5.015,-0.031
5.016,-0.039
5.017,-0.044
5.018,-0.045
5.019,-0.050
5.020,-0.051
5.021,-0.053
5.022,-0.056
5.023,-0.056
5.024,-0.059
5.025,-0.066
5.026,-0.066
5.027,-0.066
5.028,-0.068
5.029,-0.066
5.030,-0.059
5.031,-0.053
5.032,-0.047
5.033,-0.044
5.034,-0.047
5.035,-0.050
5.036,-0.050
5.037,-0.056
5.038,-0.058
5.039,-0.063
5.040,-0.063
5.041,-0.063
5.042,-0.059
5.043,-0.059
5.044,-0.056
5.045,-0.059
5.046,-0.058
5.047,-0.059
5.048,-0.061
5.049,-0.063
5.050,-0.055
5.051,-0.053
5.052,-0.051
5.053,-0.053
5.054,-0.045
5.055,-0.047
5.056,-0.050
5.057,-0.050
5.058,-0.046
5.059,-0.047
5.060,-0.047
5.061,-0.047
5.062,-0.046
5.063,-0.041
5.064,-0.044
5.065,-0.044
5.066,-0.042
5.067,-0.044
5.068,-0.043
5.069,-0.041
5.070,-0.041
5.071,-0.041
5.072,-0.041
5.073,-0.041
5.074,-0.038
5.075,-0.038
5.076,-0.038
5.077,-0.041
5.078,-0.041
5.079,-0.044
5.080,-0.041
5.081,-0.044
5.082,-0.041
5.083,-0.041
5.084,-0.036
5.085,-0.034
5.086,-0.025
5.087,-0.016
5.088,-0.014
5.089,-0.012
5.090,-0.011
5.091,-0.012
5.092,-0.019
5.093,-0.025
5.094,-0.031
5.095,-0.034
5.096,-0.036
5.097,-0.038
5.098,-0.039
5.099,-0.038
5.100,-0.036
5.101,-0.034
5.102,-0.033
5.103,-0.038
5.104,-0.036
5.105,-0.031
5.106,-0.033
5.107,-0.031
5.108,-0.030
5.109,-0.031
5.110,-0.031
5.111,-0.034
5.112,-0.030
5.113,-0.028
5.114,-0.033
5.115,-0.031
5.116,-0.030
5.117,-0.031
5.118,-0.036
5.119,-0.038
5.120,-0.038
5.121,-0.038
5.122,-0.034
5.123,-0.031
5.124,-0.033
5.125,-0.034
5.126,-0.038
5.127,-0.034
5.128,-0.039
5.129,-0.038
5.130,-0.039
5.131,-0.044
5.132,-0.043
5.133,-0.047
5.134,-0.047
5.135,-0.050
5.136,-0.046
5.137,-0.047
5.138,-0.046
5.139,-0.041
5.140,-0.043
5.141,-0.044
5.142,-0.047
5.143,-0.047
5.144,-0.046
5.145,-0.044
5.146,-0.039
5.147,-0.031
5.148,-0.031
5.149,-0.034
5.150,-0.039
5.151,-0.050
5.152,-0.059
5.153,-0.063
5.154,-0.063
5.155,-0.066
5.156,-0.066
5.157,-0.066
5.158,-0.068
5.159,-0.066
5.160,-0.059
5.161,-0.056
5.162,-0.061
5.163,-0.059
5.164,-0.061
5.165,-0.066
5.166,-0.063
5.167,-0.063
5.168,-0.064
5.169,-0.059
5.170,-0.061
5.171,-0.063
5.172,-0.064
5.173,-0.066
5.174,-0.069
5.175,-0.072
5.176,-0.074
5.177,-0.072
5.178,-0.070
5.179,-0.075
5.180,-0.078
5.181,-0.078
5.182,-0.078
5.183,-0.075
5.184,-0.074
5.185,-0.072
5.186,-0.068
5.187,-0.066
5.188,-0.069
5.189,-0.069
5.190,-0.069
5.191,-0.072
5.192,-0.075
5.193,-0.075
5.194,-0.079
5.195,-0.084
5.196,-0.084
5.197,-0.084
5.198,-0.087
5.199,-0.087
5.200,-0.089
5.201,-0.087
5.202,-0.089
5.203,-0.087
5.204,-0.089
5.205,-0.091
5.206,-0.086
5.207,-0.087
5.208,-0.083
5.209,-0.081
5.210,-0.078
5.211,-0.078
5.212,-0.081
5.213,-0.091
5.214,-0.095
5.215,-0.100
5.216,-0.104
5.217,-0.106
5.218,-0.108
5.219,-0.106
5.220,-0.106
5.221,-0.106
5.222,-0.106
5.223,-0.106
5.224,-0.103
5.225,-0.106
5.226,-0.105
5.227,-0.103
5.228,-0.106
5.229,-0.103
5.230,-0.103
5.231,-0.103
5.232,-0.105
5.233,-0.103
5.234,-0.106
5.235,-0.106
5.236,-0.105
5.237,-0.103
5.238,-0.108
5.239,-0.106
5.240,-0.106
5.241,-0.106
5.242,-0.106
5.243,-0.109
5.244,-0.109
5.245,-0.106
5.246,-0.102
5.247,-0.103
5.248,-0.104
5.249,-0.103
5.250,-0.102
5.251,-0.103
5.252,-0.103
5.253,-0.103
5.254,-0.104
5.255,-0.106
5.256,-0.103
5.257,-0.106
5.258,-0.108
5.259,-0.109
5.260,-0.111
5.261,-0.113
5.262,-0.113
5.263,-0.113
5.264,-0.116
5.265,-0.119
5.266,-0.116
5.267,-0.116
5.268,-0.106
5.269,-0.100
5.270,-0.097
5.271,-0.097
5.272,-0.103
5.273,-0.103
5.274,-0.108
5.275,-0.109
5.276,-0.113
5.277,-0.119
5.278,-0.122
5.279,-0.119
5.280,-0.116
5.281,-0.113
5.282,-0.106
5.283,-0.106
5.284,-0.109
5.285,-0.116
5.286,-0.116
5.287,-0.113
5.288,-0.116
5.289,-0.116
5.290,-0.111
5.291,-0.109
5.292,-0.113
5.293,-0.113
5.294,-0.111
5.295,-0.116
5.296,-0.119
5.297,-0.119
5.298,-0.119
5.299,-0.122
5.300,-0.122
5.301,-0.122
5.302,-0.122
5.303,-0.122
5.304,-0.118
5.305,-0.113
5.306,-0.113
5.307,-0.113
5.308,-0.116
5.309,-0.113
5.310,-0.111
5.311,-0.109
5.312,-0.113
5.313,-0.113
5.314,-0.114
5.315,-0.116
5.316,-0.118
5.317,-0.116
5.318,-0.113
5.319,-0.106
5.320,-0.106
5.321,-0.106
5.322,-0.111
5.323,-0.116
5.324,-0.116
5.325,-0.116
5.326,-0.114
5.327,-0.106
5.328,-0.099
5.329,-0.087
5.330,-0.081
5.331,-0.075
5.332,-0.072
5.333,-0.069
5.334,-0.066
5.335,-0.059
5.336,-0.059
5.337,-0.059
5.338,-0.056
5.339,-0.053
5.340,-0.049
5.341,-0.041
5.342,-0.038
5.343,-0.034
5.344,-0.034
5.345,-0.041
5.346,-0.044
5.347,-0.047
5.348,-0.050
5.349,-0.053
5.350,-0.054
5.351,-0.053
5.352,-0.049
5.353,-0.041
5.354,-0.030
5.355,-0.022
5.356,-0.012
5.357,-0.003
5.358,-0.002
5.359,0.003
5.360,0.002
5.361,0.003
5.362,0.003
5.363,0.006
5.364,0.009
5.365,0.012
5.366,0.009
5.367,0.009
5.368,0.006
5.369,0.000
5.370,-0.003
5.371,-0.003
5.372,-0.002
5.373,0.000
5.374,-0.004
5.375,-0.006
5.376,-0.005
5.377,-0.003
5.378,0.001
5.379,0.006
5.380,0.000
5.381,-0.006
5.382,-0.017
5.383,-0.028
5.384,-0.029
5.385,-0.034
5.386,-0.036
5.387,-0.034
5.388,-0.033
5.389,-0.034
5.390,-0.038
5.391,-0.038
5.392,-0.036
5.393,-0.038
5.394,-0.047
5.395,-0.063
5.396,-0.075
5.397,-0.084
5.398,-0.089
5.399,-0.094
5.400,-0.100
5.401,-0.103
5.402,-0.106
5.403,-0.109
5.404,-0.114
5.405,-0.116
5.406,-0.118
5.407,-0.116
5.408,-0.122
5.409,-0.128
5.410,-0.128
5.411,-0.128
5.412,-0.128
5.413,-0.128
5.414,-0.127
5.415,-0.128
5.416,-0.128
5.417,-0.131
5.418,-0.131
5.419,-0.131
5.420,-0.130
5.421,-0.131
5.422,-0.136
5.423,-0.138
5.424,-0.138
5.425,-0.138
5.426,-0.136
5.427,-0.138
5.428,-0.136
5.429,-0.134
5.430,-0.131
5.431,-0.131
5.432,-0.133
5.433,-0.131
5.434,-0.128
5.435,-0.125
5.436,-0.128
5.437,-0.131
5.438,-0.134
5.439,-0.141
5.440,-0.138
5.441,-0.141
5.442,-0.141
5.443,-0.144
5.444,-0.144
5.445,-0.144
5.446,-0.143
5.447,-0.144
5.448,-0.145
5.449,-0.147
5.450,-0.145
5.451,-0.150
5.452,-0.148
5.453,-0.150
5.454,-0.150
5.455,-0.150
5.456,-0.149
5.457,-0.147
5.458,-0.149
5.459,-0.147
5.460,-0.147
5.461,-0.147
5.462,-0.147
5.463,-0.147
5.464,-0.150
5.465,-0.159
5.466,-0.166
5.467,-0.181
5.468,-0.197
5.469,-0.213
5.470,-0.231
5.471,-0.253
5.472,-0.280
5.473,-0.306
5.474,-0.325
5.475,-0.338
5.476,-0.336
5.477,-0.328
5.478,-0.314
5.479,-0.300
5.480,-0.276
5.481,-0.247
5.482,-0.216
5.483,-0.184
5.484,-0.158
5.485,-0.128
5.486,-0.086
5.487,-0.038
5.488,0.028
5.489,0.097
5.490,0.167
5.491,0.241
5.492,0.334
5.493,0.437
5.494,0.551
5.495,0.662
5.496,0.778
5.497,0.891
5.498,0.987
5.499,1.087
5.500,1.181
5.501,1.284
5.502,1.391
5.503,1.497
5.504,1.575
5.505,1.619
5.506,1.593
5.507,1.531
5.508,1.436
5.509,1.347
5.510,1.251
5.511,1.153
5.512,1.030
5.513,0.903
5.514,0.781
5.515,0.659
5.516,0.542
5.517,0.431
5.518,0.330
5.519,0.231
5.520,0.148
5.521,0.072
5.522,0.012
5.523,-0.047
5.524,-0.089
5.525,-0.125
5.526,-0.139
5.527,-0.144
5.528,-0.142
5.529,-0.134
5.530,-0.119
5.531,-0.097
5.532,-0.081
5.533,-0.066
5.534,-0.048
5.535,-0.031
5.536,-0.020
5.537,-0.009
5.538,0.001
5.539,0.009
5.540,0.012
5.541,0.012
5.542,0.009
5.543,0.006
5.544,0.003
5.545,0.003
5.546,-0.001
5.547,-0.009
5.548,-0.020
5.549,-0.031
5.550,-0.038
5.551,-0.047
5.552,-0.049
5.553,-0.050
5.554,-0.047
5.555,-0.044
5.556,-0.039
5.557,-0.038
5.558,-0.039
5.559,-0.044
5.560,-0.047
5.561,-0.050
5.562,-0.061
5.563,-0.069
5.564,-0.070
5.565,-0.075
5.566,-0.078
5.567,-0.078
5.568,-0.072
5.569,-0.072
5.570,-0.075
5.571,-0.078
5.572,-0.079
5.573,-0.081
5.574,-0.077
5.575,-0.072
5.576,-0.072
5.577,-0.072
5.578,-0.072
5.579,-0.072
5.580,-0.072
5.581,-0.072
5.582,-0.073
5.583,-0.072
5.584,-0.074
5.585,-0.072
5.586,-0.070
5.587,-0.075
5.588,-0.073
5.589,-0.075
5.590,-0.072
5.591,-0.063
5.592,-0.056
5.593,-0.053
5.594,-0.053
5.595,-0.056
5.596,-0.058
5.597,-0.056
5.598,-0.063
5.599,-0.063
5.600,-0.063
5.601,-0.066
5.602,-0.066
5.603,-0.066
5.604,-0.066
5.605,-0.059
5.606,-0.058
5.607,-0.053
5.608,-0.053
5.609,-0.050
5.610,-0.047
5.611,-0.044
5.612,-0.041
5.613,-0.041
5.614,-0.041
5.615,-0.041
5.616,-0.034
5.617,-0.028
5.618,-0.024
5.619,-0.019
5.620,-0.023
5.621,-0.028
5.622,-0.031
5.623,-0.034
5.624,-0.038
5.625,-0.038
5.626,-0.034
5.627,-0.034
5.628,-0.036
5.629,-0.034
5.630,-0.031
5.631,-0.028
5.632,-0.028
5.633,-0.028
5.634,-0.021
5.635,-0.019
5.636,-0.017
5.637,-0.019
5.638,-0.022
5.639,-0.022
5.640,-0.019
5.641,-0.016
5.642,-0.011
5.643,-0.006
5.644,-0.004
5.645,-0.003
5.646,0.000
5.647,0.003
5.648,0.002
5.649,0.000
5.650,0.000
5.651,0.000
5.652,-0.001
5.653,0.000
5.654,0.004
5.655,0.006
5.656,0.012
5.657,0.016
5.658,0.019
5.659,0.019
5.660,0.016
5.661,0.016
5.662,0.019
5.663,0.022
5.664,0.022
5.665,0.022
5.666,0.024
5.667,0.025
5.668,0.029
5.669,0.034
5.670,0.033
5.671,0.034
5.672,0.039
5.673,0.044
5.674,0.050
5.675,0.059
5.676,0.056
5.677,0.059
5.678,0.058
5.679,0.056
5.680,0.053
5.681,0.044
5.682,0.046
5.683,0.044
5.684,0.050
5.685,0.056
5.686,0.055
5.687,0.053
5.688,0.053
5.689,0.053
5.690,0.054
5.691,0.056
5.692,0.056
5.693,0.056
5.694,0.058
5.695,0.056
5.696,0.058
5.697,0.056
5.698,0.062
5.699,0.066
5.700,0.064
5.701,0.062
5.702,0.064
5.703,0.062
5.704,0.062
5.705,0.062
5.706,0.064
5.707,0.062
5.708,0.066
5.709,0.072
5.710,0.072
5.711,0.072
5.712,0.068
5.713,0.066
5.714,0.069
5.715,0.072
5.716,0.067
5.717,0.069
5.718,0.069
5.719,0.062
5.720,0.061
5.721,0.059
5.722,0.061
5.723,0.066
5.724,0.064
5.725,0.066
5.726,0.066
5.727,0.062
5.728,0.069
5.729,0.069
5.730,0.073
5.731,0.081
5.732,0.078
5.733,0.075
5.734,0.069
5.735,0.066
5.736,0.061
5.737,0.056
5.738,0.052
5.739,0.053
5.740,0.054
5.741,0.056
5.742,0.055
5.743,0.053
5.744,0.052
5.745,0.053
5.746,0.053
5.747,0.053
5.748,0.053
5.749,0.053
5.750,0.054
5.751,0.059
5.752,0.066
5.753,0.072
5.754,0.075
5.755,0.075
5.756,0.074
5.757,0.075
5.758,0.077
5.759,0.075
5.760,0.076
5.761,0.078
5.762,0.077
5.763,0.078
5.764,0.081
5.765,0.084
5.766,0.086
5.767,0.091
5.768,0.094
5.769,0.097
5.770,0.091
5.771,0.091
5.772,0.091
5.773,0.087
5.774,0.086
5.775,0.087
5.776,0.089
5.777,0.087
5.778,0.087
5.779,0.084
5.780,0.082
5.781,0.084
5.782,0.080
5.783,0.072
5.784,0.072
5.785,0.072
5.786,0.070
5.787,0.069
5.788,0.067
5.789,0.066
5.790,0.061
5.791,0.062
5.792,0.067
5.793,0.072
5.794,0.062
5.795,0.062
5.796,0.058
5.797,0.047
5.798,0.039
5.799,0.031
5.800,0.024
5.801,0.012
5.802,0.012
5.803,0.009
5.804,0.006
5.805,0.003
5.806,0.000
5.807,-0.006
5.808,-0.009
5.809,-0.016
5.810,-0.014
5.811,-0.019
5.812,-0.016
5.813,-0.016
5.814,-0.020
5.815,-0.025
5.816,-0.024
5.817,-0.028
5.818,-0.028
5.819,-0.031
5.820,-0.031
5.821,-0.031
5.822,-0.036
5.823,-0.038
5.824,-0.044
5.825,-0.050
5.826,-0.046
5.827,-0.047
5.828,-0.050
5.829,-0.050
5.830,-0.050
5.831,-0.053
5.832,-0.052
5.833,-0.050
5.834,-0.056
5.835,-0.059
5.836,-0.059
5.837,-0.063
5.838,-0.064
5.839,-0.066
5.840,-0.069
5.841,-0.069
5.842,-0.072
5.843,-0.075
5.844,-0.073
5.845,-0.075
5.846,-0.075
5.847,-0.075
5.848,-0.072
5.849,-0.075
5.850,-0.072
5.851,-0.072
5.852,-0.071
5.853,-0.069
5.854,-0.069
5.855,-0.072
5.856,-0.069
5.857,-0.072
5.858,-0.069
5.859,-0.069
5.860,-0.064
5.861,-0.059
5.862,-0.052
5.863,-0.050
5.864,-0.050
5.865,-0.053
5.866,-0.047
5.867,-0.050
5.868,-0.054
5.869,-0.056
5.870,-0.058
5.871,-0.066
5.872,-0.066
5.873,-0.066
5.874,-0.063
5.875,-0.056
5.876,-0.059
5.877,-0.059
5.878,-0.058
5.879,-0.059
5.880,-0.061
5.881,-0.063
5.882,-0.063
5.883,-0.063
5.884,-0.059
5.885,-0.056
5.886,-0.052
5.887,-0.050
5.888,-0.046
5.889,-0.044
5.890,-0.041
5.891,-0.041
5.892,-0.039
5.893,-0.044
5.894,-0.041
5.895,-0.041
5.896,-0.036
5.897,-0.034
5.898,-0.036
5.899,-0.038
5.900,-0.038
5.901,-0.038
5.902,-0.034
5.903,-0.034
5.904,-0.034
5.905,-0.034
5.906,-0.038
5.907,-0.038
5.908,-0.034
5.909,-0.031
5.910,-0.033
5.911,-0.031
5.912,-0.031
5.913,-0.031
5.914,-0.028
5.915,-0.031
5.916,-0.028
5.917,-0.022
5.918,-0.025
5.919,-0.025
5.920,-0.026
5.921,-0.031
5.922,-0.031
5.923,-0.034
5.924,-0.033
5.925,-0.034
5.926,-0.033
5.927,-0.025
5.928,-0.022
5.929,-0.022
5.930,-0.026
5.931,-0.028
5.932,-0.034
5.933,-0.041
5.934,-0.044
5.935,-0.047
5.936,-0.048
5.937,-0.050
5.938,-0.054
5.939,-0.053
5.940,-0.056
5.941,-0.053
5.942,-0.052
5.943,-0.053
5.944,-0.050
5.945,-0.053
5.946,-0.051
5.947,-0.053
5.948,-0.049
5.949,-0.050
5.950,-0.046
5.951,-0.038
5.952,-0.036
5.953,-0.034
5.954,-0.039
5.955,-0.041
5.956,-0.042
5.957,-0.044
5.958,-0.048
5.959,-0.050
5.960,-0.050
5.961,-0.053
5.962,-0.051
5.963,-0.056
5.964,-0.063
5.965,-0.063
5.966,-0.061
5.967,-0.063
5.968,-0.059
5.969,-0.056
5.970,-0.058
5.971,-0.056
5.972,-0.055
5.973,-0.056
5.974,-0.063
5.975,-0.063
5.976,-0.059
5.977,-0.059
5.978,-0.056
5.979,-0.056
5.980,-0.059
5.981,-0.056
5.982,-0.061
5.983,-0.066
5.984,-0.067
5.985,-0.069
5.986,-0.068
5.987,-0.066
5.988,-0.069
5.989,-0.069
5.990,-0.066
5.991,-0.069
5.992,-0.069
5.993,-0.066
5.994,-0.068
5.995,-0.066
5.996,-0.067
5.997,-0.069
5.998,-0.069
5.999,-0.072
6.000,-0.075
6.001,-0.075
6.002,-0.066
6.003,-0.059
6.004,-0.063
6.005,-0.063
6.006,-0.066
6.007,-0.069
6.008,-0.076
6.009,-0.084
6.010,-0.089
6.011,-0.091
6.012,-0.094
6.013,-0.094
6.014,-0.091
6.015,-0.084
6.016,-0.084
6.017,-0.084
6.018,-0.082
6.019,-0.087
6.020,-0.092
6.021,-0.100
6.022,-0.096
6.023,-0.094
6.024,-0.089
6.025,-0.091
6.026,-0.091
6.027,-0.091
6.028,-0.091
6.029,-0.087
6.030,-0.091
6.031,-0.091
6.032,-0.091
6.033,-0.091
6.034,-0.089
6.035,-0.087
6.036,-0.084
6.037,-0.087
6.038,-0.087
6.039,-0.087
6.040,-0.089
6.041,-0.084
6.042,-0.084
6.043,-0.084
6.044,-0.086
6.045,-0.084
6.046,-0.086
6.047,-0.084
6.048,-0.086
6.049,-0.087
6.050,-0.092
6.051,-0.091
6.052,-0.091
6.053,-0.091
6.054,-0.091
6.055,-0.094
6.056,-0.095
6.057,-0.094
6.058,-0.091
6.059,-0.094
6.060,-0.094
6.061,-0.091
6.062,-0.089
6.063,-0.091
6.064,-0.091
6.065,-0.091
6.066,-0.087
6.067,-0.084
6.068,-0.081
6.069,-0.084
6.070,-0.084
6.071,-0.084
6.072,-0.089
6.073,-0.094
6.074,-0.097
6.075,-0.100
6.076,-0.094
6.077,-0.087
6.078,-0.083
6.079,-0.081
6.080,-0.081
6.081,-0.084
6.082,-0.082
6.083,-0.087
6.084,-0.094
6.085,-0.097
6.086,-0.098
6.087,-0.103
6.088,-0.101
6.089,-0.103
6.090,-0.101
6.091,-0.103
6.092,-0.100
6.093,-0.103
6.094,-0.103
6.095,-0.103
6.096,-0.098
6.097,-0.103
6.098,-0.104
6.099,-0.103
6.100,-0.102
6.101,-0.097
6.102,-0.094
6.103,-0.094
6.104,-0.092
6.105,-0.094
6.106,-0.098
6.107,-0.103
6.108,-0.103
6.109,-0.103
6.110,-0.102
6.111,-0.100
6.112,-0.094
6.113,-0.091
6.114,-0.087
6.115,-0.087
6.116,-0.087
6.117,-0.091
6.118,-0.084
6.119,-0.081
6.120,-0.081
6.121,-0.081
6.122,-0.077
6.123,-0.081
6.124,-0.083
6.125,-0.084
6.126,-0.089
6.127,-0.091
6.128,-0.091
6.129,-0.091
6.130,-0.094
6.131,-0.094
6.132,-0.091
6.133,-0.094
6.134,-0.089
6.135,-0.091
6.136,-0.091
6.137,-0.091
6.138,-0.092
6.139,-0.094
6.140,-0.091
6.141,-0.091
6.142,-0.089
6.143,-0.084
6.144,-0.087
6.145,-0.087
6.146,-0.092
6.147,-0.094
6.148,-0.091
6.149,-0.094
6.150,-0.092
6.151,-0.087
6.152,-0.087
6.153,-0.091
6.154,-0.086
6.155,-0.075
6.156,-0.074
6.157,-0.075
6.158,-0.079
6.159,-0.084
6.160,-0.089
6.161,-0.091
6.162,-0.091
6.163,-0.091
6.164,-0.092
6.165,-0.094
6.166,-0.094
6.167,-0.094
6.168,-0.091
6.169,-0.091
6.170,-0.089
6.171,-0.091
6.172,-0.092
6.173,-0.097
6.174,-0.100
6.175,-0.103
6.176,-0.099
6.177,-0.097
6.178,-0.094
6.179,-0.091
6.180,-0.087
6.181,-0.087
6.182,-0.091
6.183,-0.094
6.184,-0.097
6.185,-0.097
6.186,-0.089
6.187,-0.084
6.188,-0.078
6.189,-0.075
6.190,-0.069
6.191,-0.063
6.192,-0.055
6.193,-0.047
6.194,-0.039
6.195,-0.034
6.196,-0.033
6.197,-0.034
6.198,-0.033
6.199,-0.031
6.200,-0.028
6.201,-0.025
6.202,-0.019
6.203,-0.019
6.204,-0.019
6.205,-0.019
6.206,-0.026
6.207,-0.031
6.208,-0.036
6.209,-0.038
6.210,-0.034
6.211,-0.028
6.212,-0.021
6.213,-0.016
6.214,-0.009
6.215,0.000
6.216,0.006
6.217,0.012
6.218,0.020
6.219,0.019
6.220,0.016
6.221,0.012
6.222,0.017
6.223,0.022
6.224,0.029
6.225,0.034
6.226,0.037
6.227,0.034
6.228,0.036
6.229,0.034
6.230,0.041
6.231,0.050
6.232,0.049
6.233,0.044
6.234,0.034
6.235,0.025
6.236,0.017
6.237,0.006
6.238,0.000
6.239,-0.003
6.240,0.001
6.241,0.006
6.242,0.009
6.243,0.009
6.244,0.006
6.245,0.006
6.246,0.002
6.247,-0.003
6.248,-0.004
6.249,-0.006
6.250,-0.008
6.251,-0.009
6.252,-0.008
6.253,-0.006
6.254,-0.006
6.255,-0.009
6.256,-0.023
6.257,-0.038
6.258,-0.047
6.259,-0.053
6.260,-0.061
6.261,-0.069
6.262,-0.071
6.263,-0.072
6.264,-0.074
6.265,-0.075
6.266,-0.074
6.267,-0.075
6.268,-0.076
6.269,-0.081
6.270,-0.084
6.271,-0.084
6.272,-0.084
6.273,-0.084
6.274,-0.087
6.275,-0.091
6.276,-0.094
6.277,-0.094
6.278,-0.098
6.279,-0.100
6.280,-0.100
6.281,-0.100
6.282,-0.102
6.283,-0.103
6.284,-0.103
6.285,-0.103
6.286,-0.103
6.287,-0.103
6.288,-0.106
6.289,-0.106
6.290,-0.108
6.291,-0.106
6.292,-0.106
6.293,-0.109
6.294,-0.109
6.295,-0.109
6.296,-0.109
6.297,-0.109
6.298,-0.108
6.299,-0.106
6.300,-0.109
6.301,-0.106
6.302,-0.108
6.303,-0.106
6.304,-0.109
6.305,-0.109
6.306,-0.108
6.307,-0.106
6.308,-0.109
6.309,-0.109
6.310,-0.108
6.311,-0.103
6.312,-0.106
6.313,-0.103
6.314,-0.103
6.315,-0.103
6.316,-0.103
6.317,-0.103
6.318,-0.102
6.319,-0.103
6.320,-0.103
6.321,-0.103
6.322,-0.103
6.323,-0.103
6.324,-0.106
6.325,-0.109
6.326,-0.114
6.327,-0.116
6.328,-0.127
6.329,-0.141
6.330,-0.153
6.331,-0.172
6.332,-0.191
6.333,-0.213
6.334,-0.242
6.335,-0.263
6.336,-0.276
6.337,-0.275
6.338,-0.270
6.339,-0.259
6.340,-0.247
6.341,-0.225
6.342,-0.191
6.343,-0.153
6.344,-0.120
6.345,-0.094
6.346,-0.063
6.347,-0.022
6.348,0.036
6.349,0.106
6.350,0.172
6.351,0.244
6.352,0.322
6.353,0.419
6.354,0.523
6.355,0.641
6.356,0.749
6.357,0.856
6.358,0.958
6.359,1.056
6.360,1.162
6.361,1.256
6.362,1.369
6.363,1.487
6.364,1.581
6.365,1.641
6.366,1.644
6.367,1.581
6.368,1.523
6.369,1.419
6.370,1.316
6.371,1.212
6.372,1.105
6.373,0.984
6.374,0.870
6.375,0.759
6.376,0.650
6.377,0.547
6.378,0.450
6.379,0.359
6.380,0.273
6.381,0.197
6.382,0.116
6.383,0.050
6.384,-0.012
6.385,-0.063
6.386,-0.105
6.387,-0.125
6.388,-0.141
6.389,-0.141
6.390,-0.128
6.391,-0.109
6.392,-0.081
6.393,-0.053
6.394,-0.027
6.395,-0.003
6.396,0.012
6.397,0.022
6.398,0.034
6.399,0.044
6.400,0.047
6.401,0.047
6.402,0.048
6.403,0.047
6.404,0.042
6.405,0.037
6.406,0.039
6.407,0.037
6.408,0.031
6.409,0.025
6.410,0.014
6.411,0.006
6.412,0.001
6.413,-0.003
6.414,-0.008
6.415,-0.009
6.416,-0.012
6.417,-0.012
6.418,-0.014
6.419,-0.012
6.420,-0.016
6.421,-0.016
6.422,-0.012
6.423,-0.012
6.424,-0.012
6.425,-0.012
6.426,-0.016
6.427,-0.016
6.428,-0.009
6.429,-0.003
6.430,0.000
6.431,0.006
6.432,0.003
6.433,0.000
6.434,-0.003
6.435,-0.006
6.436,-0.014
6.437,-0.022
6.438,-0.025
6.439,-0.028
6.440,-0.028
6.441,-0.028
6.442,-0.029
6.443,-0.031
6.444,-0.027
6.445,-0.028
6.446,-0.025
6.447,-0.019
6.448,-0.022
6.449,-0.019
6.450,-0.019
6.451,-0.019
6.452,-0.016
6.453,-0.016
6.454,-0.014
6.455,-0.012
6.456,-0.012
6.457,-0.009
6.458,-0.003
6.459,-0.003
6.460,0.001
6.461,0.003
6.462,-0.001
6.463,0.000
6.464,-0.001
6.465,-0.009
6.466,-0.007
6.467,-0.009
6.468,-0.005
6.469,-0.003
6.470,-0.001
6.471,-0.003
6.472,-0.003
6.473,0.000
6.474,0.000
6.475,0.000
6.476,-0.001
6.477,0.000
6.478,0.003
6.479,0.003
6.480,0.002
6.481,0.000
6.482,0.001
6.483,0.003
6.484,0.004
6.485,0.006
6.486,0.008
6.487,0.009
6.488,0.009
6.489,0.009
6.490,0.011
6.491,0.009
6.492,0.009
6.493,0.009
6.494,0.008
6.495,0.012
6.496,0.020
6.497,0.031
6.498,0.031
6.499,0.031
6.500,0.034
6.501,0.034
6.502,0.034
6.503,0.037
6.504,0.037
6.505,0.037
6.506,0.037
6.507,0.034
6.508,0.034
6.509,0.034
6.510,0.034
6.511,0.037
6.512,0.044
6.513,0.047
6.514,0.049
6.515,0.050
6.516,0.049
6.517,0.050
6.518,0.049
6.519,0.050
6.520,0.054
6.521,0.059
6.522,0.062
6.523,0.066
6.524,0.069
6.525,0.069
6.526,0.064
6.527,0.062
6.528,0.062
6.529,0.062
6.530,0.064
6.531,0.062
6.532,0.066
6.533,0.066
6.534,0.072
6.535,0.078
6.536,0.084
6.537,0.084
6.538,0.086
6.539,0.084
6.540,0.086
6.541,0.091
6.542,0.087
6.543,0.091
6.544,0.091
6.545,0.094
6.546,0.096
6.547,0.094
6.548,0.091
6.549,0.091
6.550,0.094
6.551,0.094
6.552,0.092
6.553,0.091
6.554,0.092
6.555,0.097
6.556,0.096
6.557,0.097
6.558,0.096
6.559,0.097
6.560,0.098
6.561,0.100
6.562,0.099
6.563,0.100
6.564,0.100
6.565,0.100
6.566,0.101
6.567,0.106
6.568,0.103
6.569,0.100
6.570,0.102
6.571,0.100
6.572,0.109
6.573,0.116
6.574,0.112
6.575,0.112
6.576,0.111
6.577,0.100
6.578,0.099
6.579,0.100
6.580,0.094
6.581,0.091
6.582,0.089
6.583,0.087
6.584,0.094
6.585,0.094
6.586,0.095
6.587,0.097
6.588,0.091
6.589,0.091
6.590,0.087
6.591,0.087
6.592,0.091
6.593,0.091
6.594,0.094
6.595,0.094
6.596,0.094
6.597,0.094
6.598,0.087
6.599,0.078
6.600,0.077
6.601,0.072
6.602,0.072
6.603,0.072
6.604,0.069
6.605,0.066
6.606,0.068
6.607,0.066
6.608,0.069
6.609,0.072
6.610,0.075
6.611,0.078
6.612,0.081
6.613,0.084
6.614,0.089
6.615,0.094
6.616,0.091
6.617,0.087
6.618,0.089
6.619,0.091
6.620,0.091
6.621,0.091
6.622,0.095
6.623,0.100
6.624,0.107
6.625,0.116
6.626,0.119
6.627,0.116
6.628,0.111
6.629,0.106
6.630,0.106
6.631,0.103
6.632,0.106
6.633,0.106
6.634,0.104
6.635,0.103
6.636,0.107
6.637,0.112
6.638,0.109
6.639,0.109
6.640,0.105
6.641,0.100
6.642,0.099
6.643,0.094
6.644,0.087
6.645,0.087
6.646,0.091
6.647,0.091
6.648,0.089
6.649,0.087
6.650,0.084
6.651,0.078
6.652,0.075
6.653,0.069
6.654,0.070
6.655,0.066
6.656,0.066
6.657,0.066
6.658,0.064
6.659,0.062
6.660,0.061
6.661,0.062
6.662,0.055
6.663,0.050
6.664,0.044
6.665,0.041
6.666,0.036
6.667,0.031
6.668,0.026
6.669,0.025
6.670,0.017
6.671,0.016
6.672,0.008
6.673,0.006
6.674,0.000
6.675,-0.006
6.676,-0.009
6.677,-0.009
6.678,-0.014
6.679,-0.012
6.680,-0.016
6.681,-0.016
6.682,-0.016
6.683,-0.022
6.684,-0.025
6.685,-0.025
6.686,-0.019
6.687,-0.012
6.688,-0.018
6.689,-0.022
6.690,-0.033
6.691,-0.041
6.692,-0.050
6.693,-0.056
6.694,-0.058
6.695,-0.063
6.696,-0.058
6.697,-0.053
6.698,-0.055
6.699,-0.053
6.700,-0.054
6.701,-0.059
6.702,-0.061
6.703,-0.063
6.704,-0.066
6.705,-0.066
6.706,-0.064
6.707,-0.063
6.708,-0.063
6.709,-0.059
6.710,-0.064
6.711,-0.063
6.712,-0.063
6.713,-0.063
6.714,-0.059
6.715,-0.056
6.716,-0.056
6.717,-0.050
6.718,-0.054
6.719,-0.053
6.720,-0.054
6.721,-0.056
6.722,-0.058
6.723,-0.056
6.724,-0.058
6.725,-0.053
6.726,-0.054
6.727,-0.047
6.728,-0.046
6.729,-0.047
6.730,-0.048
6.731,-0.047
6.732,-0.050
6.733,-0.050
6.734,-0.049
6.735,-0.050
6.736,-0.046
6.737,-0.041
6.738,-0.039
6.739,-0.038
6.740,-0.039
6.741,-0.041
6.742,-0.041
6.743,-0.041
6.744,-0.045
6.745,-0.047
6.746,-0.047
6.747,-0.047
6.748,-0.044
6.749,-0.041
6.750,-0.041
6.751,-0.034
6.752,-0.033
6.753,-0.028
6.754,-0.031
6.755,-0.028
6.756,-0.029
6.757,-0.028
6.758,-0.022
6.759,-0.016
6.760,-0.016
6.761,-0.016
6.762,-0.017
6.763,-0.016
6.764,-0.019
6.765,-0.022
6.766,-0.022
6.767,-0.025
6.768,-0.026
6.769,-0.028
6.770,-0.029
6.771,-0.031
6.772,-0.028
6.773,-0.028
6.774,-0.028
6.775,-0.028
6.776,-0.030
6.777,-0.025
6.778,-0.021
6.779,-0.019
6.780,-0.016
6.781,-0.016
6.782,-0.022
6.783,-0.025
6.784,-0.031
6.785,-0.031
6.786,-0.030
6.787,-0.031
6.788,-0.027
6.789,-0.025
6.790,-0.027
6.791,-0.028
6.792,-0.029
6.793,-0.031
6.794,-0.031
6.795,-0.031
6.796,-0.031
6.797,-0.031
6.798,-0.033
6.799,-0.038
6.800,-0.034
6.801,-0.038
6.802,-0.033
6.803,-0.031
6.804,-0.033
6.805,-0.031
6.806,-0.039
6.807,-0.038
6.808,-0.038
6.809,-0.034
6.810,-0.034
6.811,-0.031
6.812,-0.027
6.813,-0.028
6.814,-0.030
6.815,-0.031
6.816,-0.033
6.817,-0.034
6.818,-0.036
6.819,-0.038
6.820,-0.039
6.821,-0.044
6.822,-0.041
6.823,-0.031
6.824,-0.031
6.825,-0.031
6.826,-0.033
6.827,-0.038
6.828,-0.045
6.829,-0.050
6.830,-0.053
6.831,-0.059
6.832,-0.063
6.833,-0.066
6.834,-0.068
6.835,-0.069
6.836,-0.064
6.837,-0.063
6.838,-0.067
6.839,-0.066
6.840,-0.064
6.841,-0.066
6.842,-0.063
6.843,-0.066
6.844,-0.064
6.845,-0.059
6.846,-0.059
6.847,-0.059
6.848,-0.059
6.849,-0.063
6.850,-0.063
6.851,-0.059
6.852,-0.063
6.853,-0.066
6.854,-0.066
6.855,-0.069
6.856,-0.069
6.857,-0.069
6.858,-0.070
6.859,-0.069
6.860,-0.069
6.861,-0.072
6.862,-0.072
6.863,-0.072
6.864,-0.079
6.865,-0.084
6.866,-0.082
6.867,-0.084
6.868,-0.081
6.869,-0.081
6.870,-0.081
6.871,-0.081
6.872,-0.080
6.873,-0.081
6.874,-0.081
6.875,-0.081
6.876,-0.079
6.877,-0.081
6.878,-0.081
6.879,-0.078
6.880,-0.080
6.881,-0.078
6.882,-0.080
6.883,-0.078
6.884,-0.084
6.885,-0.084
6.886,-0.087
6.887,-0.087
6.888,-0.089
6.889,-0.091
6.890,-0.087
6.891,-0.091
6.892,-0.089
6.893,-0.087
6.894,-0.091
6.895,-0.094
6.896,-0.095
6.897,-0.094
6.898,-0.094
6.899,-0.091
6.900,-0.089
6.901,-0.091
6.902,-0.087
6.903,-0.087
6.904,-0.086
6.905,-0.087
6.906,-0.087
6.907,-0.091
6.908,-0.091
6.909,-0.091
6.910,-0.087
6.911,-0.087
6.912,-0.086
6.913,-0.087
6.914,-0.091
6.915,-0.094
6.916,-0.098
6.917,-0.100
6.918,-0.097
6.919,-0.094
6.920,-0.097
6.921,-0.097
6.922,-0.094
6.923,-0.094
6.924,-0.098
6.925,-0.100
6.926,-0.101
6.927,-0.103
6.928,-0.106
6.929,-0.106
6.930,-0.108
6.931,-0.106
6.932,-0.103
6.933,-0.100
6.934,-0.100
6.935,-0.100
6.936,-0.101
6.937,-0.103
6.938,-0.103
6.939,-0.103
6.940,-0.108
6.941,-0.106
6.942,-0.106
6.943,-0.103
6.944,-0.102
6.945,-0.097
6.946,-0.097
6.947,-0.100
6.948,-0.106
6.949,-0.106
6.950,-0.109
6.951,-0.109
6.952,-0.109
6.953,-0.106
6.954,-0.109
6.955,-0.109
6.956,-0.113
6.957,-0.109
6.958,-0.111
6.959,-0.109
6.960,-0.108
6.961,-0.109
6.962,-0.108
6.963,-0.106
6.964,-0.105
6.965,-0.103
6.966,-0.102
6.967,-0.100
6.968,-0.103
6.969,-0.103
6.970,-0.103
6.971,-0.103
6.972,-0.104
6.973,-0.100
6.974,-0.101
6.975,-0.103
6.976,-0.104
6.977,-0.103
6.978,-0.099
6.979,-0.094
6.980,-0.097
6.981,-0.094
6.982,-0.097
6.983,-0.097
6.984,-0.103
6.985,-0.113
6.986,-0.120
6.987,-0.122
6.988,-0.121
6.989,-0.119
6.990,-0.116
6.991,-0.119
6.992,-0.118
6.993,-0.119
6.994,-0.119
6.995,-0.116
6.996,-0.114
6.997,-0.109
6.998,-0.102
6.999,-0.097
7.000,-0.100
7.001,-0.100
7.002,-0.098
7.003,-0.103
7.004,-0.106
7.005,-0.106
7.006,-0.106
7.007,-0.109
7.008,-0.116
7.009,-0.122
7.010,-0.122
7.011,-0.122
7.012,-0.119
7.013,-0.116
7.014,-0.117
7.015,-0.119
7.016,-0.122
7.017,-0.119
7.018,-0.118
7.019,-0.116
7.020,-0.119
7.021,-0.119
7.022,-0.116
7.023,-0.113
7.024,-0.113
7.025,-0.109
7.026,-0.113
7.027,-0.113
7.028,-0.113
7.029,-0.113
7.030,-0.113
7.031,-0.113
7.032,-0.109
7.033,-0.106
7.034,-0.106
7.035,-0.100
7.036,-0.098
7.037,-0.094
7.038,-0.087
7.039,-0.081
7.040,-0.076
7.041,-0.072
7.042,-0.070
7.043,-0.066
7.044,-0.058
7.045,-0.050
7.046,-0.046
7.047,-0.041
7.048,-0.038
7.049,-0.031
7.050,-0.033
7.051,-0.034
7.052,-0.034
7.053,-0.041
7.054,-0.044
7.055,-0.047
7.056,-0.047
7.057,-0.047
7.058,-0.050
7.059,-0.050
7.060,-0.044
7.061,-0.034
7.062,-0.026
7.063,-0.022
7.064,-0.014
7.065,-0.006
7.066,-0.002
7.067,0.006
7.068,0.006
7.069,0.009
7.070,0.014
7.071,0.022
7.072,0.025
7.073,0.028
7.074,0.026
7.075,0.028
7.076,0.024
7.077,0.016
7.078,0.006
7.079,0.000
7.080,-0.006
7.081,-0.012
7.082,-0.016
7.083,-0.016
7.084,-0.016
7.085,-0.016
7.086,-0.016
7.087,-0.016
7.088,-0.016
7.089,-0.016
7.090,-0.018
7.091,-0.019
7.092,-0.020
7.093,-0.025
7.094,-0.027
7.095,-0.025
7.096,-0.025
7.097,-0.028
7.098,-0.031
7.099,-0.031
7.100,-0.033
7.101,-0.038
7.102,-0.043
7.103,-0.053
7.104,-0.064
7.105,-0.072
7.106,-0.081
7.107,-0.091
7.108,-0.096
7.109,-0.097
7.110,-0.101
7.111,-0.106
7.112,-0.109
7.113,-0.109
7.114,-0.114
7.115,-0.116
7.116,-0.114
7.117,-0.113
7.118,-0.113
7.119,-0.113
7.120,-0.113
7.121,-0.113
7.122,-0.113
7.123,-0.116
7.124,-0.116
7.125,-0.119
7.126,-0.119
7.127,-0.119
7.128,-0.122
7.129,-0.128
7.130,-0.130
7.131,-0.128
7.132,-0.131
7.133,-0.134
7.134,-0.131
7.135,-0.131
7.136,-0.133
7.137,-0.134
7.138,-0.133
7.139,-0.134
7.140,-0.138
7.141,-0.138
7.142,-0.136
7.143,-0.134
7.144,-0.134
7.145,-0.134
7.146,-0.133
7.147,-0.134
7.148,-0.127
7.149,-0.125
7.150,-0.124
7.151,-0.125
7.152,-0.125
7.153,-0.125
7.154,-0.125
7.155,-0.128
7.156,-0.134
7.157,-0.141
7.158,-0.138
7.159,-0.141
7.160,-0.141
7.161,-0.144
7.162,-0.144
7.163,-0.144
7.164,-0.143
7.165,-0.141
7.166,-0.143
7.167,-0.141
7.168,-0.144
7.169,-0.147
7.170,-0.146
7.171,-0.144
7.172,-0.138
7.173,-0.138
7.174,-0.139
7.175,-0.150
7.176,-0.170
7.177,-0.191
7.178,-0.219
7.179,-0.250
7.180,-0.277
7.181,-0.303
7.182,-0.318
7.183,-0.325
7.184,-0.322
7.185,-0.313
7.186,-0.288
7.187,-0.263
7.188,-0.234
7.189,-0.200
7.190,-0.167
7.191,-0.134
7.192,-0.103
7.193,-0.069
7.194,-0.024
7.195,0.028
7.196,0.092
7.197,0.159
7.198,0.231
7.199,0.306
7.200,0.398
7.201,0.500
7.202,0.608
7.203,0.713
7.204,0.817
7.205,0.919
7.206,1.011
7.207,1.106
7.208,1.200
7.209,1.303
7.210,1.408
7.211,1.513
7.212,1.566
7.213,1.584
7.214,1.527
7.215,1.434
7.216,1.325
7.217,1.222
7.218,1.116
7.219,1.006
7.220,0.883
7.221,0.756
7.222,0.645
7.223,0.534
7.224,0.445
7.225,0.362
7.226,0.291
7.227,0.222
7.228,0.151
7.229,0.087
7.230,0.026
7.231,-0.034
7.232,-0.086
7.233,-0.131
7.234,-0.161
7.235,-0.181
7.236,-0.188
7.237,-0.188
7.238,-0.172
7.239,-0.150
7.240,-0.121
7.241,-0.091
7.242,-0.068
7.243,-0.044
7.244,-0.030
7.245,-0.016
7.246,-0.005
7.247,0.003
7.248,0.006
7.249,0.006
7.250,0.004
7.251,0.003
7.252,0.001
7.253,0.003
7.254,0.009
7.255,0.012
7.256,0.009
7.257,0.006
7.258,0.000
7.259,-0.009
7.260,-0.020
7.261,-0.031
7.262,-0.038
7.263,-0.044
7.264,-0.044
7.265,-0.047
7.266,-0.046
7.267,-0.047
7.268,-0.046
7.269,-0.044
7.270,-0.047
7.271,-0.047
7.272,-0.047
7.273,-0.050
7.274,-0.053
7.275,-0.053
7.276,-0.046
7.277,-0.044
7.278,-0.043
7.279,-0.041
7.280,-0.041
7.281,-0.041
7.282,-0.041
7.283,-0.041
7.284,-0.042
7.285,-0.044
7.286,-0.044
7.287,-0.044
7.288,-0.047
7.289,-0.050
7.290,-0.050
7.291,-0.047
7.292,-0.050
7.293,-0.050
7.294,-0.047
7.295,-0.050
7.296,-0.043
7.297,-0.038
7.298,-0.042
7.299,-0.041
7.300,-0.039
7.301,-0.041
7.302,-0.038
7.303,-0.038
7.304,-0.038
7.305,-0.034
7.306,-0.038
7.307,-0.034
7.308,-0.033
7.309,-0.034
7.310,-0.033
7.311,-0.031
7.312,-0.036
7.313,-0.034
7.314,-0.036
7.315,-0.034
7.316,-0.039
7.317,-0.041
7.318,-0.038
7.319,-0.034
7.320,-0.030
7.321,-0.028
7.322,-0.028
7.323,-0.028
7.324,-0.024
7.325,-0.019
7.326,-0.018
7.327,-0.016
7.328,-0.014
7.329,-0.012
7.330,-0.012
7.331,-0.012
7.332,-0.012
7.333,-0.009
7.334,0.000
7.335,0.006
7.336,0.009
7.337,0.016
7.338,0.016
7.339,0.016
7.340,0.011
7.341,0.006
7.342,0.006
7.343,0.000
7.344,0.002
7.345,0.000
7.346,0.001
7.347,0.006
7.348,0.011
7.349,0.016
7.350,0.017
7.351,0.019
7.352,0.022
7.353,0.025
7.354,0.025
7.355,0.025
7.356,0.026
7.357,0.028
7.358,0.030
7.359,0.031
7.360,0.030
7.361,0.031
7.362,0.036
7.363,0.037
7.364,0.041
7.365,0.041
7.366,0.042
7.367,0.041
7.368,0.041
7.369,0.044
7.370,0.046
7.371,0.047
7.372,0.050
7.373,0.053
7.374,0.055
7.375,0.056
7.376,0.056
7.377,0.056
7.378,0.055
7.379,0.056
7.380,0.059
7.381,0.062
7.382,0.062
7.383,0.066
7.384,0.064
7.385,0.069
7.386,0.068
7.387,0.066
7.388,0.069
7.389,0.066
7.390,0.068
7.391,0.066
7.392,0.072
7.393,0.078
7.394,0.079
7.395,0.081
7.396,0.081
7.397,0.081
7.398,0.080
7.399,0.078
7.400,0.078
7.401,0.078
7.402,0.084
7.403,0.087
7.404,0.092
7.405,0.094
7.406,0.096
7.407,0.094
7.408,0.095
7.409,0.097
7.410,0.100
7.411,0.100
7.412,0.100
7.413,0.100
7.414,0.102
7.415,0.100
7.416,0.099
7.417,0.100
7.418,0.096
7.419,0.091
7.420,0.089
7.421,0.091
7.422,0.098
7.423,0.106
7.424,0.103
7.425,0.106
7.426,0.106
7.427,0.100
7.428,0.099
7.429,0.097
7.430,0.092
7.431,0.091
7.432,0.086
7.433,0.084
7.434,0.086
7.435,0.084
7.436,0.087
7.437,0.084
7.438,0.083
7.439,0.084
7.440,0.087
7.441,0.091
7.442,0.094
7.443,0.100
7.444,0.100
7.445,0.100
7.446,0.097
7.447,0.100
7.448,0.100
7.449,0.100
7.450,0.100
7.451,0.100
7.452,0.099
7.453,0.100
7.454,0.100
7.455,0.100
7.456,0.097
7.457,0.094
7.458,0.092
7.459,0.094
7.460,0.097
7.461,0.100
7.462,0.103
7.463,0.103
7.464,0.104
7.465,0.109
7.466,0.116
7.467,0.119
7.468,0.119
7.469,0.119
7.470,0.117
7.471,0.119
7.472,0.122
7.473,0.125
7.474,0.122
7.475,0.122
7.476,0.123
7.477,0.125
7.478,0.122
7.479,0.125
7.480,0.128
7.481,0.128
7.482,0.124
7.483,0.122
7.484,0.119
7.485,0.112
7.486,0.114
7.487,0.112
7.488,0.109
7.489,0.109
7.490,0.107
7.491,0.103
7.492,0.097
7.493,0.091
7.494,0.089
7.495,0.087
7.496,0.087
7.497,0.087
7.498,0.081
7.499,0.081
7.500,0.075
7.501,0.069
7.502,0.062
7.503,0.066
7.504,0.069
7.505,0.066
7.506,0.064
7.507,0.062
7.508,0.056
7.509,0.047
7.510,0.041
7.511,0.031
7.512,0.028
7.513,0.025
7.514,0.026
7.515,0.025
7.516,0.022
7.517,0.016
7.518,0.016
7.519,0.009
7.520,0.008
7.521,0.003
7.522,-0.001
7.523,-0.006
7.524,-0.005
7.525,-0.009
7.526,-0.009
7.527,-0.012
7.528,-0.016
7.529,-0.019
7.530,-0.025
7.531,-0.028
7.532,-0.028
7.533,-0.028
7.534,-0.027
7.535,-0.031
7.536,-0.036
7.537,-0.038
7.538,-0.036
7.539,-0.038
7.540,-0.041
7.541,-0.044
7.542,-0.047
7.543,-0.047
7.544,-0.047
7.545,-0.050
7.546,-0.056
7.547,-0.063
7.548,-0.066
7.549,-0.066
7.550,-0.064
7.551,-0.063
7.552,-0.058
7.553,-0.056
7.554,-0.056
7.555,-0.056
7.556,-0.053
7.557,-0.056
7.558,-0.054
7.559,-0.056
7.560,-0.056
7.561,-0.056
7.562,-0.055
7.563,-0.056
7.564,-0.053
7.565,-0.056
7.566,-0.052
7.567,-0.050
7.568,-0.050
7.569,-0.050
7.570,-0.047
7.571,-0.050
7.572,-0.047
7.573,-0.047
7.574,-0.038
7.575,-0.038
7.576,-0.044
7.577,-0.047
7.578,-0.045
7.579,-0.050
7.580,-0.053
7.581,-0.056
7.582,-0.058
7.583,-0.056
7.584,-0.058
7.585,-0.056
7.586,-0.054
7.587,-0.056
7.588,-0.055
7.589,-0.053
7.590,-0.050
7.591,-0.047
7.592,-0.043
7.593,-0.038
7.594,-0.034
7.595,-0.034
7.596,-0.033
7.597,-0.034
7.598,-0.033
7.599,-0.034
7.600,-0.030
7.601,-0.031
7.602,-0.025
7.603,-0.022
7.604,-0.020
7.605,-0.022
7.606,-0.023
7.607,-0.025
7.608,-0.026
7.609,-0.028
7.610,-0.022
7.611,-0.019
7.612,-0.016
7.613,-0.012
7.614,-0.016
7.615,-0.016
7.616,-0.014
7.617,-0.012
7.618,-0.014
7.619,-0.012
7.620,-0.012
7.621,-0.012
7.622,-0.011
7.623,-0.016
7.624,-0.017
7.625,-0.016
7.626,-0.017
7.627,-0.016
7.628,-0.014
7.629,-0.016
7.630,-0.012
7.631,-0.012
7.632,-0.009
7.633,-0.009
7.634,-0.014
7.635,-0.012
7.636,-0.014
7.637,-0.019
7.638,-0.022
7.639,-0.022
7.640,-0.021
7.641,-0.019
7.642,-0.020
7.643,-0.022
7.644,-0.021
7.645,-0.019
7.646,-0.022
7.647,-0.019
7.648,-0.023
7.649,-0.022
7.650,-0.022
7.651,-0.025
7.652,-0.022
7.653,-0.025
7.654,-0.021
7.655,-0.019
7.656,-0.014
7.657,-0.016
7.658,-0.020
7.659,-0.022
7.660,-0.026
7.661,-0.031
7.662,-0.042
7.663,-0.050
7.664,-0.047
7.665,-0.044
7.666,-0.043
7.667,-0.038
7.668,-0.036
7.669,-0.038
7.670,-0.034
7.671,-0.038
7.672,-0.042
7.673,-0.041
7.674,-0.038
7.675,-0.038
7.676,-0.034
7.677,-0.031
7.678,-0.034
7.679,-0.034
7.680,-0.036
7.681,-0.041
7.682,-0.045
7.683,-0.044
7.684,-0.044
7.685,-0.047
7.686,-0.047
7.687,-0.050
7.688,-0.053
7.689,-0.050
7.690,-0.050
7.691,-0.050
7.692,-0.047
7.693,-0.044
7.694,-0.044
7.695,-0.044
7.696,-0.048
7.697,-0.050
7.698,-0.047
7.699,-0.050
7.700,-0.052
7.701,-0.050
7.702,-0.053
7.703,-0.053
7.704,-0.053
7.705,-0.053
7.706,-0.051
7.707,-0.053
7.708,-0.056
7.709,-0.056
7.710,-0.058
7.711,-0.063
7.712,-0.064
7.713,-0.063
7.714,-0.061
7.715,-0.059
7.716,-0.061
7.717,-0.063
7.718,-0.064
7.719,-0.063
7.720,-0.066
7.721,-0.066
7.722,-0.067
7.723,-0.066
7.724,-0.067
7.725,-0.069
7.726,-0.066
7.727,-0.069
7.728,-0.068
7.729,-0.069
7.730,-0.069
7.731,-0.072
7.732,-0.069
7.733,-0.072
7.734,-0.072
7.735,-0.072
7.736,-0.073
7.737,-0.072
7.738,-0.071
7.739,-0.066
7.740,-0.061
7.741,-0.056
7.742,-0.058
7.743,-0.059
7.744,-0.059
7.745,-0.066
7.746,-0.069
7.747,-0.072
7.748,-0.082
7.749,-0.087
7.750,-0.087
7.751,-0.087
7.752,-0.086
7.753,-0.081
7.754,-0.083
7.755,-0.081
7.756,-0.081
7.757,-0.081
7.758,-0.086
7.759,-0.084
7.760,-0.084
7.761,-0.084
7.762,-0.083
7.763,-0.084
7.764,-0.086
7.765,-0.084
7.766,-0.081
7.767,-0.084
7.768,-0.087
7.769,-0.087
7.770,-0.086
7.771,-0.087
7.772,-0.087
7.773,-0.087
7.774,-0.089
7.775,-0.091
7.776,-0.087
7.777,-0.091
7.778,-0.091
7.779,-0.091
7.780,-0.087
7.781,-0.084
7.782,-0.084
7.783,-0.084
7.784,-0.086
7.785,-0.087
7.786,-0.083
7.787,-0.081
7.788,-0.082
7.789,-0.087
7.790,-0.086
7.791,-0.091
7.792,-0.091
7.793,-0.087
7.794,-0.086
7.795,-0.087
7.796,-0.086
7.797,-0.087
7.798,-0.086
7.799,-0.087
7.800,-0.084
7.801,-0.087
7.802,-0.091
7.803,-0.094
7.804,-0.087
7.805,-0.091
7.806,-0.089
7.807,-0.091
7.808,-0.086
7.809,-0.087
7.810,-0.087
7.811,-0.087
7.812,-0.089
7.813,-0.091
7.814,-0.091
7.815,-0.094
7.816,-0.095
7.817,-0.094
7.818,-0.097
7.819,-0.097
7.820,-0.097
7.821,-0.094
7.822,-0.089
7.823,-0.091
7.824,-0.087
7.825,-0.081
7.826,-0.071
7.827,-0.063
7.828,-0.069
7.829,-0.069
7.830,-0.070
7.831,-0.075
7.832,-0.078
7.833,-0.081
7.834,-0.092
7.835,-0.100
7.836,-0.100
7.837,-0.100
7.838,-0.094
7.839,-0.087
7.840,-0.087
7.841,-0.087
7.842,-0.089
7.843,-0.094
7.844,-0.097
7.845,-0.103
7.846,-0.100
7.847,-0.100
7.848,-0.100
7.849,-0.100
7.850,-0.099
7.851,-0.100
7.852,-0.099
7.853,-0.097
7.854,-0.092
7.855,-0.091
7.856,-0.089
7.857,-0.087
7.858,-0.089
7.859,-0.087
7.860,-0.086
7.861,-0.087
7.862,-0.081
7.863,-0.078
7.864,-0.068
7.865,-0.056
7.866,-0.049
7.867,-0.041
7.868,-0.039
7.869,-0.041
7.870,-0.034
7.871,-0.031
7.872,-0.028
7.873,-0.025
7.874,-0.023
7.875,-0.022
7.876,-0.017
7.877,-0.019
7.878,-0.018
7.879,-0.016
7.880,-0.021
7.881,-0.022
7.882,-0.025
7.883,-0.025
7.884,-0.024
7.885,-0.019
7.886,-0.012
7.887,-0.009
7.888,-0.004
7.889,0.003
7.890,0.008
7.891,0.012
7.892,0.019
7.893,0.016
7.894,0.016
7.895,0.016
7.896,0.017
7.897,0.019
7.898,0.025
7.899,0.028
7.900,0.032
7.901,0.031
7.902,0.034
7.903,0.034
7.904,0.028
7.905,0.025
7.906,0.026
7.907,0.025
7.908,0.023
7.909,0.022
7.910,0.025
7.911,0.025
7.912,0.023
7.913,0.025
7.914,0.025
7.915,0.025
7.916,0.022
7.917,0.016
7.918,0.011
7.919,0.009
7.920,0.003
7.921,-0.003
7.922,-0.007
7.923,-0.012
7.924,-0.012
7.925,-0.012
7.926,-0.012
7.927,-0.012
7.928,-0.009
7.929,-0.009
7.930,-0.023
7.931,-0.038
7.932,-0.048
7.933,-0.056
7.934,-0.063
7.935,-0.069
7.936,-0.069
7.937,-0.069
7.938,-0.073
7.939,-0.078
7.940,-0.079
7.941,-0.084
7.942,-0.083
7.943,-0.084
7.944,-0.087
7.945,-0.087
7.946,-0.089
7.947,-0.091
7.948,-0.091
7.949,-0.091
7.950,-0.094
7.951,-0.094
7.952,-0.098
7.953,-0.100
7.954,-0.100
7.955,-0.100
7.956,-0.102
7.957,-0.103
7.958,-0.106
7.959,-0.109
7.960,-0.109
7.961,-0.109
7.962,-0.116
7.963,-0.119
7.964,-0.122
7.965,-0.122
7.966,-0.119
7.967,-0.119
7.968,-0.119
7.969,-0.119
7.970,-0.116
7.971,-0.113
7.972,-0.113
7.973,-0.113
7.974,-0.117
7.975,-0.116
7.976,-0.116
7.977,-0.113
7.978,-0.117
7.979,-0.119
7.980,-0.122
7.981,-0.125
7.982,-0.127
7.983,-0.125
7.984,-0.125
7.985,-0.122
7.986,-0.124
7.987,-0.119
7.988,-0.119
7.989,-0.119
7.990,-0.120
7.991,-0.122
7.992,-0.119
7.993,-0.119
7.994,-0.119
7.995,-0.119
7.996,-0.118
7.997,-0.116
7.998,-0.113
7.999,-0.109
8.000,-0.119
8.001,-0.125
8.002,-0.136
8.003,-0.150
8.004,-0.159
8.005,-0.175
8.006,-0.199
8.007,-0.225
8.008,-0.259
8.009,-0.284
8.010,-0.308
8.011,-0.316
8.012,-0.317
8.013,-0.313
8.014,-0.301
8.015,-0.281
8.016,-0.253
8.017,-0.222
8.018,-0.180
8.019,-0.144
8.020,-0.119
8.021,-0.084
8.022,-0.048
8.023,0.000
8.024,0.059
8.025,0.125
8.026,0.186
8.027,0.266
8.028,0.356
8.029,0.459
8.030,0.567
8.031,0.675
8.032,0.784
8.033,0.891
8.034,0.998
8.035,1.094
8.036,1.194
8.037,1.300
8.038,1.439
8.039,1.544
8.040,1.639
8.041,1.669
8.042,1.636
8.043,1.556
8.044,1.456
8.045,1.356
8.046,1.264
8.047,1.159
8.048,1.036
8.049,0.916
8.050,0.794
8.051,0.678
8.052,0.567
8.053,0.462
8.054,0.359
8.055,0.266
8.056,0.178
8.057,0.106
8.058,0.037
8.059,-0.019
8.060,-0.076
8.061,-0.113
8.062,-0.134
8.063,-0.141
8.064,-0.141
8.065,-0.134
8.066,-0.114
8.067,-0.094
8.068,-0.068
8.069,-0.044
8.070,-0.026
8.071,-0.016
8.072,0.001
8.073,0.016
8.074,0.029
8.075,0.041
8.076,0.042
8.077,0.041
8.078,0.041
8.079,0.041
8.080,0.044
8.081,0.044
8.082,0.034
8.083,0.025
8.084,0.012
8.085,0.003
8.086,-0.006
8.087,-0.016
8.088,-0.025
8.089,-0.031
8.090,-0.031
8.091,-0.028
8.092,-0.030
8.093,-0.028
8.094,-0.030
8.095,-0.028
8.096,-0.031
8.097,-0.038
8.098,-0.041
8.099,-0.044
8.100,-0.050
8.101,-0.053
8.102,-0.051
8.103,-0.050
8.104,-0.052
8.105,-0.050
8.106,-0.050
8.107,-0.050
8.108,-0.050
8.109,-0.050
8.110,-0.047
8.111,-0.044
8.112,-0.044
8.113,-0.044
8.114,-0.045
8.115,-0.047
8.116,-0.047
8.117,-0.047
8.118,-0.043
8.119,-0.044
8.120,-0.043
8.121,-0.038
8.122,-0.039
8.123,-0.034
8.124,-0.036
8.125,-0.038
8.126,-0.034
8.127,-0.034
8.128,-0.033
8.129,-0.031
8.130,-0.034
8.131,-0.034
8.132,-0.030
8.133,-0.031
8.134,-0.027
8.135,-0.025
8.136,-0.029
8.137,-0.028
8.138,-0.026
8.139,-0.031
8.140,-0.029
8.141,-0.031
8.142,-0.025
8.143,-0.022
8.144,-0.020
8.145,-0.022
8.146,-0.023
8.147,-0.022
8.148,-0.025
8.149,-0.028
8.150,-0.031
8.151,-0.031
8.152,-0.024
8.153,-0.019
8.154,-0.019
8.155,-0.019
8.156,-0.020
8.157,-0.022
8.158,-0.021
8.159,-0.019
8.160,-0.016
8.161,-0.012
8.162,-0.012
8.163,-0.012
8.164,-0.003
8.165,0.003
8.166,0.004
8.167,0.006
8.168,0.002
8.169,0.003
8.170,0.000
8.171,0.000
8.172,-0.004
8.173,-0.009
8.174,-0.006
8.175,-0.006
8.176,-0.002
8.177,0.006
8.178,0.006
8.179,0.006
8.180,0.009
8.181,0.009
8.182,0.009
8.183,0.009
8.184,0.011
8.185,0.016
8.186,0.023
8.187,0.028
8.188,0.030
8.189,0.031
8.190,0.030
8.191,0.031
8.192,0.030
8.193,0.031
8.194,0.031
8.195,0.031
8.196,0.033
8.197,0.034
8.198,0.037
8.199,0.037
8.200,0.039
8.201,0.044
8.202,0.048
8.203,0.053
8.204,0.056
8.205,0.056
8.206,0.058
8.207,0.056
8.208,0.057
8.209,0.059
8.210,0.062
8.211,0.059
8.212,0.064
8.213,0.066
8.214,0.064
8.215,0.066
8.216,0.067
8.217,0.075
8.218,0.075
8.219,0.078
8.220,0.080
8.221,0.078
8.222,0.078
8.223,0.081
8.224,0.087
8.225,0.091
8.226,0.089
8.227,0.087
8.228,0.084
8.229,0.084
8.230,0.081
8.231,0.081
8.232,0.081
8.233,0.084
8.234,0.087
8.235,0.091
8.236,0.089
8.237,0.091
8.238,0.094
8.239,0.097
8.240,0.097
8.241,0.100
8.242,0.100
8.243,0.100
8.244,0.103
8.245,0.103
8.246,0.104
8.247,0.103
8.248,0.106
8.249,0.112
8.250,0.117
8.251,0.112
8.252,0.111
8.253,0.112
8.254,0.111
8.255,0.112
8.256,0.114
8.257,0.116
8.258,0.125
8.259,0.128
8.260,0.128
8.261,0.128
8.262,0.117
8.263,0.112
8.264,0.105
8.265,0.100
8.266,0.099
8.267,0.094
8.268,0.095
8.269,0.094
8.270,0.098
8.271,0.103
8.272,0.103
8.273,0.100
8.274,0.102
8.275,0.100
8.276,0.103
8.277,0.106
8.278,0.105
8.279,0.103
8.280,0.106
8.281,0.106
8.282,0.106
8.283,0.106
8.284,0.106
8.285,0.106
8.286,0.108
8.287,0.109
8.288,0.111
8.289,0.112
8.290,0.112
8.291,0.112
8.292,0.114
8.293,0.116
8.294,0.120
8.295,0.125
8.296,0.128
8.297,0.131
8.298,0.134
8.299,0.137
8.300,0.141
8.301,0.137
8.302,0.136
8.303,0.134
8.304,0.136
8.305,0.134
8.306,0.137
8.307,0.137
8.308,0.134
8.309,0.131
8.310,0.130
8.311,0.128
8.312,0.122
8.313,0.119
8.314,0.117
8.315,0.116
8.316,0.117
8.317,0.116
8.318,0.108
8.319,0.106
8.320,0.105
8.321,0.100
8.322,0.098
8.323,0.097
8.324,0.094
8.325,0.087
8.326,0.091
8.327,0.091
8.328,0.087
8.329,0.078
8.330,0.075
8.331,0.072
8.332,0.072
8.333,0.072
8.334,0.066
8.335,0.062
8.336,0.052
8.337,0.044
8.338,0.036
8.339,0.031
8.340,0.022
8.341,0.012
8.342,0.009
8.343,0.009
8.344,0.004
8.345,0.006
8.346,0.001
8.347,0.003
8.348,0.000
8.349,-0.003
8.350,-0.011
8.351,-0.016
8.352,-0.019
8.353,-0.016
8.354,-0.020
8.355,-0.022
8.356,-0.022
8.357,-0.028
8.358,-0.036
8.359,-0.041
8.360,-0.041
8.361,-0.041
8.362,-0.046
8.363,-0.050
8.364,-0.054
8.365,-0.056
8.366,-0.059
8.367,-0.059
8.368,-0.056
8.369,-0.056
8.370,-0.056
8.371,-0.056
8.372,-0.061
8.373,-0.063
8.374,-0.061
8.375,-0.063
8.376,-0.064
8.377,-0.066
8.378,-0.069
8.379,-0.069
8.380,-0.070
8.381,-0.072
8.382,-0.071
8.383,-0.066
8.384,-0.070
8.385,-0.069
8.386,-0.069
8.387,-0.069
8.388,-0.068
8.389,-0.066
8.390,-0.069
8.391,-0.066
8.392,-0.069
8.393,-0.066
8.394,-0.061
8.395,-0.056
8.396,-0.058
8.397,-0.056
8.398,-0.064
8.399,-0.066
8.400,-0.072
8.401,-0.069
8.402,-0.069
8.403,-0.072
8.404,-0.073
8.405,-0.072
8.406,-0.071
8.407,-0.066
8.408,-0.064
8.409,-0.066
8.410,-0.067
8.411,-0.069
8.412,-0.063
8.413,-0.056
8.414,-0.055
8.415,-0.053
8.416,-0.052
8.417,-0.050
8.418,-0.049
8.419,-0.044
8.420,-0.042
8.421,-0.041
8.422,-0.039
8.423,-0.038
8.424,-0.044
8.425,-0.044
8.426,-0.045
8.427,-0.044
8.428,-0.048
8.429,-0.047
8.430,-0.048
8.431,-0.047
8.432,-0.048
8.433,-0.050
8.434,-0.050
8.435,-0.050
8.436,-0.049
8.437,-0.044
8.438,-0.043
8.439,-0.041
8.440,-0.042
8.441,-0.047
8.442,-0.048
8.443,-0.050
8.444,-0.049
8.445,-0.047
8.446,-0.043
8.447,-0.041
8.448,-0.039
8.449,-0.038
8.450,-0.045
8.451,-0.047
8.452,-0.044
8.453,-0.044
8.454,-0.039
8.455,-0.038
8.456,-0.039
8.457,-0.038
8.458,-0.042
8.459,-0.041
8.460,-0.042
8.461,-0.047
8.462,-0.044
8.463,-0.044
8.464,-0.046
8.465,-0.047
8.466,-0.048
8.467,-0.050
8.468,-0.050
8.469,-0.050
8.470,-0.050
8.471,-0.050
8.472,-0.046
8.473,-0.044
8.474,-0.034
8.475,-0.031
8.476,-0.027
8.477,-0.025
8.478,-0.034
8.479,-0.041
8.480,-0.051
8.481,-0.053
8.482,-0.056
8.483,-0.056
8.484,-0.059
8.485,-0.059
8.486,-0.053
8.487,-0.053
8.488,-0.056
8.489,-0.059
8.490,-0.061
8.491,-0.063
8.492,-0.063
8.493,-0.063
8.494,-0.058
8.495,-0.056
8.496,-0.061
8.497,-0.059
8.498,-0.061
8.499,-0.063
8.500,-0.058
8.501,-0.056
8.502,-0.058
8.503,-0.056
8.504,-0.058
8.505,-0.063
8.506,-0.063
8.507,-0.063
8.508,-0.067
8.509,-0.072
8.510,-0.069
8.511,-0.069
8.512,-0.073
8.513,-0.072
8.514,-0.072
8.515,-0.075
8.516,-0.068
8.517,-0.066
8.518,-0.069
8.519,-0.069
8.520,-0.070
8.521,-0.072
8.522,-0.073
8.523,-0.078
8.524,-0.081
8.525,-0.081
8.526,-0.081
8.527,-0.081
8.528,-0.080
8.529,-0.081
8.530,-0.084
8.531,-0.087
8.532,-0.089
8.533,-0.087
8.534,-0.086
8.535,-0.087
8.536,-0.087
8.537,-0.087
8.538,-0.086
8.539,-0.081
8.540,-0.079
8.541,-0.081
8.542,-0.080
8.543,-0.081
8.544,-0.083
8.545,-0.084
8.546,-0.084
8.547,-0.087
8.548,-0.084
8.549,-0.081
8.550,-0.078
8.551,-0.078
8.552,-0.084
8.553,-0.087
8.554,-0.095
8.555,-0.100
8.556,-0.103
8.557,-0.103
8.558,-0.103
8.559,-0.097
8.560,-0.097
8.561,-0.094
8.562,-0.095
8.563,-0.097
8.564,-0.095
8.565,-0.100
8.566,-0.101
8.567,-0.103
8.568,-0.102
8.569,-0.100
8.570,-0.099
8.571,-0.094
8.572,-0.098
8.573,-0.100
8.574,-0.100
8.575,-0.103
8.576,-0.099
8.577,-0.097
8.578,-0.097
8.579,-0.100
8.580,-0.100
8.581,-0.103
8.582,-0.103
8.583,-0.103
8.584,-0.104
8.585,-0.109
8.586,-0.108
8.587,-0.109
8.588,-0.106
8.589,-0.103
8.590,-0.108
8.591,-0.109
8.592,-0.108
8.593,-0.106
8.594,-0.108
8.595,-0.106
8.596,-0.102
8.597,-0.100
8.598,-0.104
8.599,-0.106
8.600,-0.106
8.601,-0.106
8.602,-0.105
8.603,-0.100
8.604,-0.103
8.605,-0.103
8.606,-0.103
8.607,-0.103
8.608,-0.104
8.609,-0.106
8.610,-0.108
8.611,-0.109
8.612,-0.114
8.613,-0.119
8.614,-0.123
8.615,-0.122
8.616,-0.119
8.617,-0.113
8.618,-0.116
8.619,-0.116
8.620,-0.113
8.621,-0.113
8.622,-0.119
8.623,-0.119
8.624,-0.122
8.625,-0.122
8.626,-0.122
8.627,-0.119
8.628,-0.122
8.629,-0.122
8.630,-0.123
8.631,-0.119
8.632,-0.123
8.633,-0.125
8.634,-0.122
8.635,-0.122
8.636,-0.116
8.637,-0.109
8.638,-0.108
8.639,-0.106
8.640,-0.111
8.641,-0.116
8.642,-0.125
8.643,-0.131
8.644,-0.134
8.645,-0.138
8.646,-0.136
8.647,-0.128
8.648,-0.124
8.649,-0.125
8.650,-0.122
8.651,-0.125
8.652,-0.125
8.653,-0.125
8.654,-0.127
8.655,-0.128
8.656,-0.126
8.657,-0.128
8.658,-0.128
8.659,-0.125
8.660,-0.125
8.661,-0.122
8.662,-0.128
8.663,-0.131
8.664,-0.127
8.665,-0.128
8.666,-0.128
8.667,-0.125
8.668,-0.124
8.669,-0.125
8.670,-0.129
8.671,-0.128
8.672,-0.127
8.673,-0.128
8.674,-0.127
8.675,-0.125
8.676,-0.127
8.677,-0.125
8.678,-0.131
8.679,-0.138
8.680,-0.136
8.681,-0.134
8.682,-0.133
8.683,-0.131
8.684,-0.128
8.685,-0.128
8.686,-0.125
8.687,-0.125
8.688,-0.124
8.689,-0.125
8.690,-0.125
8.691,-0.125
8.692,-0.122
8.693,-0.122
8.694,-0.123
8.695,-0.125
8.696,-0.123
8.697,-0.125
8.698,-0.125
8.699,-0.125
8.700,-0.126
8.701,-0.125
8.702,-0.122
8.703,-0.122
8.704,-0.116
8.705,-0.113
8.706,-0.109
8.707,-0.106
8.708,-0.100
8.709,-0.094
8.710,-0.091
8.711,-0.091
8.712,-0.080
8.713,-0.072
8.714,-0.070
8.715,-0.069
8.716,-0.064
8.717,-0.059
8.718,-0.052
8.719,-0.050
8.720,-0.049
8.721,-0.047
8.722,-0.053
8.723,-0.056
8.724,-0.059
8.725,-0.059
8.726,-0.059
8.727,-0.056
8.728,-0.050
8.729,-0.047
8.730,-0.044
8.731,-0.038
8.732,-0.028
8.733,-0.019
8.734,-0.008
8.735,-0.006
8.736,-0.009
8.737,-0.012
8.738,-0.019
8.739,-0.025
8.740,-0.019
8.741,-0.016
8.742,-0.006
8.743,-0.003
8.744,0.000
8.745,0.000
8.746,-0.006
8.747,-0.009
8.748,-0.008
8.749,-0.009
8.750,-0.014
8.751,-0.019
8.752,-0.022
8.753,-0.028
8.754,-0.031
8.755,-0.031
8.756,-0.031
8.757,-0.031
8.758,-0.027
8.759,-0.025
8.760,-0.027
8.761,-0.025
8.762,-0.027
8.763,-0.028
8.764,-0.028
8.765,-0.028
8.766,-0.034
8.767,-0.041
8.768,-0.041
8.769,-0.041
8.770,-0.041
8.771,-0.044
8.772,-0.055
8.773,-0.066
8.774,-0.075
8.775,-0.081
8.776,-0.089
8.777,-0.097
8.778,-0.101
8.779,-0.106
8.780,-0.111
8.781,-0.116
8.782,-0.116
8.783,-0.119
8.784,-0.118
8.785,-0.119
8.786,-0.125
8.787,-0.128
8.788,-0.128
8.789,-0.128
8.790,-0.128
8.791,-0.128
8.792,-0.130
8.793,-0.128
8.794,-0.133
8.795,-0.134
8.796,-0.133
8.797,-0.131
8.798,-0.138
8.799,-0.144
8.800,-0.148
8.801,-0.153
8.802,-0.152
8.803,-0.150
8.804,-0.152
8.805,-0.150
8.806,-0.153
8.807,-0.153
8.808,-0.149
8.809,-0.147
8.810,-0.147
8.811,-0.147
8.812,-0.144
8.813,-0.141
8.814,-0.133
8.815,-0.125
8.816,-0.131
8.817,-0.131
8.818,-0.138
8.819,-0.141
8.820,-0.145
8.821,-0.147
8.822,-0.150
8.823,-0.153
8.824,-0.158
8.825,-0.159
8.826,-0.161
8.827,-0.159
8.828,-0.161
8.829,-0.156
8.830,-0.156
8.831,-0.156
8.832,-0.159
8.833,-0.162
8.834,-0.161
8.835,-0.162
8.836,-0.158
8.837,-0.153
8.838,-0.153
8.839,-0.153
8.840,-0.153
8.841,-0.153
8.842,-0.156
8.843,-0.156
8.844,-0.167
8.845,-0.181
8.846,-0.196
8.847,-0.216
8.848,-0.241
8.849,-0.269
8.850,-0.298
8.851,-0.319
8.852,-0.331
8.853,-0.328
8.854,-0.322
8.855,-0.309
8.856,-0.298
8.857,-0.278
8.858,-0.247
8.859,-0.213
8.860,-0.181
8.861,-0.156
8.862,-0.129
8.863,-0.094
8.864,-0.047
8.865,0.012
8.866,0.068
8.867,0.128
8.868,0.199
8.869,0.287
8.870,0.394
8.871,0.512
8.872,0.626
8.873,0.741
8.874,0.854
8.875,0.966
8.876,1.069
8.877,1.159
8.878,1.264
8.879,1.375
8.880,1.497
8.881,1.584
8.882,1.639
8.883,1.628
8.884,1.572
8.885,1.469
8.886,1.375
8.887,1.281
8.888,1.182
8.889,1.072
8.890,0.954
8.891,0.841
8.892,0.719
8.893,0.603
8.894,0.487
8.895,0.378
8.896,0.272
8.897,0.175
8.898,0.096
8.899,0.031
8.900,-0.031
8.901,-0.081
8.902,-0.121
8.903,-0.138
8.904,-0.147
8.905,-0.141
8.906,-0.133
8.907,-0.119
8.908,-0.101
8.909,-0.084
8.910,-0.064
8.911,-0.047
8.912,-0.027
8.913,-0.012
8.914,-0.003
8.915,0.003
8.916,0.006
8.917,0.006
8.918,0.007
8.919,0.006
8.920,0.004
8.921,0.003
8.922,0.000
8.923,-0.006
8.924,-0.012
8.925,-0.019
8.926,-0.025
8.927,-0.028
8.928,-0.028
8.929,-0.028
8.930,-0.033
8.931,-0.034
8.932,-0.042
8.933,-0.047
8.934,-0.050
8.935,-0.050
8.936,-0.053
8.937,-0.053
8.938,-0.053
8.939,-0.056
8.940,-0.055
8.941,-0.053
8.942,-0.056
8.943,-0.056
8.944,-0.059
8.945,-0.063
8.946,-0.066
8.947,-0.066
8.948,-0.066
8.949,-0.066
8.950,-0.066
8.951,-0.066
8.952,-0.067
8.953,-0.069
8.954,-0.068
8.955,-0.066
8.956,-0.066
8.957,-0.066
8.958,-0.064
8.959,-0.063
8.960,-0.058
8.961,-0.059
8.962,-0.059
8.963,-0.056
8.964,-0.058
8.965,-0.053
8.966,-0.047
8.967,-0.041
8.968,-0.038
8.969,-0.038
8.970,-0.038
8.971,-0.038
8.972,-0.048
8.973,-0.056
8.974,-0.056
8.975,-0.063
8.976,-0.059
8.977,-0.059
8.978,-0.063
8.979,-0.059
8.980,-0.050
8.981,-0.047
8.982,-0.045
8.983,-0.047
8.984,-0.045
8.985,-0.047
8.986,-0.044
8.987,-0.044
8.988,-0.043
8.989,-0.038
8.990,-0.039
8.991,-0.041
8.992,-0.045
8.993,-0.047
8.994,-0.045
8.995,-0.047
8.996,-0.044
8.997,-0.041
8.998,-0.038
8.999,-0.034
9.000,-0.034
9.001,-0.034
9.002,-0.031
9.003,-0.028
9.004,-0.024
9.005,-0.019
9.006,-0.016
9.007,-0.016
9.008,-0.016
9.009,-0.016
9.010,-0.020
9.011,-0.019
9.012,-0.019
9.013,-0.016
9.014,-0.014
9.015,-0.012
9.016,-0.011
9.017,-0.012
9.018,-0.014
9.019,-0.012
9.020,-0.008
9.021,-0.003
9.022,0.003
9.023,0.006
9.024,0.006
9.025,0.006
9.026,0.005
9.027,0.006
9.028,0.009
9.029,0.009
9.030,0.009
9.031,0.009
9.032,0.014
9.033,0.022
9.034,0.019
9.035,0.019
9.036,0.020
9.037,0.022
9.038,0.025
9.039,0.028
9.040,0.030
9.041,0.028
9.042,0.028
9.043,0.031
9.044,0.034
9.045,0.037
9.046,0.044
9.047,0.047
9.048,0.054
9.049,0.059
9.050,0.059
9.051,0.059
9.052,0.062
9.053,0.059
9.054,0.059
9.055,0.056
9.056,0.053
9.057,0.053
9.058,0.050
9.059,0.053
9.060,0.052
9.061,0.053
9.062,0.059
9.063,0.062
9.064,0.062
9.065,0.066
9.066,0.069
9.067,0.069
9.068,0.072
9.069,0.075
9.070,0.078
9.071,0.084
9.072,0.083
9.073,0.084
9.074,0.083
9.075,0.084
9.076,0.084
9.077,0.084
9.078,0.081
9.079,0.081
9.080,0.086
9.081,0.091
9.082,0.089
9.083,0.091
9.084,0.092
9.085,0.094
9.086,0.097
9.087,0.097
9.088,0.098
9.089,0.097
9.090,0.096
9.091,0.097
9.092,0.100
9.093,0.094
9.094,0.094
9.095,0.097
9.096,0.092
9.097,0.091
9.098,0.089
9.099,0.087
9.100,0.091
9.101,0.087
9.102,0.091
9.103,0.094
9.104,0.089
9.105,0.091
9.106,0.087
9.107,0.087
9.108,0.089
9.109,0.087
9.110,0.089
9.111,0.087
9.112,0.087
9.113,0.087
9.114,0.087
9.115,0.084
9.116,0.086
9.117,0.084
9.118,0.083
9.119,0.081
9.120,0.086
9.121,0.091
9.122,0.095
9.123,0.097
9.124,0.097
9.125,0.097
9.126,0.096
9.127,0.094
9.128,0.096
9.129,0.097
9.130,0.097
9.131,0.097
9.132,0.103
9.133,0.109
9.134,0.112
9.135,0.116
9.136,0.116
9.137,0.116
9.138,0.114
9.139,0.112
9.140,0.108
9.141,0.103
9.142,0.106
9.143,0.103
9.144,0.106
9.145,0.109
9.146,0.111
9.147,0.109
9.148,0.109
9.149,0.106
9.150,0.104
9.151,0.103
9.152,0.104
9.153,0.106
9.154,0.107
9.155,0.112
9.156,0.111
9.157,0.109
9.158,0.112
9.159,0.112
9.160,0.106
9.161,0.106
9.162,0.105
9.163,0.100
9.164,0.096
9.165,0.091
9.166,0.087
9.167,0.081
9.168,0.080
9.169,0.075
9.170,0.075
9.171,0.069
9.172,0.069
9.173,0.069
9.174,0.064
9.175,0.059
9.176,0.052
9.177,0.047
9.178,0.039
9.179,0.034
9.180,0.025
9.181,0.019
9.182,0.017
9.183,0.016
9.184,0.009
9.185,0.006
9.186,-0.001
9.187,-0.003
9.188,-0.008
9.189,-0.006
9.190,-0.012
9.191,-0.019
9.192,-0.019
9.193,-0.016
9.194,-0.021
9.195,-0.019
9.196,-0.023
9.197,-0.025
9.198,-0.014
9.199,-0.009
9.200,-0.016
9.201,-0.019
9.202,-0.025
9.203,-0.031
9.204,-0.039
9.205,-0.047
9.206,-0.059
9.207,-0.069
9.208,-0.071
9.209,-0.069
9.210,-0.068
9.211,-0.069
9.212,-0.069
9.213,-0.069
9.214,-0.076
9.215,-0.081
9.216,-0.081
9.217,-0.084
9.218,-0.083
9.219,-0.081
9.220,-0.081
9.221,-0.078
9.222,-0.075
9.223,-0.072
9.224,-0.071
9.225,-0.066
9.226,-0.070
9.227,-0.069
9.228,-0.069
9.229,-0.069
9.230,-0.069
9.231,-0.069
9.232,-0.073
9.233,-0.072
9.234,-0.074
9.235,-0.069
9.236,-0.069
9.237,-0.069
9.238,-0.072
9.239,-0.072
9.240,-0.076
9.241,-0.075
9.242,-0.076
9.243,-0.069
9.244,-0.066
9.245,-0.066
9.246,-0.066
9.247,-0.063
9.248,-0.066
9.249,-0.066
9.250,-0.059
9.251,-0.056
9.252,-0.058
9.253,-0.059
9.254,-0.059
9.255,-0.059
9.256,-0.058
9.257,-0.056
9.258,-0.058
9.259,-0.059
9.260,-0.061
9.261,-0.059
9.262,-0.056
9.263,-0.053
9.264,-0.050
9.265,-0.047
9.266,-0.051
9.267,-0.050
9.268,-0.047
9.269,-0.041
9.270,-0.041
9.271,-0.034
9.272,-0.039
9.273,-0.041
9.274,-0.044
9.275,-0.047
9.276,-0.050
9.277,-0.053
9.278,-0.059
9.279,-0.063
9.280,-0.059
9.281,-0.056
9.282,-0.052
9.283,-0.050
9.284,-0.050
9.285,-0.050
9.286,-0.051
9.287,-0.053
9.288,-0.054
9.289,-0.059
9.290,-0.056
9.291,-0.053
9.292,-0.056
9.293,-0.053
9.294,-0.050
9.295,-0.050
9.296,-0.044
9.297,-0.041
9.298,-0.041
9.299,-0.038
9.300,-0.044
9.301,-0.044
9.302,-0.043
9.303,-0.044
9.304,-0.041
9.305,-0.041
9.306,-0.044
9.307,-0.047
9.308,-0.047
9.309,-0.047
9.310,-0.048
9.311,-0.050
9.312,-0.050
9.313,-0.050
9.314,-0.049
9.315,-0.050
9.316,-0.048
9.317,-0.053
9.318,-0.051
9.319,-0.053
9.320,-0.053
9.321,-0.050
9.322,-0.055
9.323,-0.050
9.324,-0.051
9.325,-0.050
9.326,-0.053
9.327,-0.053
9.328,-0.051
9.329,-0.056
9.330,-0.058
9.331,-0.059
9.332,-0.058
9.333,-0.056
9.334,-0.058
9.335,-0.059
9.336,-0.058
9.337,-0.059
9.338,-0.064
9.339,-0.063
9.340,-0.050
9.341,-0.038
9.342,-0.018
9.343,0.000
9.344,-0.003
9.345,-0.003
9.346,-0.002
9.347,-0.003
9.348,-0.017
9.349,-0.031
9.350,-0.050
9.351,-0.069
9.352,-0.066
9.353,-0.066
9.354,-0.064
9.355,-0.056
9.356,-0.055
9.357,-0.056
9.358,-0.058
9.359,-0.066
9.360,-0.075
9.361,-0.081
9.362,-0.082
9.363,-0.084
9.364,-0.083
9.365,-0.084
9.366,-0.086
9.367,-0.084
9.368,-0.089
9.369,-0.094
9.370,-0.092
9.371,-0.094
9.372,-0.094
9.373,-0.094
9.374,-0.094
9.375,-0.091
9.376,-0.087
9.377,-0.087
9.378,-0.087
9.379,-0.087
9.380,-0.091
9.381,-0.091
9.382,-0.087
9.383,-0.087
9.384,-0.086
9.385,-0.087
9.386,-0.087
9.387,-0.087
9.388,-0.089
9.389,-0.094
9.390,-0.094
9.391,-0.094
9.392,-0.089
9.393,-0.087
9.394,-0.089
9.395,-0.087
9.396,-0.089
9.397,-0.087
9.398,-0.089
9.399,-0.087
9.400,-0.092
9.401,-0.091
9.402,-0.094
9.403,-0.094
9.404,-0.094
9.405,-0.094
9.406,-0.094
9.407,-0.100
9.408,-0.100
9.409,-0.100
9.410,-0.101
9.411,-0.103
9.412,-0.103
9.413,-0.100
9.414,-0.103
9.415,-0.103
9.416,-0.103
9.417,-0.106
9.418,-0.104
9.419,-0.106
9.420,-0.105
9.421,-0.106
9.422,-0.106
9.423,-0.109
9.424,-0.109
9.425,-0.109
9.426,-0.109
9.427,-0.113
9.428,-0.106
9.429,-0.103
9.430,-0.103
9.431,-0.103
9.432,-0.106
9.433,-0.106
9.434,-0.104
9.435,-0.103
9.436,-0.106
9.437,-0.106
9.438,-0.103
