'Elapsed time','II'
'seconds','mV'
0.000,-0.098
0.001,-0.091
0.002,-0.094
0.003,-0.097
0.004,-0.096
0.005,-0.094
0.006,-0.095
0.007,-0.097
0.008,-0.100
0.009,-0.103
0.010,-0.103
0.011,-0.106
0.012,-0.103
0.013,-0.106
0.014,-0.106
0.015,-0.106
0.016,-0.103
0.017,-0.103
0.018,-0.106
0.019,-0.106
0.020,-0.106
0.021,-0.106
0.022,-0.107
0.023,-0.109
0.024,-0.109
0.025,-0.109
0.026,-0.109
0.027,-0.109
0.028,-0.109
0.029,-0.109
0.030,-0.109
0.031,-0.109
0.032,-0.106
0.033,-0.109
0.034,-0.109
0.035,-0.109
0.036,-0.107
0.037,-0.109
0.038,-0.105
0.039,-0.106
0.040,-0.109
0.041,-0.109
0.042,-0.109
0.043,-0.109
0.044,-0.109
0.045,-0.109
0.046,-0.106
0.047,-0.109
0.048,-0.111
0.049,-0.109
0.050,-0.108
0.051,-0.106
0.052,-0.111
0.053,-0.109
0.054,-0.111
0.055,-0.112
0.056,-0.114
0.057,-0.119
0.058,-0.120
0.059,-0.119
0.060,-0.114
0.061,-0.112
0.062,-0.117
0.063,-0.119
0.064,-0.119
0.065,-0.119
0.066,-0.116
0.067,-0.109
0.068,-0.111
0.069,-0.109
0.070,-0.106
0.071,-0.109
0.072,-0.111
0.073,-0.112
0.074,-0.112
0.075,-0.112
0.076,-0.112
0.077,-0.112
0.078,-0.117
0.079,-0.122
0.080,-0.122
0.081,-0.122
0.082,-0.121
0.083,-0.119
0.084,-0.116
0.085,-0.112
0.086,-0.117
0.087,-0.119
0.088,-0.119
0.089,-0.119
0.090,-0.120
0.091,-0.122
0.092,-0.119
0.093,-0.122
0.094,-0.124
0.095,-0.122
0.096,-0.119
0.097,-0.119
0.098,-0.119
0.099,-0.119
0.100,-0.114
0.101,-0.109
0.102,-0.111
0.103,-0.109
0.104,-0.109
0.105,-0.106
0.106,-0.106
0.107,-0.106
0.108,-0.109
0.109,-0.106
0.110,-0.103
0.111,-0.103
0.112,-0.099
0.113,-0.091
0.114,-0.089
0.115,-0.091
0.116,-0.091
0.117,-0.087
0.118,-0.089
0.119,-0.091
0.120,-0.089
0.121,-0.087
0.122,-0.089
0.123,-0.087
0.124,-0.092
0.125,-0.091
0.126,-0.080
0.127,-0.069
0.128,-0.063
0.129,-0.053
0.130,-0.050
0.131,-0.044
0.132,-0.039
0.133,-0.037
0.134,-0.037
0.135,-0.037
0.136,-0.036
0.137,-0.037
0.138,-0.034
0.139,-0.037
0.140,-0.039
0.141,-0.044
0.142,-0.049
0.143,-0.050
0.144,-0.053
0.145,-0.059
0.146,-0.063
0.147,-0.069
0.148,-0.069
0.149,-0.069
0.150,-0.081
0.151,-0.091
0.152,-0.100
0.153,-0.103
0.154,-0.106
0.155,-0.106
0.156,-0.103
0.157,-0.106
0.158,-0.106
0.159,-0.109
0.160,-0.103
0.161,-0.100
0.162,-0.098
0.163,-0.097
0.164,-0.099
0.165,-0.091
0.166,-0.087
0.167,-0.081
0.168,-0.081
0.169,-0.075
0.170,-0.072
0.171,-0.072
0.172,-0.066
0.173,-0.069
0.174,-0.069
0.175,-0.072
0.176,-0.074
0.177,-0.075
0.178,-0.071
0.179,-0.069
0.180,-0.069
0.181,-0.069
0.182,-0.069
0.183,-0.069
0.184,-0.076
0.185,-0.078
0.186,-0.078
0.187,-0.078
0.188,-0.081
0.189,-0.081
0.190,-0.081
0.191,-0.084
0.192,-0.084
0.193,-0.087
0.194,-0.094
0.195,-0.100
0.196,-0.106
0.197,-0.106
0.198,-0.106
0.199,-0.106
0.200,-0.109
0.201,-0.119
0.202,-0.129
0.203,-0.137
0.204,-0.141
0.205,-0.147
0.206,-0.147
0.207,-0.147
0.208,-0.152
0.209,-0.150
0.210,-0.150
0.211,-0.150
0.212,-0.151
0.213,-0.156
0.214,-0.159
0.215,-0.159
0.216,-0.155
0.217,-0.150
0.218,-0.150
0.219,-0.153
0.220,-0.147
0.221,-0.147
0.222,-0.142
0.223,-0.144
0.224,-0.141
0.225,-0.141
0.226,-0.141
0.227,-0.141
0.228,-0.142
0.229,-0.141
0.230,-0.144
0.231,-0.147
0.232,-0.148
0.233,-0.147
0.234,-0.147
0.235,-0.147
0.236,-0.147
0.237,-0.144
0.238,-0.137
0.239,-0.137
0.240,-0.136
0.241,-0.137
0.242,-0.136
0.243,-0.137
0.244,-0.133
0.245,-0.128
0.246,-0.134
0.247,-0.134
0.248,-0.136
0.249,-0.141
0.250,-0.144
0.251,-0.144
0.252,-0.141
0.253,-0.134
0.254,-0.136
0.255,-0.131
0.256,-0.133
0.257,-0.134
0.258,-0.137
0.259,-0.144
0.260,-0.141
0.261,-0.141
0.262,-0.141
0.263,-0.141
0.264,-0.141
0.265,-0.141
0.266,-0.139
0.267,-0.137
0.268,-0.136
0.269,-0.131
0.270,-0.133
0.271,-0.131
0.272,-0.133
0.273,-0.134
0.274,-0.133
0.275,-0.131
0.276,-0.127
0.277,-0.128
0.278,-0.129
0.279,-0.131
0.280,-0.129
0.281,-0.131
0.282,-0.130
0.283,-0.128
0.284,-0.131
0.285,-0.131
0.286,-0.130
0.287,-0.125
0.288,-0.124
0.289,-0.125
0.290,-0.125
0.291,-0.125
0.292,-0.125
0.293,-0.125
0.294,-0.122
0.295,-0.125
0.296,-0.124
0.297,-0.119
0.298,-0.114
0.299,-0.116
0.300,-0.116
0.301,-0.116
0.302,-0.119
0.303,-0.116
0.304,-0.111
0.305,-0.109
0.306,-0.109
0.307,-0.109
0.308,-0.112
0.309,-0.112
0.310,-0.111
0.311,-0.109
0.312,-0.109
0.313,-0.109
0.314,-0.112
0.315,-0.119
0.316,-0.117
0.317,-0.119
0.318,-0.123
0.319,-0.131
0.320,-0.142
0.321,-0.150
0.322,-0.163
0.323,-0.178
0.324,-0.192
0.325,-0.206
0.326,-0.212
0.327,-0.219
0.328,-0.225
0.329,-0.222
0.330,-0.225
0.331,-0.222
0.332,-0.206
0.333,-0.194
0.334,-0.175
0.335,-0.150
0.336,-0.128
0.337,-0.109
0.338,-0.087
0.339,-0.063
0.340,-0.033
0.341,-0.003
0.342,0.041
0.343,0.088
0.344,0.147
0.345,0.206
0.346,0.270
0.347,0.334
0.348,0.409
0.349,0.494
0.350,0.584
0.351,0.672
0.352,0.753
0.353,0.822
0.354,0.879
0.355,0.903
0.356,0.914
0.357,0.922
0.358,0.919
0.359,0.922
0.360,0.931
0.361,0.938
0.362,0.938
0.363,0.925
0.364,0.903
0.365,0.863
0.366,0.824
0.367,0.791
0.368,0.763
0.369,0.728
0.370,0.697
0.371,0.663
0.372,0.621
0.373,0.559
0.374,0.483
0.375,0.400
0.376,0.299
0.377,0.166
0.378,0.041
0.379,-0.069
0.380,-0.168
0.381,-0.241
0.382,-0.305
0.383,-0.353
0.384,-0.400
0.385,-0.431
0.386,-0.455
0.387,-0.456
0.388,-0.452
0.389,-0.444
0.390,-0.434
0.391,-0.425
0.392,-0.411
0.393,-0.391
0.394,-0.368
0.395,-0.344
0.396,-0.323
0.397,-0.297
0.398,-0.268
0.399,-0.241
0.400,-0.220
0.401,-0.206
0.402,-0.195
0.403,-0.181
0.404,-0.166
0.405,-0.150
0.406,-0.137
0.407,-0.128
0.408,-0.120
0.409,-0.112
0.410,-0.104
0.411,-0.100
0.412,-0.095
0.413,-0.091
0.414,-0.080
0.415,-0.072
0.416,-0.066
0.417,-0.059
0.418,-0.056
0.419,-0.053
0.420,-0.047
0.421,-0.044
0.422,-0.042
0.423,-0.037
0.424,-0.042
0.425,-0.047
0.426,-0.044
0.427,-0.041
0.428,-0.041
0.429,-0.041
0.430,-0.045
0.431,-0.044
0.432,-0.039
0.433,-0.034
0.434,-0.034
0.435,-0.034
0.436,-0.036
0.437,-0.031
0.438,-0.030
0.439,-0.028
0.440,-0.029
0.441,-0.031
0.442,-0.028
0.443,-0.028
0.444,-0.028
0.445,-0.028
0.446,-0.028
0.447,-0.028
0.448,-0.029
0.449,-0.031
0.450,-0.028
0.451,-0.031
0.452,-0.030
0.453,-0.025
0.454,-0.019
0.455,-0.016
0.456,-0.019
0.457,-0.022
0.458,-0.019
0.459,-0.019
0.460,-0.017
0.461,-0.016
0.462,-0.017
0.463,-0.019
0.464,-0.016
0.465,-0.016
0.466,-0.014
0.467,-0.016
0.468,-0.014
0.469,-0.012
0.470,-0.009
0.471,-0.009
0.472,-0.008
0.473,-0.006
0.474,-0.006
0.475,-0.003
0.476,0.003
0.477,0.006
0.478,0.005
0.479,0.006
0.480,0.006
0.481,0.006
0.482,0.008
0.483,0.003
0.484,0.006
0.485,0.006
0.486,0.005
0.487,0.006
0.488,0.013
0.489,0.016
0.490,0.014
0.491,0.016
0.492,0.013
0.493,0.013
0.494,0.016
0.495,0.022
0.496,0.021
0.497,0.022
0.498,0.022
0.499,0.025
0.500,0.023
0.501,0.028
0.502,0.028
0.503,0.031
0.504,0.041
0.505,0.044
0.506,0.041
0.507,0.041
0.508,0.042
0.509,0.044
0.510,0.048
0.511,0.050
0.512,0.054
0.513,0.056
0.514,0.061
0.515,0.059
0.516,0.064
0.517,0.066
0.518,0.061
0.519,0.063
0.520,0.069
0.521,0.072
0.522,0.075
0.523,0.078
0.524,0.080
0.525,0.081
0.526,0.084
0.527,0.091
0.528,0.094
0.529,0.097
0.530,0.100
0.531,0.097
0.532,0.100
0.533,0.100
0.534,0.104
0.535,0.109
0.536,0.114
0.537,0.119
0.538,0.126
0.539,0.131
0.540,0.130
0.541,0.128
0.542,0.131
0.543,0.134
0.544,0.139
0.545,0.141
0.546,0.142
0.547,0.141
0.548,0.147
0.549,0.153
0.550,0.158
0.551,0.163
0.552,0.167
0.553,0.172
0.554,0.177
0.555,0.178
0.556,0.183
0.557,0.188
0.558,0.192
0.559,0.197
0.560,0.194
0.561,0.194
0.562,0.200
0.563,0.203
0.564,0.207
0.565,0.216
0.566,0.222
0.567,0.228
0.568,0.227
0.569,0.228
0.570,0.231
0.571,0.231
0.572,0.234
0.573,0.237
0.574,0.237
0.575,0.241
0.576,0.245
0.577,0.250
0.578,0.249
0.579,0.250
0.580,0.253
0.581,0.256
0.582,0.258
0.583,0.263
0.584,0.266
0.585,0.266
0.586,0.270
0.587,0.272
0.588,0.278
0.589,0.281
0.590,0.286
0.591,0.284
0.592,0.283
0.593,0.284
0.594,0.291
0.595,0.294
0.596,0.291
0.597,0.291
0.598,0.291
0.599,0.294
0.600,0.294
0.601,0.294
0.602,0.296
0.603,0.294
0.604,0.301
0.605,0.306
0.606,0.303
0.607,0.303
0.608,0.302
0.609,0.303
0.610,0.306
0.611,0.306
0.612,0.311
0.613,0.312
0.614,0.309
0.615,0.309
0.616,0.317
0.617,0.322
0.618,0.324
0.619,0.322
0.620,0.331
0.621,0.334
0.622,0.336
0.623,0.337
0.624,0.337
0.625,0.337
0.626,0.337
0.627,0.334
0.628,0.336
0.629,0.334
0.630,0.334
0.631,0.334
0.632,0.334
0.633,0.334
0.634,0.329
0.635,0.331
0.636,0.331
0.637,0.331
0.638,0.329
0.639,0.325
0.640,0.322
0.641,0.312
0.642,0.307
0.643,0.306
0.644,0.307
0.645,0.306
0.646,0.299
0.647,0.291
0.648,0.283
0.649,0.275
0.650,0.270
0.651,0.266
0.652,0.259
0.653,0.253
0.654,0.246
0.655,0.237
0.656,0.234
0.657,0.228
0.658,0.222
0.659,0.216
0.660,0.216
0.661,0.209
0.662,0.200
0.663,0.191
0.664,0.181
0.665,0.172
0.666,0.168
0.667,0.159
0.668,0.149
0.669,0.141
0.670,0.137
0.671,0.131
0.672,0.121
0.673,0.113
0.674,0.106
0.675,0.100
0.676,0.097
0.677,0.091
0.678,0.084
0.679,0.081
0.680,0.077
0.681,0.072
0.682,0.069
0.683,0.063
0.684,0.059
0.685,0.053
0.686,0.049
0.687,0.041
0.688,0.037
0.689,0.031
0.690,0.027
0.691,0.022
0.692,0.020
0.693,0.019
0.694,0.011
0.695,0.006
0.696,0.003
0.697,0.003
0.698,0.001
0.699,0.000
0.700,0.000
0.701,-0.006
0.702,-0.008
0.703,-0.006
0.704,-0.008
0.705,-0.009
0.706,-0.014
0.707,-0.022
0.708,-0.026
0.709,-0.028
0.710,-0.028
0.711,-0.031
0.712,-0.034
0.713,-0.034
0.714,-0.037
0.715,-0.037
0.716,-0.036
0.717,-0.037
0.718,-0.036
0.719,-0.037
0.720,-0.037
0.721,-0.037
0.722,-0.041
0.723,-0.044
0.724,-0.048
0.725,-0.047
0.726,-0.047
0.727,-0.047
0.728,-0.050
0.729,-0.050
0.730,-0.050
0.731,-0.050
0.732,-0.052
0.733,-0.050
0.734,-0.051
0.735,-0.053
0.736,-0.058
0.737,-0.056
0.738,-0.053
0.739,-0.056
0.740,-0.056
0.741,-0.056
0.742,-0.056
0.743,-0.056
0.744,-0.055
0.745,-0.053
0.746,-0.059
0.747,-0.059
0.748,-0.058
0.749,-0.056
0.750,-0.058
0.751,-0.059
0.752,-0.061
0.753,-0.063
0.754,-0.059
0.755,-0.056
0.756,-0.059
0.757,-0.059
0.758,-0.059
0.759,-0.056
0.760,-0.059
0.761,-0.059
0.762,-0.061
0.763,-0.059
0.764,-0.061
0.765,-0.059
0.766,-0.058
0.767,-0.059
0.768,-0.061
0.769,-0.063
0.770,-0.059
0.771,-0.056
0.772,-0.058
0.773,-0.059
0.774,-0.058
0.775,-0.063
0.776,-0.063
0.777,-0.063
0.778,-0.061
0.779,-0.059
0.780,-0.064
0.781,-0.063
0.782,-0.064
0.783,-0.066
0.784,-0.066
0.785,-0.066
0.786,-0.063
0.787,-0.059
0.788,-0.056
0.789,-0.056
0.790,-0.058
0.791,-0.056
0.792,-0.059
0.793,-0.059
0.794,-0.061
0.795,-0.063
0.796,-0.063
0.797,-0.063
0.798,-0.061
0.799,-0.063
0.800,-0.061
0.801,-0.063
0.802,-0.063
0.803,-0.063
0.804,-0.063
0.805,-0.059
0.806,-0.063
0.807,-0.063
0.808,-0.063
0.809,-0.063
0.810,-0.063
0.811,-0.059
0.812,-0.061
0.813,-0.063
0.814,-0.061
0.815,-0.059
0.816,-0.063
0.817,-0.059
0.818,-0.063
0.819,-0.063
0.820,-0.061
0.821,-0.066
0.822,-0.067
0.823,-0.069
0.824,-0.064
0.825,-0.066
0.826,-0.067
0.827,-0.069
0.828,-0.064
0.829,-0.066
0.830,-0.066
0.831,-0.066
0.832,-0.066
0.833,-0.066
0.834,-0.072
0.835,-0.072
0.836,-0.074
0.837,-0.069
0.838,-0.069
0.839,-0.066
0.840,-0.069
0.841,-0.069
0.842,-0.072
0.843,-0.072
0.844,-0.072
0.845,-0.072
0.846,-0.075
0.847,-0.078
0.848,-0.077
0.849,-0.075
0.850,-0.077
0.851,-0.072
0.852,-0.076
0.853,-0.078
0.854,-0.077
0.855,-0.075
0.856,-0.079
0.857,-0.081
0.858,-0.081
0.859,-0.081
0.860,-0.078
0.861,-0.081
0.862,-0.081
0.863,-0.081
0.864,-0.086
0.865,-0.084
0.866,-0.084
0.867,-0.084
0.868,-0.083
0.869,-0.084
0.870,-0.084
0.871,-0.084
0.872,-0.084
0.873,-0.084
0.874,-0.087
0.875,-0.091
0.876,-0.091
0.877,-0.091
0.878,-0.094
0.879,-0.094
0.880,-0.095
0.881,-0.094
0.882,-0.093
0.883,-0.091
0.884,-0.087
0.885,-0.087
0.886,-0.089
0.887,-0.091
0.888,-0.091
0.889,-0.091
0.890,-0.092
0.891,-0.097
0.892,-0.097
0.893,-0.094
0.894,-0.097
0.895,-0.097
0.896,-0.098
0.897,-0.097
0.898,-0.094
0.899,-0.094
0.900,-0.094
0.901,-0.094
0.902,-0.094
0.903,-0.094
0.904,-0.093
0.905,-0.091
0.906,-0.091
0.907,-0.094
0.908,-0.094
0.909,-0.094
0.910,-0.094
0.911,-0.094
0.912,-0.097
0.913,-0.103
0.914,-0.102
0.915,-0.097
0.916,-0.100
0.917,-0.100
0.918,-0.100
0.919,-0.100
0.920,-0.099
0.921,-0.097
0.922,-0.100
0.923,-0.100
0.924,-0.101
0.925,-0.103
0.926,-0.100
0.927,-0.103
0.928,-0.103
0.929,-0.103
0.930,-0.104
0.931,-0.106
0.932,-0.105
0.933,-0.103
0.934,-0.103
0.935,-0.103
0.936,-0.103
0.937,-0.103
0.938,-0.103
0.939,-0.103
0.940,-0.107
0.941,-0.106
0.942,-0.105
0.943,-0.106
0.944,-0.106
0.945,-0.106
0.946,-0.107
0.947,-0.106
0.948,-0.109
0.949,-0.109
0.950,-0.109
0.951,-0.109
0.952,-0.109
0.953,-0.109
0.954,-0.109
0.955,-0.109
0.956,-0.112
0.957,-0.116
0.958,-0.116
0.959,-0.116
0.960,-0.114
0.961,-0.116
0.962,-0.112
0.963,-0.116
0.964,-0.117
0.965,-0.116
0.966,-0.112
0.967,-0.116
0.968,-0.117
0.969,-0.116
0.970,-0.114
0.971,-0.116
0.972,-0.114
0.973,-0.112
0.974,-0.117
0.975,-0.116
0.976,-0.116
0.977,-0.116
0.978,-0.117
0.979,-0.116
0.980,-0.116
0.981,-0.116
0.982,-0.116
0.983,-0.112
0.984,-0.111
0.985,-0.109
0.986,-0.111
0.987,-0.109
0.988,-0.109
0.989,-0.109
0.990,-0.117
0.991,-0.122
0.992,-0.119
0.993,-0.116
0.994,-0.112
0.995,-0.116
0.996,-0.119
0.997,-0.122
0.998,-0.119
0.999,-0.116
1.000,-0.111
1.001,-0.109
1.002,-0.108
1.003,-0.100
1.004,-0.093
1.005,-0.091
1.006,-0.093
1.007,-0.091
1.008,-0.089
1.009,-0.087
1.010,-0.086
1.011,-0.084
1.012,-0.086
1.013,-0.087
1.014,-0.087
1.015,-0.091
1.016,-0.094
1.017,-0.097
1.018,-0.100
1.019,-0.100
1.020,-0.096
1.021,-0.087
1.022,-0.078
1.023,-0.069
1.024,-0.063
1.025,-0.053
1.026,-0.050
1.027,-0.041
1.028,-0.037
1.029,-0.037
1.030,-0.039
1.031,-0.041
1.032,-0.039
1.033,-0.041
1.034,-0.039
1.035,-0.044
1.036,-0.044
1.037,-0.047
1.038,-0.053
1.039,-0.056
1.040,-0.059
1.041,-0.066
1.042,-0.064
1.043,-0.066
1.044,-0.066
1.045,-0.066
1.046,-0.082
1.047,-0.097
1.048,-0.107
1.049,-0.112
1.050,-0.114
1.051,-0.112
1.052,-0.108
1.053,-0.109
1.054,-0.106
1.055,-0.106
1.056,-0.100
1.057,-0.097
1.058,-0.095
1.059,-0.094
1.060,-0.096
1.061,-0.087
1.062,-0.089
1.063,-0.087
1.064,-0.087
1.065,-0.081
1.066,-0.074
1.067,-0.069
1.068,-0.063
1.069,-0.066
1.070,-0.066
1.071,-0.069
1.072,-0.072
1.073,-0.075
1.074,-0.073
1.075,-0.075
1.076,-0.073
1.077,-0.072
1.078,-0.075
1.079,-0.078
1.080,-0.082
1.081,-0.081
1.082,-0.082
1.083,-0.084
1.084,-0.086
1.085,-0.084
1.086,-0.084
1.087,-0.087
1.088,-0.084
1.089,-0.084
1.090,-0.094
1.091,-0.103
1.092,-0.109
1.093,-0.109
1.094,-0.112
1.095,-0.116
1.096,-0.117
1.097,-0.125
1.098,-0.131
1.099,-0.134
1.100,-0.139
1.101,-0.147
1.102,-0.150
1.103,-0.153
1.104,-0.159
1.105,-0.159
1.106,-0.161
1.107,-0.163
1.108,-0.161
1.109,-0.163
1.110,-0.164
1.111,-0.163
1.112,-0.164
1.113,-0.166
1.114,-0.161
1.115,-0.159
1.116,-0.152
1.117,-0.150
1.118,-0.147
1.119,-0.150
1.120,-0.147
1.121,-0.147
1.122,-0.146
1.123,-0.144
1.124,-0.150
1.125,-0.153
1.126,-0.152
1.127,-0.150
1.128,-0.151
1.129,-0.150
1.130,-0.149
1.131,-0.147
1.132,-0.148
1.133,-0.147
1.134,-0.142
1.135,-0.144
1.136,-0.144
1.137,-0.147
1.138,-0.144
1.139,-0.144
1.140,-0.142
1.141,-0.141
1.142,-0.145
1.143,-0.144
1.144,-0.141
1.145,-0.141
1.146,-0.144
1.147,-0.144
1.148,-0.145
1.149,-0.144
1.150,-0.148
1.151,-0.147
1.152,-0.146
1.153,-0.144
1.154,-0.142
1.155,-0.144
1.156,-0.141
1.157,-0.141
1.158,-0.142
1.159,-0.144
1.160,-0.142
1.161,-0.141
1.162,-0.142
1.163,-0.144
1.164,-0.145
1.165,-0.144
1.166,-0.144
1.167,-0.141
1.168,-0.137
1.169,-0.134
1.170,-0.134
1.171,-0.134
1.172,-0.130
1.173,-0.131
1.174,-0.133
1.175,-0.134
1.176,-0.131
1.177,-0.131
1.178,-0.131
1.179,-0.131
1.180,-0.134
1.181,-0.134
1.182,-0.134
1.183,-0.131
1.184,-0.130
1.185,-0.131
1.186,-0.127
1.187,-0.122
1.188,-0.121
1.189,-0.119
1.190,-0.116
1.191,-0.119
1.192,-0.120
1.193,-0.119
1.194,-0.114
1.195,-0.116
1.196,-0.114
1.197,-0.112
1.198,-0.116
1.199,-0.112
1.200,-0.112
1.201,-0.116
1.202,-0.116
1.203,-0.116
1.204,-0.112
1.205,-0.106
1.206,-0.106
1.207,-0.106
1.208,-0.112
1.209,-0.119
1.210,-0.119
1.211,-0.122
1.212,-0.126
1.213,-0.134
1.214,-0.136
1.215,-0.141
1.216,-0.153
1.217,-0.163
1.218,-0.172
1.219,-0.184
1.220,-0.191
1.221,-0.197
1.222,-0.205
1.223,-0.212
1.224,-0.222
1.225,-0.222
1.226,-0.226
1.227,-0.225
1.228,-0.212
1.229,-0.203
1.230,-0.184
1.231,-0.159
1.232,-0.136
1.233,-0.116
1.234,-0.094
1.235,-0.069
1.236,-0.033
1.237,0.003
1.238,0.048
1.239,0.097
1.240,0.154
1.241,0.213
1.242,0.276
1.243,0.341
1.244,0.414
1.245,0.497
1.246,0.581
1.247,0.663
1.248,0.742
1.249,0.809
1.250,0.867
1.251,0.891
1.252,0.906
1.253,0.919
1.254,0.924
1.255,0.934
1.256,0.939
1.257,0.941
1.258,0.936
1.259,0.919
1.260,0.897
1.261,0.856
1.262,0.814
1.263,0.778
1.264,0.749
1.265,0.712
1.266,0.683
1.267,0.650
1.268,0.611
1.269,0.553
1.270,0.481
1.271,0.403
1.272,0.305
1.273,0.175
1.274,0.051
1.275,-0.056
1.276,-0.152
1.277,-0.222
1.278,-0.297
1.279,-0.356
1.280,-0.407
1.281,-0.444
1.282,-0.469
1.283,-0.472
1.284,-0.471
1.285,-0.466
1.286,-0.452
1.287,-0.437
1.288,-0.421
1.289,-0.397
1.290,-0.372
1.291,-0.347
1.292,-0.325
1.293,-0.297
1.294,-0.273
1.295,-0.253
1.296,-0.236
1.297,-0.225
1.298,-0.214
1.299,-0.200
1.300,-0.186
1.301,-0.172
1.302,-0.159
1.303,-0.150
1.304,-0.137
1.305,-0.125
1.306,-0.116
1.307,-0.109
1.308,-0.103
1.309,-0.097
1.310,-0.089
1.311,-0.084
1.312,-0.080
1.313,-0.075
1.314,-0.072
1.315,-0.069
1.316,-0.066
1.317,-0.066
1.318,-0.063
1.319,-0.056
1.320,-0.053
1.321,-0.050
1.322,-0.050
1.323,-0.050
1.324,-0.050
1.325,-0.050
1.326,-0.053
1.327,-0.050
1.328,-0.050
1.329,-0.050
1.330,-0.051
1.331,-0.053
1.332,-0.056
1.333,-0.053
1.334,-0.052
1.335,-0.050
1.336,-0.047
1.337,-0.044
1.338,-0.041
1.339,-0.041
1.340,-0.041
1.341,-0.041
1.342,-0.039
1.343,-0.037
1.344,-0.039
1.345,-0.041
1.346,-0.039
1.347,-0.044
1.348,-0.047
1.349,-0.047
1.350,-0.044
1.351,-0.044
1.352,-0.041
1.353,-0.037
1.354,-0.031
1.355,-0.028
1.356,-0.028
1.357,-0.028
1.358,-0.029
1.359,-0.031
1.360,-0.029
1.361,-0.031
1.362,-0.030
1.363,-0.031
1.364,-0.028
1.365,-0.025
1.366,-0.022
1.367,-0.022
1.368,-0.023
1.369,-0.025
1.370,-0.024
1.371,-0.019
1.372,-0.016
1.373,-0.016
1.374,-0.017
1.375,-0.016
1.376,-0.014
1.377,-0.012
1.378,-0.009
1.379,-0.012
1.380,-0.011
1.381,-0.012
1.382,-0.014
1.383,-0.012
1.384,-0.011
1.385,-0.012
1.386,-0.009
1.387,-0.003
1.388,-0.002
1.389,0.003
1.390,0.003
1.391,0.006
1.392,0.005
1.393,0.006
1.394,0.006
1.395,0.009
1.396,0.005
1.397,0.006
1.398,0.005
1.399,0.006
1.400,0.011
1.401,0.009
1.402,0.011
1.403,0.016
1.404,0.019
1.405,0.022
1.406,0.024
1.407,0.022
1.408,0.026
1.409,0.028
1.410,0.033
1.411,0.031
1.412,0.034
1.413,0.034
1.414,0.036
1.415,0.044
1.416,0.047
1.417,0.047
1.418,0.050
1.419,0.053
1.420,0.058
1.421,0.063
1.422,0.063
1.423,0.066
1.424,0.070
1.425,0.075
1.426,0.081
1.427,0.081
1.428,0.084
1.429,0.084
1.430,0.086
1.431,0.088
1.432,0.092
1.433,0.097
1.434,0.102
1.435,0.103
1.436,0.105
1.437,0.106
1.438,0.113
1.439,0.119
1.440,0.121
1.441,0.119
1.442,0.128
1.443,0.134
1.444,0.136
1.445,0.137
1.446,0.139
1.447,0.141
1.448,0.141
1.449,0.141
1.450,0.148
1.451,0.153
1.452,0.159
1.453,0.166
1.454,0.172
1.455,0.178
1.456,0.181
1.457,0.188
1.458,0.191
1.459,0.191
1.460,0.193
1.461,0.197
1.462,0.199
1.463,0.200
1.464,0.201
1.465,0.206
1.466,0.213
1.467,0.216
1.468,0.218
1.469,0.219
1.470,0.220
1.471,0.225
1.472,0.228
1.473,0.231
1.474,0.230
1.475,0.231
1.476,0.233
1.477,0.234
1.478,0.236
1.479,0.241
1.480,0.244
1.481,0.244
1.482,0.248
1.483,0.250
1.484,0.252
1.485,0.250
1.486,0.258
1.487,0.259
1.488,0.259
1.489,0.263
1.490,0.264
1.491,0.263
1.492,0.267
1.493,0.275
1.494,0.274
1.495,0.275
1.496,0.275
1.497,0.275
1.498,0.277
1.499,0.275
1.500,0.277
1.501,0.275
1.502,0.274
1.503,0.275
1.504,0.278
1.505,0.284
1.506,0.284
1.507,0.281
1.508,0.286
1.509,0.288
1.510,0.288
1.511,0.291
1.512,0.294
1.513,0.294
1.514,0.298
1.515,0.300
1.516,0.309
1.517,0.312
1.518,0.311
1.519,0.309
1.520,0.312
1.521,0.316
1.522,0.317
1.523,0.316
1.524,0.317
1.525,0.316
1.526,0.316
1.527,0.316
1.528,0.314
1.529,0.312
1.530,0.306
1.531,0.306
1.532,0.307
1.533,0.309
1.534,0.306
1.535,0.300
1.536,0.301
1.537,0.297
1.538,0.291
1.539,0.288
1.540,0.283
1.541,0.275
1.542,0.272
1.543,0.269
1.544,0.266
1.545,0.263
1.546,0.255
1.547,0.247
1.548,0.244
1.549,0.241
1.550,0.234
1.551,0.228
1.552,0.222
1.553,0.213
1.554,0.207
1.555,0.203
1.556,0.199
1.557,0.188
1.558,0.183
1.559,0.178
1.560,0.170
1.561,0.163
1.562,0.155
1.563,0.144
1.564,0.139
1.565,0.137
1.566,0.134
1.567,0.128
1.568,0.120
1.569,0.116
1.570,0.108
1.571,0.100
1.572,0.094
1.573,0.084
1.574,0.075
1.575,0.069
1.576,0.064
1.577,0.059
1.578,0.054
1.579,0.047
1.580,0.042
1.581,0.034
1.582,0.034
1.583,0.031
1.584,0.029
1.585,0.025
1.586,0.019
1.587,0.013
1.588,0.009
1.589,0.006
1.590,0.003
1.591,0.003
1.592,-0.003
1.593,-0.006
1.594,-0.009
1.595,-0.012
1.596,-0.011
1.597,-0.016
1.598,-0.020
1.599,-0.022
1.600,-0.025
1.601,-0.028
1.602,-0.028
1.603,-0.031
1.604,-0.034
1.605,-0.034
1.606,-0.033
1.607,-0.034
1.608,-0.036
1.609,-0.034
1.610,-0.039
1.611,-0.041
1.612,-0.044
1.613,-0.050
1.614,-0.049
1.615,-0.050
1.616,-0.050
1.617,-0.050
1.618,-0.050
1.619,-0.050
1.620,-0.053
1.621,-0.050
1.622,-0.053
1.623,-0.056
1.624,-0.056
1.625,-0.053
1.626,-0.053
1.627,-0.053
1.628,-0.055
1.629,-0.053
1.630,-0.050
1.631,-0.047
1.632,-0.050
1.633,-0.047
1.634,-0.045
1.635,-0.050
1.636,-0.054
1.637,-0.059
1.638,-0.061
1.639,-0.063
1.640,-0.063
1.641,-0.063
1.642,-0.064
1.643,-0.059
1.644,-0.058
1.645,-0.056
1.646,-0.059
1.647,-0.063
1.648,-0.061
1.649,-0.059
1.650,-0.056
1.651,-0.053
1.652,-0.058
1.653,-0.059
1.654,-0.059
1.655,-0.056
1.656,-0.059
1.657,-0.059
1.658,-0.061
1.659,-0.059
1.660,-0.059
1.661,-0.056
1.662,-0.055
1.663,-0.056
1.664,-0.059
1.665,-0.063
1.666,-0.063
1.667,-0.063
1.668,-0.061
1.669,-0.059
1.670,-0.055
1.671,-0.056
1.672,-0.055
1.673,-0.053
1.674,-0.053
1.675,-0.053
1.676,-0.058
1.677,-0.056
1.678,-0.056
1.679,-0.056
1.680,-0.058
1.681,-0.059
1.682,-0.056
1.683,-0.053
1.684,-0.053
1.685,-0.056
1.686,-0.059
1.687,-0.059
1.688,-0.059
1.689,-0.056
1.690,-0.058
1.691,-0.059
1.692,-0.059
1.693,-0.059
1.694,-0.055
1.695,-0.053
1.696,-0.052
1.697,-0.053
1.698,-0.053
1.699,-0.053
1.700,-0.056
1.701,-0.056
1.702,-0.061
1.703,-0.063
1.704,-0.059
1.705,-0.056
1.706,-0.058
1.707,-0.056
1.708,-0.058
1.709,-0.059
1.710,-0.058
1.711,-0.056
1.712,-0.059
1.713,-0.056
1.714,-0.059
1.715,-0.059
1.716,-0.055
1.717,-0.056
1.718,-0.056
1.719,-0.056
1.720,-0.052
1.721,-0.053
1.722,-0.054
1.723,-0.056
1.724,-0.052
1.725,-0.053
1.726,-0.053
1.727,-0.053
1.728,-0.054
1.729,-0.056
1.730,-0.059
1.731,-0.056
1.732,-0.061
1.733,-0.059
1.734,-0.066
1.735,-0.069
1.736,-0.070
1.737,-0.069
1.738,-0.069
1.739,-0.066
1.740,-0.067
1.741,-0.069
1.742,-0.066
1.743,-0.063
1.744,-0.061
1.745,-0.059
1.746,-0.066
1.747,-0.066
1.748,-0.069
1.749,-0.069
1.750,-0.069
1.751,-0.069
1.752,-0.072
1.753,-0.072
1.754,-0.072
1.755,-0.072
1.756,-0.069
1.757,-0.072
1.758,-0.071
1.759,-0.069
1.760,-0.071
1.761,-0.066
1.762,-0.066
1.763,-0.066
1.764,-0.067
1.765,-0.072
1.766,-0.072
1.767,-0.072
1.768,-0.072
1.769,-0.072
1.770,-0.072
1.771,-0.072
1.772,-0.073
1.773,-0.075
1.774,-0.078
1.775,-0.078
1.776,-0.078
1.777,-0.075
1.778,-0.077
1.779,-0.078
1.780,-0.078
1.781,-0.081
1.782,-0.082
1.783,-0.084
1.784,-0.084
1.785,-0.084
1.786,-0.081
1.787,-0.081
1.788,-0.082
1.789,-0.081
1.790,-0.083
1.791,-0.081
1.792,-0.081
1.793,-0.078
1.794,-0.077
1.795,-0.078
1.796,-0.082
1.797,-0.087
1.798,-0.087
1.799,-0.087
1.800,-0.087
1.801,-0.087
1.802,-0.086
1.803,-0.087
1.804,-0.084
1.805,-0.081
1.806,-0.082
1.807,-0.084
1.808,-0.086
1.809,-0.091
1.810,-0.091
1.811,-0.087
1.812,-0.091
1.813,-0.091
1.814,-0.091
1.815,-0.091
1.816,-0.091
1.817,-0.091
1.818,-0.094
1.819,-0.094
1.820,-0.095
1.821,-0.097
1.822,-0.094
1.823,-0.097
1.824,-0.098
1.825,-0.100
1.826,-0.099
1.827,-0.097
1.828,-0.097
1.829,-0.097
1.830,-0.098
1.831,-0.100
1.832,-0.101
1.833,-0.103
1.834,-0.102
1.835,-0.100
1.836,-0.104
1.837,-0.103
1.838,-0.102
1.839,-0.103
1.840,-0.103
1.841,-0.103
1.842,-0.104
1.843,-0.103
1.844,-0.100
1.845,-0.094
1.846,-0.095
1.847,-0.097
1.848,-0.097
1.849,-0.097
1.850,-0.096
1.851,-0.094
1.852,-0.094
1.853,-0.094
1.854,-0.095
1.855,-0.097
1.856,-0.100
1.857,-0.106
1.858,-0.103
1.859,-0.106
1.860,-0.107
1.861,-0.106
1.862,-0.103
1.863,-0.106
1.864,-0.109
1.865,-0.109
1.866,-0.108
1.867,-0.109
1.868,-0.106
1.869,-0.103
1.870,-0.106
1.871,-0.103
1.872,-0.103
1.873,-0.103
1.874,-0.100
1.875,-0.094
1.876,-0.089
1.877,-0.084
1.878,-0.084
1.879,-0.081
1.880,-0.081
1.881,-0.081
1.882,-0.082
1.883,-0.081
1.884,-0.082
1.885,-0.084
1.886,-0.087
1.887,-0.087
1.888,-0.086
1.889,-0.084
1.890,-0.081
1.891,-0.084
1.892,-0.081
1.893,-0.078
1.894,-0.072
1.895,-0.066
1.896,-0.059
1.897,-0.056
1.898,-0.052
1.899,-0.041
1.900,-0.041
1.901,-0.041
1.902,-0.042
1.903,-0.044
1.904,-0.042
1.905,-0.041
1.906,-0.045
1.907,-0.044
1.908,-0.048
1.909,-0.050
1.910,-0.050
1.911,-0.053
1.912,-0.058
1.913,-0.063
1.914,-0.067
1.915,-0.066
1.916,-0.070
1.917,-0.075
1.918,-0.077
1.919,-0.091
1.920,-0.099
1.921,-0.103
1.922,-0.105
1.923,-0.106
1.924,-0.107
1.925,-0.106
1.926,-0.109
1.927,-0.106
1.928,-0.105
1.929,-0.097
1.930,-0.095
1.931,-0.094
1.932,-0.089
1.933,-0.091
1.934,-0.086
1.935,-0.084
1.936,-0.075
1.937,-0.072
1.938,-0.066
1.939,-0.059
1.940,-0.063
1.941,-0.063
1.942,-0.066
1.943,-0.069
1.944,-0.071
1.945,-0.069
1.946,-0.073
1.947,-0.072
1.948,-0.073
1.949,-0.072
1.950,-0.067
1.951,-0.069
1.952,-0.071
1.953,-0.072
1.954,-0.069
1.955,-0.069
1.956,-0.069
1.957,-0.072
1.958,-0.075
1.959,-0.078
1.960,-0.086
1.961,-0.091
1.962,-0.093
1.963,-0.100
1.964,-0.105
1.965,-0.106
1.966,-0.107
1.967,-0.112
1.968,-0.120
1.969,-0.128
1.970,-0.137
1.971,-0.144
1.972,-0.147
1.973,-0.153
1.974,-0.163
1.975,-0.163
1.976,-0.159
1.977,-0.163
1.978,-0.163
1.979,-0.163
1.980,-0.163
1.981,-0.163
1.982,-0.164
1.983,-0.163
1.984,-0.159
1.985,-0.159
1.986,-0.158
1.987,-0.153
1.988,-0.153
1.989,-0.147
1.990,-0.147
1.991,-0.144
1.992,-0.148
1.993,-0.147
1.994,-0.146
1.995,-0.144
1.996,-0.144
1.997,-0.147
1.998,-0.146
1.999,-0.144
2.000,-0.144
2.001,-0.144
2.002,-0.141
2.003,-0.141
2.004,-0.142
2.005,-0.144
2.006,-0.142
2.007,-0.141
2.008,-0.142
2.009,-0.141
2.010,-0.144
2.011,-0.141
2.012,-0.144
2.013,-0.147
2.014,-0.146
2.015,-0.147
2.016,-0.144
2.017,-0.144
2.018,-0.147
2.019,-0.147
2.020,-0.141
2.021,-0.137
2.022,-0.134
2.023,-0.137
2.024,-0.137
2.025,-0.141
2.026,-0.141
2.027,-0.141
2.028,-0.144
2.029,-0.141
2.030,-0.142
2.031,-0.144
2.032,-0.141
2.033,-0.137
2.034,-0.137
2.035,-0.137
2.036,-0.137
2.037,-0.137
2.038,-0.133
2.039,-0.131
2.040,-0.128
2.041,-0.128
2.042,-0.129
2.043,-0.131
2.044,-0.133
2.045,-0.131
2.046,-0.136
2.047,-0.137
2.048,-0.136
2.049,-0.131
2.050,-0.133
2.051,-0.134
2.052,-0.134
2.053,-0.134
2.054,-0.130
2.055,-0.128
2.056,-0.124
2.057,-0.122
2.058,-0.126
2.059,-0.125
2.060,-0.123
2.061,-0.125
2.062,-0.126
2.063,-0.125
2.064,-0.127
2.065,-0.125
2.066,-0.123
2.067,-0.122
2.068,-0.126
2.069,-0.128
2.070,-0.127
2.071,-0.125
2.072,-0.116
2.073,-0.112
2.074,-0.116
2.075,-0.116
2.076,-0.114
2.077,-0.112
2.078,-0.112
2.079,-0.116
2.080,-0.116
2.081,-0.119
2.082,-0.121
2.083,-0.122
2.084,-0.133
2.085,-0.137
2.086,-0.139
2.087,-0.141
2.088,-0.150
2.089,-0.163
2.090,-0.175
2.091,-0.191
2.092,-0.202
2.093,-0.212
2.094,-0.224
2.095,-0.231
2.096,-0.241
2.097,-0.247
2.098,-0.239
2.099,-0.234
2.100,-0.228
2.101,-0.216
2.102,-0.199
2.103,-0.175
2.104,-0.150
2.105,-0.125
2.106,-0.103
2.107,-0.075
2.108,-0.044
2.109,-0.009
2.110,0.028
2.111,0.072
2.112,0.114
2.113,0.172
2.114,0.224
2.115,0.281
2.116,0.336
2.117,0.397
2.118,0.468
2.119,0.544
2.120,0.619
2.121,0.691
2.122,0.738
2.123,0.769
2.124,0.777
2.125,0.784
2.126,0.807
2.127,0.834
2.128,0.867
2.129,0.897
2.130,0.911
2.131,0.916
2.132,0.911
2.133,0.897
2.134,0.870
2.135,0.847
2.136,0.826
2.137,0.803
2.138,0.769
2.139,0.734
2.140,0.686
2.141,0.634
2.142,0.579
2.143,0.516
2.144,0.433
2.145,0.328
2.146,0.203
2.147,0.075
2.148,-0.030
2.149,-0.119
2.150,-0.186
2.151,-0.250
2.152,-0.305
2.153,-0.353
2.154,-0.389
2.155,-0.422
2.156,-0.437
2.157,-0.450
2.158,-0.454
2.159,-0.444
2.160,-0.434
2.161,-0.425
2.162,-0.414
2.163,-0.403
2.164,-0.384
2.165,-0.359
2.166,-0.328
2.167,-0.303
2.168,-0.281
2.169,-0.259
2.170,-0.241
2.171,-0.225
2.172,-0.214
2.173,-0.206
2.174,-0.194
2.175,-0.181
2.176,-0.171
2.177,-0.156
2.178,-0.144
2.179,-0.134
2.180,-0.128
2.181,-0.122
2.182,-0.117
2.183,-0.112
2.184,-0.112
2.185,-0.112
2.186,-0.105
2.187,-0.094
2.188,-0.083
2.189,-0.072
2.190,-0.069
2.191,-0.069
2.192,-0.066
2.193,-0.063
2.194,-0.061
2.195,-0.063
2.196,-0.063
2.197,-0.063
2.198,-0.059
2.199,-0.059
2.200,-0.059
2.201,-0.063
2.202,-0.063
2.203,-0.063
2.204,-0.059
2.205,-0.059
2.206,-0.056
2.207,-0.056
2.208,-0.056
2.209,-0.053
2.210,-0.053
2.211,-0.053
2.212,-0.053
2.213,-0.053
2.214,-0.053
2.215,-0.053
2.216,-0.053
2.217,-0.053
2.218,-0.054
2.219,-0.053
2.220,-0.053
2.221,-0.050
2.222,-0.048
2.223,-0.047
2.224,-0.048
2.225,-0.050
2.226,-0.046
2.227,-0.037
2.228,-0.037
2.229,-0.037
2.230,-0.037
2.231,-0.037
2.232,-0.039
2.233,-0.037
2.234,-0.037
2.235,-0.037
2.236,-0.041
2.237,-0.037
2.238,-0.036
2.239,-0.034
2.240,-0.036
2.241,-0.037
2.242,-0.036
2.243,-0.034
2.244,-0.030
2.245,-0.025
2.246,-0.025
2.247,-0.025
2.248,-0.021
2.249,-0.019
2.250,-0.020
2.251,-0.019
2.252,-0.021
2.253,-0.016
2.254,-0.012
2.255,-0.009
2.256,-0.007
2.257,-0.006
2.258,-0.006
2.259,-0.006
2.260,-0.002
2.261,0.000
2.262,0.000
2.263,-0.003
2.264,0.000
2.265,0.000
2.266,0.003
2.267,0.003
2.268,0.006
2.269,0.003
2.270,0.006
2.271,0.006
2.272,0.006
2.273,0.009
2.274,0.016
2.275,0.022
2.276,0.022
2.277,0.022
2.278,0.022
2.279,0.022
2.280,0.023
2.281,0.028
2.282,0.029
2.283,0.037
2.284,0.041
2.285,0.047
2.286,0.048
2.287,0.050
2.288,0.052
2.289,0.050
2.290,0.047
2.291,0.047
2.292,0.049
2.293,0.050
2.294,0.058
2.295,0.063
2.296,0.064
2.297,0.066
2.298,0.072
2.299,0.081
2.300,0.081
2.301,0.084
2.302,0.083
2.303,0.084
2.304,0.091
2.305,0.097
2.306,0.097
2.307,0.100
2.308,0.100
2.309,0.100
2.310,0.103
2.311,0.106
2.312,0.108
2.313,0.109
2.314,0.111
2.315,0.119
2.316,0.125
2.317,0.131
2.318,0.134
2.319,0.137
2.320,0.141
2.321,0.144
2.322,0.146
2.323,0.150
2.324,0.152
2.325,0.153
2.326,0.156
2.327,0.159
2.328,0.166
2.329,0.169
2.330,0.168
2.331,0.169
2.332,0.172
2.333,0.175
2.334,0.183
2.335,0.188
2.336,0.192
2.337,0.194
2.338,0.197
2.339,0.203
2.340,0.206
2.341,0.209
2.342,0.214
2.343,0.216
2.344,0.220
2.345,0.225
2.346,0.224
2.347,0.219
2.348,0.222
2.349,0.225
2.350,0.228
2.351,0.228
2.352,0.231
2.353,0.234
2.354,0.234
2.355,0.237
2.356,0.234
2.357,0.234
2.358,0.234
2.359,0.241
2.360,0.244
2.361,0.247
2.362,0.250
2.363,0.253
2.364,0.254
2.365,0.256
2.366,0.256
2.367,0.253
2.368,0.253
2.369,0.250
2.370,0.250
2.371,0.253
2.372,0.253
2.373,0.256
2.374,0.256
2.375,0.256
2.376,0.258
2.377,0.256
2.378,0.263
2.379,0.269
2.380,0.269
2.381,0.272
2.382,0.273
2.383,0.275
2.384,0.275
2.385,0.275
2.386,0.278
2.387,0.284
2.388,0.283
2.389,0.288
2.390,0.288
2.391,0.288
2.392,0.284
2.393,0.284
2.394,0.288
2.395,0.288
2.396,0.288
2.397,0.291
2.398,0.288
2.399,0.288
2.400,0.288
2.401,0.288
2.402,0.288
2.403,0.281
2.404,0.281
2.405,0.281
2.406,0.277
2.407,0.269
2.408,0.266
2.409,0.269
2.410,0.267
2.411,0.266
2.412,0.258
2.413,0.250
2.414,0.247
2.415,0.244
2.416,0.234
2.417,0.228
2.418,0.228
2.419,0.225
2.420,0.222
2.421,0.219
2.422,0.209
2.423,0.203
2.424,0.200
2.425,0.194
2.426,0.184
2.427,0.178
2.428,0.172
2.429,0.169
2.430,0.159
2.431,0.153
2.432,0.150
2.433,0.144
2.434,0.134
2.435,0.131
2.436,0.124
2.437,0.113
2.438,0.105
2.439,0.100
2.440,0.095
2.441,0.088
2.442,0.083
2.443,0.078
2.444,0.071
2.445,0.063
2.446,0.056
2.447,0.053
2.448,0.051
2.449,0.050
2.450,0.044
2.451,0.034
2.452,0.026
2.453,0.025
2.454,0.020
2.455,0.019
2.456,0.013
2.457,0.009
2.458,0.004
2.459,0.003
2.460,0.000
2.461,-0.003
2.462,-0.009
2.463,-0.019
2.464,-0.023
2.465,-0.028
2.466,-0.027
2.467,-0.028
2.468,-0.031
2.469,-0.031
2.470,-0.036
2.471,-0.037
2.472,-0.036
2.473,-0.037
2.474,-0.041
2.475,-0.041
2.476,-0.045
2.477,-0.050
2.478,-0.050
2.479,-0.050
2.480,-0.054
2.481,-0.059
2.482,-0.056
2.483,-0.056
2.484,-0.056
2.485,-0.056
2.486,-0.064
2.487,-0.069
2.488,-0.071
2.489,-0.069
2.490,-0.070
2.491,-0.072
2.492,-0.072
2.493,-0.075
2.494,-0.071
2.495,-0.072
2.496,-0.074
2.497,-0.072
2.498,-0.070
2.499,-0.072
2.500,-0.071
2.501,-0.072
2.502,-0.072
2.503,-0.072
2.504,-0.071
2.505,-0.072
2.506,-0.072
2.507,-0.072
2.508,-0.075
2.509,-0.075
2.510,-0.074
2.511,-0.072
2.512,-0.069
2.513,-0.066
2.514,-0.064
2.515,-0.066
2.516,-0.067
2.517,-0.072
2.518,-0.072
2.519,-0.072
2.520,-0.069
2.521,-0.066
2.522,-0.066
2.523,-0.066
2.524,-0.070
2.525,-0.078
2.526,-0.072
2.527,-0.066
2.528,-0.064
2.529,-0.069
2.530,-0.072
2.531,-0.075
2.532,-0.069
2.533,-0.066
2.534,-0.063
2.535,-0.063
2.536,-0.061
2.537,-0.056
2.538,-0.058
2.539,-0.059
2.540,-0.063
2.541,-0.066
2.542,-0.072
2.543,-0.075
2.544,-0.077
2.545,-0.075
2.546,-0.075
2.547,-0.075
2.548,-0.075
2.549,-0.078
2.550,-0.074
2.551,-0.072
2.552,-0.072
2.553,-0.072
2.554,-0.071
2.555,-0.069
2.556,-0.072
2.557,-0.075
2.558,-0.079
2.559,-0.081
2.560,-0.075
2.561,-0.075
2.562,-0.076
2.563,-0.078
2.564,-0.079
2.565,-0.081
2.566,-0.078
2.567,-0.072
2.568,-0.069
2.569,-0.066
2.570,-0.067
2.571,-0.066
2.572,-0.067
2.573,-0.069
2.574,-0.066
2.575,-0.069
2.576,-0.069
2.577,-0.069
2.578,-0.070
2.579,-0.072
2.580,-0.069
2.581,-0.072
2.582,-0.076
2.583,-0.075
2.584,-0.071
2.585,-0.072
2.586,-0.069
2.587,-0.072
2.588,-0.073
2.589,-0.072
2.590,-0.074
2.591,-0.072
2.592,-0.072
2.593,-0.069
2.594,-0.071
2.595,-0.069
2.596,-0.070
2.597,-0.069
2.598,-0.072
2.599,-0.072
2.600,-0.072
2.601,-0.072
2.602,-0.072
2.603,-0.075
2.604,-0.071
2.605,-0.072
2.606,-0.069
2.607,-0.072
2.608,-0.073
2.609,-0.075
2.610,-0.071
2.611,-0.072
2.612,-0.072
2.613,-0.072
2.614,-0.072
2.615,-0.072
2.616,-0.072
2.617,-0.072
2.618,-0.072
2.619,-0.075
2.620,-0.071
2.621,-0.072
2.622,-0.076
2.623,-0.081
2.624,-0.081
2.625,-0.084
2.626,-0.083
2.627,-0.081
2.628,-0.082
2.629,-0.081
2.630,-0.083
2.631,-0.081
2.632,-0.077
2.633,-0.075
2.634,-0.075
2.635,-0.078
2.636,-0.079
2.637,-0.081
2.638,-0.084
2.639,-0.084
2.640,-0.084
2.641,-0.084
2.642,-0.084
2.643,-0.084
2.644,-0.084
2.645,-0.084
2.646,-0.083
2.647,-0.084
2.648,-0.081
2.649,-0.078
2.650,-0.074
2.651,-0.075
2.652,-0.078
2.653,-0.075
2.654,-0.076
2.655,-0.078
2.656,-0.081
2.657,-0.084
2.658,-0.084
2.659,-0.084
2.660,-0.087
2.661,-0.087
2.662,-0.083
2.663,-0.084
2.664,-0.086
2.665,-0.087
2.666,-0.084
2.667,-0.084
2.668,-0.087
2.669,-0.087
2.670,-0.087
2.671,-0.087
2.672,-0.087
2.673,-0.087
2.674,-0.087
2.675,-0.087
2.676,-0.091
2.677,-0.091
2.678,-0.091
2.679,-0.091
2.680,-0.091
2.681,-0.091
2.682,-0.093
2.683,-0.091
2.684,-0.086
2.685,-0.087
2.686,-0.089
2.687,-0.091
2.688,-0.091
2.689,-0.091
2.690,-0.089
2.691,-0.091
2.692,-0.092
2.693,-0.094
2.694,-0.095
2.695,-0.094
2.696,-0.098
2.697,-0.100
2.698,-0.100
2.699,-0.100
2.700,-0.099
2.701,-0.097
2.702,-0.097
2.703,-0.097
2.704,-0.096
2.705,-0.094
2.706,-0.095
2.707,-0.097
2.708,-0.097
2.709,-0.100
2.710,-0.098
2.711,-0.100
2.712,-0.102
2.713,-0.100
2.714,-0.099
2.715,-0.097
2.716,-0.097
2.717,-0.103
2.718,-0.104
2.719,-0.106
2.720,-0.105
2.721,-0.103
2.722,-0.102
2.723,-0.100
2.724,-0.097
2.725,-0.094
2.726,-0.093
2.727,-0.091
2.728,-0.092
2.729,-0.094
2.730,-0.097
2.731,-0.094
2.732,-0.094
2.733,-0.091
2.734,-0.083
2.735,-0.075
2.736,-0.078
2.737,-0.078
2.738,-0.075
2.739,-0.075
2.740,-0.079
2.741,-0.078
2.742,-0.075
2.743,-0.078
2.744,-0.078
2.745,-0.081
2.746,-0.084
2.747,-0.087
2.748,-0.086
2.749,-0.084
2.750,-0.077
2.751,-0.072
2.752,-0.061
2.753,-0.050
2.754,-0.046
2.755,-0.037
2.756,-0.034
2.757,-0.034
2.758,-0.034
2.759,-0.034
2.760,-0.033
2.761,-0.034
2.762,-0.030
2.763,-0.031
2.764,-0.028
2.765,-0.028
2.766,-0.037
2.767,-0.044
2.768,-0.044
2.769,-0.047
2.770,-0.047
2.771,-0.050
2.772,-0.058
2.773,-0.066
2.774,-0.081
2.775,-0.094
2.776,-0.106
2.777,-0.112
2.778,-0.117
2.779,-0.119
2.780,-0.117
2.781,-0.122
2.782,-0.117
2.783,-0.116
2.784,-0.112
2.785,-0.112
2.786,-0.109
2.787,-0.106
2.788,-0.103
2.789,-0.091
2.790,-0.087
2.791,-0.081
2.792,-0.078
2.793,-0.069
2.794,-0.063
2.795,-0.059
2.796,-0.053
2.797,-0.056
2.798,-0.055
2.799,-0.056
2.800,-0.058
2.801,-0.059
2.802,-0.058
2.803,-0.059
2.804,-0.058
2.805,-0.056
2.806,-0.063
2.807,-0.069
2.808,-0.072
2.809,-0.069
2.810,-0.066
2.811,-0.063
2.812,-0.066
2.813,-0.066
2.814,-0.064
2.815,-0.066
2.816,-0.067
2.817,-0.072
2.818,-0.078
2.819,-0.084
2.820,-0.089
2.821,-0.087
2.822,-0.097
2.823,-0.106
2.824,-0.111
2.825,-0.122
2.826,-0.128
2.827,-0.131
2.828,-0.136
2.829,-0.144
2.830,-0.142
2.831,-0.141
2.832,-0.147
2.833,-0.147
2.834,-0.147
2.835,-0.147
2.836,-0.147
2.837,-0.150
2.838,-0.151
2.839,-0.150
2.840,-0.151
2.841,-0.153
2.842,-0.147
2.843,-0.144
2.844,-0.137
2.845,-0.137
2.846,-0.133
2.847,-0.134
2.848,-0.131
2.849,-0.131
2.850,-0.131
2.851,-0.131
2.852,-0.136
2.853,-0.137
2.854,-0.137
2.855,-0.137
2.856,-0.139
2.857,-0.137
2.858,-0.134
2.859,-0.131
2.860,-0.131
2.861,-0.128
2.862,-0.125
2.863,-0.128
2.864,-0.127
2.865,-0.128
2.866,-0.125
2.867,-0.125
2.868,-0.125
2.869,-0.125
2.870,-0.129
2.871,-0.128
2.872,-0.129
2.873,-0.134
2.874,-0.134
2.875,-0.131
2.876,-0.131
2.877,-0.128
2.878,-0.133
2.879,-0.131
2.880,-0.131
2.881,-0.131
2.882,-0.128
2.883,-0.128
2.884,-0.125
2.885,-0.125
2.886,-0.125
2.887,-0.125
2.888,-0.125
2.889,-0.125
2.890,-0.126
2.891,-0.128
2.892,-0.128
2.893,-0.125
2.894,-0.126
2.895,-0.125
2.896,-0.125
2.897,-0.125
2.898,-0.125
2.899,-0.125
2.900,-0.119
2.901,-0.119
2.902,-0.117
2.903,-0.116
2.904,-0.111
2.905,-0.109
2.906,-0.112
2.907,-0.116
2.908,-0.119
2.909,-0.119
2.910,-0.119
2.911,-0.116
2.912,-0.114
2.913,-0.116
2.914,-0.111
2.915,-0.106
2.916,-0.107
2.917,-0.109
2.918,-0.106
2.919,-0.109
2.920,-0.111
2.921,-0.109
2.922,-0.106
2.923,-0.109
2.924,-0.109
2.925,-0.109
2.926,-0.109
2.927,-0.103
2.928,-0.102
2.929,-0.103
2.930,-0.099
2.931,-0.094
2.932,-0.094
2.933,-0.091
2.934,-0.092
2.935,-0.094
2.936,-0.097
2.937,-0.100
2.938,-0.102
2.939,-0.106
2.940,-0.106
2.941,-0.109
2.942,-0.116
2.943,-0.125
2.944,-0.137
2.945,-0.147
2.946,-0.161
2.947,-0.178
2.948,-0.189
2.949,-0.200
2.950,-0.208
2.951,-0.216
2.952,-0.226
2.953,-0.228
2.954,-0.225
2.955,-0.216
2.956,-0.206
2.957,-0.200
2.958,-0.186
2.959,-0.166
2.960,-0.147
2.961,-0.131
2.962,-0.102
2.963,-0.069
2.964,-0.037
2.965,-0.006
2.966,0.030
2.967,0.069
2.968,0.124
2.969,0.178
2.970,0.236
2.971,0.294
2.972,0.347
2.973,0.409
2.974,0.489
2.975,0.566
2.976,0.647
2.977,0.716
2.978,0.766
2.979,0.781
2.980,0.801
2.981,0.819
2.982,0.850
2.983,0.888
2.984,0.925
2.985,0.959
2.986,0.986
2.987,1.000
2.988,0.997
2.989,0.975
2.990,0.953
2.991,0.938
2.992,0.911
2.993,0.878
2.994,0.842
2.995,0.803
2.996,0.763
2.997,0.703
2.998,0.647
2.999,0.584
3.000,0.491
3.001,0.366
3.002,0.221
3.003,0.091
3.004,-0.023
3.005,-0.112
3.006,-0.192
3.007,-0.256
3.008,-0.311
3.009,-0.350
3.010,-0.391
3.011,-0.409
3.012,-0.422
3.013,-0.431
3.014,-0.426
3.015,-0.422
3.016,-0.414
3.017,-0.400
3.018,-0.384
3.019,-0.369
3.020,-0.341
3.021,-0.306
3.022,-0.281
3.023,-0.259
3.024,-0.233
3.025,-0.212
3.026,-0.197
3.027,-0.178
3.028,-0.169
3.029,-0.159
3.030,-0.146
3.031,-0.134
3.032,-0.123
3.033,-0.112
3.034,-0.102
3.035,-0.094
3.036,-0.084
3.037,-0.075
3.038,-0.069
3.039,-0.066
3.040,-0.064
3.041,-0.063
3.042,-0.056
3.043,-0.050
3.044,-0.041
3.045,-0.034
3.046,-0.036
3.047,-0.034
3.048,-0.028
3.049,-0.022
3.050,-0.023
3.051,-0.025
3.052,-0.025
3.053,-0.025
3.054,-0.028
3.055,-0.025
3.056,-0.025
3.057,-0.025
3.058,-0.028
3.059,-0.031
3.060,-0.031
3.061,-0.025
3.062,-0.024
3.063,-0.022
3.064,-0.020
3.065,-0.019
3.066,-0.017
3.067,-0.019
3.068,-0.017
3.069,-0.016
3.070,-0.014
3.071,-0.012
3.072,-0.014
3.073,-0.016
3.074,-0.011
3.075,-0.012
3.076,-0.014
3.077,-0.012
3.078,-0.009
3.079,-0.009
3.080,-0.011
3.081,-0.012
3.082,-0.011
3.083,-0.012
3.084,-0.012
3.085,-0.012
3.086,-0.009
3.087,-0.006
3.088,-0.003
3.089,-0.003
3.090,-0.004
3.091,-0.009
3.092,-0.005
3.093,0.000
3.094,0.002
3.095,0.000
3.096,0.000
3.097,0.000
3.098,-0.001
3.099,0.000
3.100,0.003
3.101,0.003
3.102,0.006
3.103,0.013
3.104,0.013
3.105,0.013
3.106,0.014
3.107,0.009
3.108,0.011
3.109,0.009
3.110,0.008
3.111,0.009
3.112,0.011
3.113,0.009
3.114,0.014
3.115,0.022
3.116,0.022
3.117,0.025
3.118,0.026
3.119,0.031
3.120,0.034
3.121,0.041
3.122,0.039
3.123,0.041
3.124,0.036
3.125,0.037
3.126,0.037
3.127,0.041
3.128,0.046
3.129,0.044
3.130,0.045
3.131,0.050
3.132,0.053
3.133,0.056
3.134,0.059
3.135,0.059
3.136,0.061
3.137,0.059
3.138,0.066
3.139,0.066
3.140,0.073
3.141,0.078
3.142,0.077
3.143,0.081
3.144,0.083
3.145,0.081
3.146,0.080
3.147,0.078
3.148,0.084
3.149,0.091
3.150,0.091
3.151,0.094
3.152,0.096
3.153,0.097
3.154,0.109
3.155,0.116
3.156,0.118
3.157,0.116
3.158,0.116
3.159,0.116
3.160,0.118
3.161,0.119
3.162,0.125
3.163,0.128
3.164,0.130
3.165,0.131
3.166,0.139
3.167,0.147
3.168,0.147
3.169,0.144
3.170,0.153
3.171,0.159
3.172,0.163
3.173,0.166
3.174,0.168
3.175,0.169
3.176,0.171
3.177,0.172
3.178,0.178
3.179,0.181
3.180,0.184
3.181,0.188
3.182,0.195
3.183,0.203
3.184,0.202
3.185,0.203
3.186,0.211
3.187,0.216
3.188,0.219
3.189,0.225
3.190,0.225
3.191,0.225
3.192,0.228
3.193,0.234
3.194,0.237
3.195,0.237
3.196,0.237
3.197,0.237
3.198,0.241
3.199,0.247
3.200,0.249
3.201,0.250
3.202,0.250
3.203,0.253
3.204,0.255
3.205,0.256
3.206,0.258
3.207,0.263
3.208,0.264
3.209,0.263
3.210,0.264
3.211,0.263
3.212,0.266
3.213,0.266
3.214,0.275
3.215,0.278
3.216,0.275
3.217,0.275
3.218,0.277
3.219,0.275
3.220,0.278
3.221,0.284
3.222,0.283
3.223,0.284
3.224,0.284
3.225,0.284
3.226,0.288
3.227,0.288
3.228,0.289
3.229,0.288
3.230,0.286
3.231,0.288
3.232,0.288
3.233,0.291
3.234,0.293
3.235,0.291
3.236,0.295
3.237,0.297
3.238,0.300
3.239,0.306
3.240,0.306
3.241,0.303
3.242,0.309
3.243,0.312
3.244,0.318
3.245,0.316
3.246,0.316
3.247,0.316
3.248,0.320
3.249,0.325
3.250,0.325
3.251,0.322
3.252,0.318
3.253,0.309
3.254,0.309
3.255,0.309
3.256,0.311
3.257,0.312
3.258,0.307
3.259,0.309
3.260,0.311
3.261,0.312
3.262,0.312
3.263,0.309
3.264,0.306
3.265,0.297
3.266,0.288
3.267,0.281
3.268,0.278
3.269,0.272
3.270,0.270
3.271,0.269
3.272,0.267
3.273,0.266
3.274,0.259
3.275,0.253
3.276,0.247
3.277,0.241
3.278,0.234
3.279,0.228
3.280,0.223
3.281,0.216
3.282,0.209
3.283,0.203
3.284,0.200
3.285,0.191
3.286,0.181
3.287,0.172
3.288,0.166
3.289,0.159
3.290,0.159
3.291,0.156
3.292,0.148
3.293,0.144
3.294,0.139
3.295,0.131
3.296,0.123
3.297,0.119
3.298,0.114
3.299,0.109
3.300,0.100
3.301,0.088
3.302,0.080
3.303,0.075
3.304,0.073
3.305,0.072
3.306,0.066
3.307,0.056
3.308,0.056
3.309,0.053
3.310,0.050
3.311,0.044
3.312,0.037
3.313,0.028
3.314,0.026
3.315,0.025
3.316,0.022
3.317,0.019
3.318,0.011
3.319,0.006
3.320,0.004
3.321,0.006
3.322,0.003
3.323,0.000
3.324,-0.001
3.325,-0.009
3.326,-0.012
3.327,-0.012
3.328,-0.017
3.329,-0.022
3.330,-0.021
3.331,-0.022
3.332,-0.025
3.333,-0.025
3.334,-0.025
3.335,-0.028
3.336,-0.030
3.337,-0.028
3.338,-0.031
3.339,-0.031
3.340,-0.034
3.341,-0.041
3.342,-0.039
3.343,-0.041
3.344,-0.039
3.345,-0.037
3.346,-0.039
3.347,-0.041
3.348,-0.044
3.349,-0.041
3.350,-0.042
3.351,-0.044
3.352,-0.047
3.353,-0.047
3.354,-0.046
3.355,-0.044
3.356,-0.047
3.357,-0.047
3.358,-0.046
3.359,-0.044
3.360,-0.048
3.361,-0.047
3.362,-0.045
3.363,-0.050
3.364,-0.051
3.365,-0.053
3.366,-0.053
3.367,-0.053
3.368,-0.052
3.369,-0.050
3.370,-0.053
3.371,-0.050
3.372,-0.050
3.373,-0.050
3.374,-0.050
3.375,-0.050
3.376,-0.050
3.377,-0.050
3.378,-0.050
3.379,-0.050
3.380,-0.052
3.381,-0.050
3.382,-0.051
3.383,-0.050
3.384,-0.053
3.385,-0.053
3.386,-0.053
3.387,-0.050
3.388,-0.050
3.389,-0.047
3.390,-0.046
3.391,-0.047
3.392,-0.046
3.393,-0.044
3.394,-0.045
3.395,-0.047
3.396,-0.048
3.397,-0.050
3.398,-0.047
3.399,-0.050
3.400,-0.050
3.401,-0.050
3.402,-0.050
3.403,-0.050
3.404,-0.052
3.405,-0.047
3.406,-0.048
3.407,-0.050
3.408,-0.050
3.409,-0.050
3.410,-0.047
3.411,-0.044
3.412,-0.044
3.413,-0.047
3.414,-0.048
3.415,-0.047
3.416,-0.050
3.417,-0.050
3.418,-0.049
3.419,-0.047
3.420,-0.047
3.421,-0.047
3.422,-0.048
3.423,-0.053
3.424,-0.052
3.425,-0.053
3.426,-0.052
3.427,-0.050
3.428,-0.050
3.429,-0.047
3.430,-0.050
3.431,-0.050
3.432,-0.050
3.433,-0.050
3.434,-0.050
3.435,-0.047
3.436,-0.047
3.437,-0.047
3.438,-0.045
3.439,-0.044
3.440,-0.046
3.441,-0.041
3.442,-0.042
3.443,-0.041
3.444,-0.037
3.445,-0.041
3.446,-0.042
3.447,-0.044
3.448,-0.041
3.449,-0.044
3.450,-0.044
3.451,-0.044
3.452,-0.041
3.453,-0.044
3.454,-0.044
3.455,-0.044
3.456,-0.048
3.457,-0.053
3.458,-0.056
3.459,-0.053
3.460,-0.058
3.461,-0.056
3.462,-0.055
3.463,-0.050
3.464,-0.050
3.465,-0.047
3.466,-0.050
3.467,-0.050
3.468,-0.050
3.469,-0.050
3.470,-0.051
3.471,-0.053
3.472,-0.053
3.473,-0.053
3.474,-0.056
3.475,-0.053
3.476,-0.056
3.477,-0.056
3.478,-0.055
3.479,-0.053
3.480,-0.056
3.481,-0.056
3.482,-0.058
3.483,-0.059
3.484,-0.056
3.485,-0.059
3.486,-0.058
3.487,-0.056
3.488,-0.063
3.489,-0.063
3.490,-0.063
3.491,-0.063
3.492,-0.063
3.493,-0.066
3.494,-0.066
3.495,-0.066
3.496,-0.066
3.497,-0.066
3.498,-0.061
3.499,-0.056
3.500,-0.056
3.501,-0.056
3.502,-0.061
3.503,-0.063
3.504,-0.061
3.505,-0.056
3.506,-0.061
3.507,-0.066
3.508,-0.063
3.509,-0.063
3.510,-0.061
3.511,-0.059
3.512,-0.061
3.513,-0.063
3.514,-0.063
3.515,-0.066
3.516,-0.066
3.517,-0.063
3.518,-0.066
3.519,-0.066
3.520,-0.067
3.521,-0.066
3.522,-0.064
3.523,-0.066
3.524,-0.066
3.525,-0.066
3.526,-0.067
3.527,-0.069
3.528,-0.069
3.529,-0.069
3.530,-0.067
3.531,-0.069
3.532,-0.070
3.533,-0.072
3.534,-0.073
3.535,-0.075
3.536,-0.072
3.537,-0.072
3.538,-0.073
3.539,-0.072
3.540,-0.075
3.541,-0.075
3.542,-0.075
3.543,-0.075
3.544,-0.075
3.545,-0.075
3.546,-0.078
3.547,-0.078
3.548,-0.078
3.549,-0.078
3.550,-0.074
3.551,-0.075
3.552,-0.076
3.553,-0.078
3.554,-0.078
3.555,-0.078
3.556,-0.079
3.557,-0.081
3.558,-0.078
3.559,-0.075
3.560,-0.075
3.561,-0.075
3.562,-0.075
3.563,-0.075
3.564,-0.078
3.565,-0.075
3.566,-0.076
3.567,-0.081
3.568,-0.082
3.569,-0.084
3.570,-0.081
3.571,-0.075
3.572,-0.079
3.573,-0.081
3.574,-0.082
3.575,-0.084
3.576,-0.086
3.577,-0.087
3.578,-0.089
3.579,-0.091
3.580,-0.092
3.581,-0.094
3.582,-0.094
3.583,-0.094
3.584,-0.094
3.585,-0.097
3.586,-0.091
3.587,-0.091
3.588,-0.092
3.589,-0.091
3.590,-0.087
3.591,-0.091
3.592,-0.086
3.593,-0.078
3.594,-0.074
3.595,-0.072
3.596,-0.070
3.597,-0.069
3.598,-0.071
3.599,-0.066
3.600,-0.066
3.601,-0.066
3.602,-0.064
3.603,-0.059
3.604,-0.059
3.605,-0.059
3.606,-0.063
3.607,-0.063
3.608,-0.064
3.609,-0.066
3.610,-0.064
3.611,-0.059
3.612,-0.055
3.613,-0.050
3.614,-0.039
3.615,-0.025
3.616,-0.021
3.617,-0.016
3.618,-0.011
3.619,-0.006
3.620,-0.006
3.621,-0.006
3.622,-0.006
3.623,-0.006
3.624,-0.009
3.625,-0.006
3.626,-0.008
3.627,-0.006
3.628,-0.011
3.629,-0.019
3.630,-0.022
3.631,-0.025
3.632,-0.033
3.633,-0.034
3.634,-0.039
3.635,-0.044
3.636,-0.044
3.637,-0.056
3.638,-0.072
3.639,-0.084
3.640,-0.089
3.641,-0.094
3.642,-0.095
3.643,-0.094
3.644,-0.098
3.645,-0.097
3.646,-0.098
3.647,-0.094
3.648,-0.089
3.649,-0.084
3.650,-0.082
3.651,-0.087
3.652,-0.081
3.653,-0.078
3.654,-0.071
3.655,-0.069
3.656,-0.064
3.657,-0.059
3.658,-0.056
3.659,-0.050
3.660,-0.049
3.661,-0.047
3.662,-0.054
3.663,-0.059
3.664,-0.064
3.665,-0.063
3.666,-0.063
3.667,-0.059
3.668,-0.055
3.669,-0.056
3.670,-0.058
3.671,-0.059
3.672,-0.061
3.673,-0.066
3.674,-0.064
3.675,-0.066
3.676,-0.064
3.677,-0.063
3.678,-0.066
3.679,-0.066
3.680,-0.067
3.681,-0.075
3.682,-0.083
3.683,-0.087
3.684,-0.087
3.685,-0.091
3.686,-0.093
3.687,-0.094
3.688,-0.104
3.689,-0.112
3.690,-0.119
3.691,-0.128
3.692,-0.137
3.693,-0.137
3.694,-0.136
3.695,-0.141
3.696,-0.142
3.697,-0.144
3.698,-0.142
3.699,-0.141
3.700,-0.145
3.701,-0.147
3.702,-0.145
3.703,-0.147
3.704,-0.148
3.705,-0.147
3.706,-0.147
3.707,-0.141
3.708,-0.141
3.709,-0.137
3.710,-0.137
3.711,-0.131
3.712,-0.131
3.713,-0.131
3.714,-0.130
3.715,-0.131
3.716,-0.133
3.717,-0.134
3.718,-0.134
3.719,-0.134
3.720,-0.130
3.721,-0.128
3.722,-0.129
3.723,-0.131
3.724,-0.129
3.725,-0.128
3.726,-0.130
3.727,-0.128
3.728,-0.133
3.729,-0.131
3.730,-0.128
3.731,-0.125
3.732,-0.125
3.733,-0.128
3.734,-0.126
3.735,-0.128
3.736,-0.131
3.737,-0.131
3.738,-0.129
3.739,-0.131
3.740,-0.128
3.741,-0.131
3.742,-0.127
3.743,-0.125
3.744,-0.124
3.745,-0.122
3.746,-0.131
3.747,-0.134
3.748,-0.136
3.749,-0.137
3.750,-0.137
3.751,-0.137
3.752,-0.137
3.753,-0.137
3.754,-0.133
3.755,-0.128
3.756,-0.125
3.757,-0.125
3.758,-0.123
3.759,-0.125
3.760,-0.125
3.761,-0.125
3.762,-0.126
3.763,-0.125
3.764,-0.127
3.765,-0.125
3.766,-0.126
3.767,-0.125
3.768,-0.124
3.769,-0.122
3.770,-0.121
3.771,-0.119
3.772,-0.116
3.773,-0.116
3.774,-0.111
3.775,-0.109
3.776,-0.114
3.777,-0.112
3.778,-0.109
3.779,-0.109
3.780,-0.109
3.781,-0.106
3.782,-0.109
3.783,-0.109
3.784,-0.106
3.785,-0.103
3.786,-0.105
3.787,-0.103
3.788,-0.106
3.789,-0.109
3.790,-0.102
3.791,-0.100
3.792,-0.103
3.793,-0.103
3.794,-0.103
3.795,-0.103
3.796,-0.103
3.797,-0.106
3.798,-0.105
3.799,-0.106
3.800,-0.108
3.801,-0.109
3.802,-0.114
3.803,-0.112
3.804,-0.112
3.805,-0.112
3.806,-0.120
3.807,-0.131
3.808,-0.137
3.809,-0.147
3.810,-0.161
3.811,-0.175
3.812,-0.191
3.813,-0.203
3.814,-0.208
3.815,-0.209
3.816,-0.207
3.817,-0.209
3.818,-0.202
3.819,-0.187
3.820,-0.174
3.821,-0.153
3.822,-0.133
3.823,-0.112
3.824,-0.094
3.825,-0.069
3.826,-0.045
3.827,-0.019
3.828,0.011
3.829,0.047
3.830,0.088
3.831,0.144
3.832,0.201
3.833,0.266
3.834,0.328
3.835,0.397
3.836,0.474
3.837,0.556
3.838,0.633
3.839,0.706
3.840,0.766
3.841,0.809
3.842,0.826
3.843,0.844
3.844,0.853
3.845,0.866
3.846,0.891
3.847,0.912
3.848,0.938
3.849,0.953
3.850,0.948
3.851,0.934
3.852,0.906
3.853,0.881
3.854,0.859
3.855,0.834
3.856,0.800
3.857,0.766
3.858,0.727
3.859,0.684
3.860,0.633
3.861,0.572
3.862,0.488
3.863,0.381
3.864,0.254
3.865,0.125
3.866,0.005
3.867,-0.100
3.868,-0.179
3.869,-0.256
3.870,-0.314
3.871,-0.366
3.872,-0.399
3.873,-0.428
3.874,-0.434
3.875,-0.437
3.876,-0.439
3.877,-0.425
3.878,-0.419
3.879,-0.412
3.880,-0.393
3.881,-0.372
3.882,-0.347
3.883,-0.316
3.884,-0.286
3.885,-0.263
3.886,-0.241
3.887,-0.219
3.888,-0.203
3.889,-0.191
3.890,-0.179
3.891,-0.172
3.892,-0.158
3.893,-0.144
3.894,-0.136
3.895,-0.125
3.896,-0.114
3.897,-0.106
3.898,-0.096
3.899,-0.084
3.900,-0.079
3.901,-0.075
3.902,-0.069
3.903,-0.063
3.904,-0.058
3.905,-0.050
3.906,-0.048
3.907,-0.047
3.908,-0.047
3.909,-0.050
3.910,-0.047
3.911,-0.044
3.912,-0.041
3.913,-0.041
3.914,-0.039
3.915,-0.037
3.916,-0.037
3.917,-0.041
3.918,-0.039
3.919,-0.041
3.920,-0.037
3.921,-0.034
3.922,-0.033
3.923,-0.034
3.924,-0.033
3.925,-0.034
3.926,-0.037
3.927,-0.037
3.928,-0.037
3.929,-0.037
3.930,-0.036
3.931,-0.034
3.932,-0.034
3.933,-0.034
3.934,-0.034
3.935,-0.034
3.936,-0.033
3.937,-0.028
3.938,-0.031
3.939,-0.031
3.940,-0.031
3.941,-0.031
3.942,-0.031
3.943,-0.031
3.944,-0.030
3.945,-0.025
3.946,-0.024
3.947,-0.022
3.948,-0.021
3.949,-0.019
3.950,-0.019
3.951,-0.016
3.952,-0.014
3.953,-0.012
3.954,-0.017
3.955,-0.016
3.956,-0.014
3.957,-0.012
3.958,-0.009
3.959,-0.006
3.960,-0.005
3.961,-0.003
3.962,-0.007
3.963,-0.012
3.964,-0.011
3.965,-0.009
3.966,-0.006
3.967,-0.006
3.968,-0.003
3.969,0.003
3.970,0.000
3.971,0.003
3.972,0.003
3.973,0.003
3.974,0.003
3.975,0.003
3.976,0.003
3.977,0.003
3.978,0.005
3.979,0.003
3.980,0.006
3.981,0.006
3.982,0.009
3.983,0.009
3.984,0.013
3.985,0.013
3.986,0.019
3.987,0.019
3.988,0.022
3.989,0.022
3.990,0.022
3.991,0.025
3.992,0.026
3.993,0.028
3.994,0.033
3.995,0.037
3.996,0.041
3.997,0.044
3.998,0.042
3.999,0.044
4.000,0.042
4.001,0.047
4.002,0.046
4.003,0.047
4.004,0.048
4.005,0.050
4.006,0.053
4.007,0.053
4.008,0.056
4.009,0.063
4.010,0.067
4.011,0.072
4.012,0.075
4.013,0.075
4.014,0.077
4.015,0.078
4.016,0.080
4.017,0.084
4.018,0.086
4.019,0.091
4.020,0.094
4.021,0.100
4.022,0.102
4.023,0.103
4.024,0.105
4.025,0.109
4.026,0.114
4.027,0.119
4.028,0.123
4.029,0.128
4.030,0.131
4.031,0.134
4.032,0.133
4.033,0.137
4.034,0.142
4.035,0.147
4.036,0.150
4.037,0.153
4.038,0.155
4.039,0.156
4.040,0.159
4.041,0.166
4.042,0.169
4.043,0.172
4.044,0.175
4.045,0.178
4.046,0.183
4.047,0.184
4.048,0.189
4.049,0.197
4.050,0.197
4.051,0.197
4.052,0.202
4.053,0.203
4.054,0.207
4.055,0.209
4.056,0.208
4.057,0.209
4.058,0.217
4.059,0.225
4.060,0.228
4.061,0.228
4.062,0.228
4.063,0.228
4.064,0.231
4.065,0.231
4.066,0.234
4.067,0.237
4.068,0.241
4.069,0.241
4.070,0.245
4.071,0.250
4.072,0.249
4.073,0.250
4.074,0.251
4.075,0.256
4.076,0.252
4.077,0.253
4.078,0.254
4.079,0.256
4.080,0.261
4.081,0.266
4.082,0.266
4.083,0.266
4.084,0.269
4.085,0.269
4.086,0.272
4.087,0.272
4.088,0.273
4.089,0.278
4.090,0.278
4.091,0.281
4.092,0.281
4.093,0.281
4.094,0.280
4.095,0.275
4.096,0.277
4.097,0.278
4.098,0.281
4.099,0.288
4.100,0.288
4.101,0.288
4.102,0.288
4.103,0.288
4.104,0.292
4.105,0.300
4.106,0.296
4.107,0.297
4.108,0.297
4.109,0.297
4.110,0.297
4.111,0.300
4.112,0.303
4.113,0.303
4.114,0.303
4.115,0.306
4.116,0.303
4.117,0.303
4.118,0.304
4.119,0.306
4.120,0.309
4.121,0.306
4.122,0.300
4.123,0.294
4.124,0.295
4.125,0.294
4.126,0.289
4.127,0.291
4.128,0.286
4.129,0.281
4.130,0.277
4.131,0.272
4.132,0.266
4.133,0.259
4.134,0.252
4.135,0.247
4.136,0.248
4.137,0.247
4.138,0.237
4.139,0.228
4.140,0.218
4.141,0.209
4.142,0.207
4.143,0.203
4.144,0.194
4.145,0.188
4.146,0.181
4.147,0.178
4.148,0.172
4.149,0.169
4.150,0.159
4.151,0.147
4.152,0.139
4.153,0.137
4.154,0.134
4.155,0.128
4.156,0.118
4.157,0.109
4.158,0.104
4.159,0.097
4.160,0.088
4.161,0.078
4.162,0.073
4.163,0.069
4.164,0.059
4.165,0.053
4.166,0.046
4.167,0.037
4.168,0.036
4.169,0.031
4.170,0.026
4.171,0.028
4.172,0.022
4.173,0.019
4.174,0.014
4.175,0.013
4.176,0.006
4.177,0.003
4.178,-0.001
4.179,-0.006
4.180,-0.008
4.181,-0.012
4.182,-0.017
4.183,-0.022
4.184,-0.023
4.185,-0.028
4.186,-0.028
4.187,-0.025
4.188,-0.031
4.189,-0.034
4.190,-0.037
4.191,-0.044
4.192,-0.046
4.193,-0.044
4.194,-0.046
4.195,-0.047
4.196,-0.050
4.197,-0.053
4.198,-0.055
4.199,-0.056
4.200,-0.055
4.201,-0.056
4.202,-0.056
4.203,-0.056
4.204,-0.056
4.205,-0.053
4.206,-0.061
4.207,-0.066
4.208,-0.066
4.209,-0.066
4.210,-0.066
4.211,-0.069
4.212,-0.064
4.213,-0.066
4.214,-0.070
4.215,-0.072
4.216,-0.069
4.217,-0.069
4.218,-0.069
4.219,-0.072
4.220,-0.072
4.221,-0.072
4.222,-0.071
4.223,-0.072
4.224,-0.069
4.225,-0.066
4.226,-0.067
4.227,-0.066
4.228,-0.069
4.229,-0.072
4.230,-0.073
4.231,-0.075
4.232,-0.075
4.233,-0.078
4.234,-0.074
4.235,-0.072
4.236,-0.072
4.237,-0.072
4.238,-0.072
4.239,-0.072
4.240,-0.072
4.241,-0.072
4.242,-0.071
4.243,-0.072
4.244,-0.075
4.245,-0.078
4.246,-0.074
4.247,-0.075
4.248,-0.074
4.249,-0.072
4.250,-0.070
4.251,-0.072
4.252,-0.070
4.253,-0.072
4.254,-0.075
4.255,-0.075
4.256,-0.075
4.257,-0.075
4.258,-0.072
4.259,-0.069
4.260,-0.070
4.261,-0.069
4.262,-0.071
4.263,-0.069
4.264,-0.069
4.265,-0.069
4.266,-0.069
4.267,-0.072
4.268,-0.070
4.269,-0.072
4.270,-0.072
4.271,-0.072
4.272,-0.072
4.273,-0.072
4.274,-0.069
4.275,-0.066
4.276,-0.069
4.277,-0.069
4.278,-0.066
4.279,-0.069
4.280,-0.069
4.281,-0.069
4.282,-0.070
4.283,-0.072
4.284,-0.073
4.285,-0.072
4.286,-0.067
4.287,-0.063
4.288,-0.067
4.289,-0.069
4.290,-0.070
4.291,-0.072
4.292,-0.067
4.293,-0.069
4.294,-0.070
4.295,-0.072
4.296,-0.073
4.297,-0.075
4.298,-0.071
4.299,-0.072
4.300,-0.075
4.301,-0.072
4.302,-0.069
4.303,-0.072
4.304,-0.067
4.305,-0.069
4.306,-0.070
4.307,-0.069
4.308,-0.069
4.309,-0.066
4.310,-0.066
4.311,-0.063
4.312,-0.069
4.313,-0.072
4.314,-0.072
4.315,-0.069
4.316,-0.072
4.317,-0.072
4.318,-0.072
4.319,-0.072
4.320,-0.071
4.321,-0.072
4.322,-0.069
4.323,-0.072
4.324,-0.069
4.325,-0.072
4.326,-0.072
4.327,-0.072
4.328,-0.072
4.329,-0.078
4.330,-0.078
4.331,-0.078
4.332,-0.078
4.333,-0.078
4.334,-0.079
4.335,-0.081
4.336,-0.081
4.337,-0.084
4.338,-0.078
4.339,-0.078
4.340,-0.079
4.341,-0.081
4.342,-0.081
4.343,-0.084
4.344,-0.086
4.345,-0.087
4.346,-0.087
4.347,-0.084
4.348,-0.087
4.349,-0.087
4.350,-0.086
4.351,-0.087
4.352,-0.084
4.353,-0.084
4.354,-0.080
4.355,-0.075
4.356,-0.081
4.357,-0.084
4.358,-0.084
4.359,-0.084
4.360,-0.086
4.361,-0.087
4.362,-0.089
4.363,-0.091
4.364,-0.091
4.365,-0.094
4.366,-0.094
4.367,-0.094
4.368,-0.091
4.369,-0.094
4.370,-0.094
4.371,-0.087
4.372,-0.089
4.373,-0.091
4.374,-0.091
4.375,-0.091
4.376,-0.091
4.377,-0.091
4.378,-0.095
4.379,-0.097
4.380,-0.094
4.381,-0.097
4.382,-0.097
4.383,-0.097
4.384,-0.093
4.385,-0.091
4.386,-0.094
4.387,-0.094
4.388,-0.094
4.389,-0.094
4.390,-0.094
4.391,-0.094
4.392,-0.093
4.393,-0.091
4.394,-0.093
4.395,-0.091
4.396,-0.094
4.397,-0.097
4.398,-0.098
4.399,-0.100
4.400,-0.104
4.401,-0.106
4.402,-0.102
4.403,-0.103
4.404,-0.104
4.405,-0.106
4.406,-0.106
4.407,-0.106
4.408,-0.103
4.409,-0.103
4.410,-0.103
4.411,-0.103
4.412,-0.104
4.413,-0.103
4.414,-0.105
4.415,-0.103
4.416,-0.103
4.417,-0.103
4.418,-0.104
4.419,-0.106
4.420,-0.105
4.421,-0.103
4.422,-0.103
4.423,-0.103
4.424,-0.104
4.425,-0.106
4.426,-0.105
4.427,-0.106
4.428,-0.106
4.429,-0.109
4.430,-0.111
4.431,-0.109
4.432,-0.111
4.433,-0.112
4.434,-0.108
4.435,-0.109
4.436,-0.106
4.437,-0.103
4.438,-0.103
4.439,-0.103
4.440,-0.104
4.441,-0.106
4.442,-0.107
4.443,-0.109
4.444,-0.111
4.445,-0.112
4.446,-0.114
4.447,-0.116
4.448,-0.117
4.449,-0.112
4.450,-0.116
4.451,-0.116
4.452,-0.112
4.453,-0.109
4.454,-0.112
4.455,-0.112
4.456,-0.109
4.457,-0.109
4.458,-0.111
4.459,-0.106
4.460,-0.100
4.461,-0.100
4.462,-0.098
4.463,-0.100
4.464,-0.096
4.465,-0.091
4.466,-0.089
4.467,-0.087
4.468,-0.083
4.469,-0.081
4.470,-0.082
4.471,-0.084
4.472,-0.084
4.473,-0.087
4.474,-0.083
4.475,-0.081
4.476,-0.084
4.477,-0.087
4.478,-0.087
4.479,-0.087
4.480,-0.080
4.481,-0.072
4.482,-0.064
4.483,-0.053
4.484,-0.049
4.485,-0.044
4.486,-0.042
4.487,-0.034
4.488,-0.033
4.489,-0.034
4.490,-0.034
4.491,-0.034
4.492,-0.033
4.493,-0.034
4.494,-0.034
4.495,-0.041
4.496,-0.039
4.497,-0.041
4.498,-0.044
4.499,-0.044
4.500,-0.048
4.501,-0.056
4.502,-0.056
4.503,-0.059
4.504,-0.061
4.505,-0.063
4.506,-0.078
4.507,-0.091
4.508,-0.100
4.509,-0.103
4.510,-0.106
4.511,-0.106
4.512,-0.106
4.513,-0.112
4.514,-0.109
4.515,-0.109
4.516,-0.106
4.517,-0.106
4.518,-0.102
4.519,-0.097
4.520,-0.099
4.521,-0.091
4.522,-0.091
4.523,-0.087
4.524,-0.086
4.525,-0.078
4.526,-0.067
4.527,-0.059
4.528,-0.054
4.529,-0.059
4.530,-0.066
4.531,-0.075
4.532,-0.078
4.533,-0.081
4.534,-0.077
4.535,-0.075
4.536,-0.071
4.537,-0.066
4.538,-0.069
4.539,-0.072
4.540,-0.081
4.541,-0.084
4.542,-0.081
4.543,-0.078
4.544,-0.080
4.545,-0.078
4.546,-0.078
4.547,-0.081
4.548,-0.084
4.549,-0.091
4.550,-0.096
4.551,-0.100
4.552,-0.107
4.553,-0.109
4.554,-0.114
4.555,-0.119
4.556,-0.121
4.557,-0.128
4.558,-0.134
4.559,-0.137
4.560,-0.142
4.561,-0.150
4.562,-0.154
4.563,-0.159
4.564,-0.164
4.565,-0.163
4.566,-0.163
4.567,-0.163
4.568,-0.163
4.569,-0.166
4.570,-0.167
4.571,-0.166
4.572,-0.166
4.573,-0.166
4.574,-0.163
4.575,-0.163
4.576,-0.153
4.577,-0.150
4.578,-0.147
4.579,-0.150
4.580,-0.147
4.581,-0.147
4.582,-0.147
4.583,-0.147
4.584,-0.150
4.585,-0.150
4.586,-0.150
4.587,-0.150
4.588,-0.151
4.589,-0.150
4.590,-0.150
4.591,-0.150
4.592,-0.149
4.593,-0.144
4.594,-0.141
4.595,-0.144
4.596,-0.142
4.597,-0.144
4.598,-0.144
4.599,-0.147
4.600,-0.146
4.601,-0.144
4.602,-0.148
4.603,-0.147
4.604,-0.146
4.605,-0.147
4.606,-0.148
4.607,-0.147
4.608,-0.148
4.609,-0.147
4.610,-0.150
4.611,-0.147
4.612,-0.147
4.613,-0.147
4.614,-0.147
4.615,-0.150
4.616,-0.148
4.617,-0.150
4.618,-0.150
4.619,-0.150
4.620,-0.149
4.621,-0.147
4.622,-0.147
4.623,-0.147
4.624,-0.146
4.625,-0.141
4.626,-0.142
4.627,-0.141
4.628,-0.141
4.629,-0.141
4.630,-0.141
4.631,-0.141
4.632,-0.137
4.633,-0.141
4.634,-0.136
4.635,-0.131
4.636,-0.128
4.637,-0.128
4.638,-0.128
4.639,-0.128
4.640,-0.131
4.641,-0.131
4.642,-0.130
4.643,-0.125
4.644,-0.125
4.645,-0.128
4.646,-0.128
4.647,-0.128
4.648,-0.129
4.649,-0.131
4.650,-0.122
4.651,-0.119
4.652,-0.119
4.653,-0.116
4.654,-0.112
4.655,-0.116
4.656,-0.117
4.657,-0.119
4.658,-0.122
4.659,-0.119
4.660,-0.117
4.661,-0.119
4.662,-0.119
4.663,-0.119
4.664,-0.117
4.665,-0.112
4.666,-0.112
4.667,-0.112
4.668,-0.116
4.669,-0.119
4.670,-0.121
4.671,-0.125
4.672,-0.129
4.673,-0.137
4.674,-0.139
4.675,-0.144
4.676,-0.153
4.677,-0.159
4.678,-0.172
4.679,-0.187
4.680,-0.196
4.681,-0.203
4.682,-0.211
4.683,-0.219
4.684,-0.225
4.685,-0.222
4.686,-0.222
4.687,-0.216
4.688,-0.204
4.689,-0.197
4.690,-0.182
4.691,-0.163
4.692,-0.137
4.693,-0.116
4.694,-0.092
4.695,-0.066
4.696,-0.033
4.697,0.000
4.698,0.045
4.699,0.094
4.700,0.151
4.701,0.209
4.702,0.273
4.703,0.337
4.704,0.409
4.705,0.491
4.706,0.571
4.707,0.647
4.708,0.721
4.709,0.781
4.710,0.834
4.711,0.853
4.712,0.864
4.713,0.872
4.714,0.880
4.715,0.894
4.716,0.908
4.717,0.919
4.718,0.919
4.719,0.906
4.720,0.894
4.721,0.863
4.722,0.824
4.723,0.791
4.724,0.763
4.725,0.728
4.726,0.698
4.727,0.666
4.728,0.624
4.729,0.563
4.730,0.488
4.731,0.406
4.732,0.308
4.733,0.178
4.734,0.053
4.735,-0.056
4.736,-0.153
4.737,-0.225
4.738,-0.297
4.739,-0.353
4.740,-0.403
4.741,-0.437
4.742,-0.459
4.743,-0.459
4.744,-0.463
4.745,-0.463
4.746,-0.450
4.747,-0.437
4.748,-0.419
4.749,-0.394
4.750,-0.369
4.751,-0.344
4.752,-0.323
4.753,-0.297
4.754,-0.275
4.755,-0.256
4.756,-0.237
4.757,-0.225
4.758,-0.211
4.759,-0.194
4.760,-0.180
4.761,-0.166
4.762,-0.156
4.763,-0.150
4.764,-0.136
4.765,-0.122
4.766,-0.114
4.767,-0.109
4.768,-0.103
4.769,-0.097
4.770,-0.092
4.771,-0.091
4.772,-0.084
4.773,-0.078
4.774,-0.075
4.775,-0.072
4.776,-0.067
4.777,-0.066
4.778,-0.067
4.779,-0.066
4.780,-0.061
4.781,-0.056
4.782,-0.053
4.783,-0.050
4.784,-0.051
4.785,-0.053
4.786,-0.056
4.787,-0.053
4.788,-0.053
4.789,-0.053
4.790,-0.053
4.791,-0.053
4.792,-0.058
4.793,-0.056
4.794,-0.055
4.795,-0.053
4.796,-0.049
4.797,-0.044
4.798,-0.039
4.799,-0.037
4.800,-0.039
4.801,-0.041
4.802,-0.041
4.803,-0.041
4.804,-0.039
4.805,-0.037
4.806,-0.034
4.807,-0.037
4.808,-0.039
4.809,-0.037
4.810,-0.034
4.811,-0.034
4.812,-0.036
4.813,-0.037
4.814,-0.034
4.815,-0.034
4.816,-0.034
4.817,-0.034
4.818,-0.033
4.819,-0.031
4.820,-0.028
4.821,-0.028
4.822,-0.028
4.823,-0.031
4.824,-0.031
4.825,-0.031
4.826,-0.027
4.827,-0.025
4.828,-0.026
4.829,-0.028
4.830,-0.028
4.831,-0.025
4.832,-0.023
4.833,-0.025
4.834,-0.024
4.835,-0.019
4.836,-0.019
4.837,-0.019
4.838,-0.016
4.839,-0.019
4.840,-0.017
4.841,-0.019
4.842,-0.016
4.843,-0.009
4.844,-0.007
4.845,-0.009
4.846,-0.008
4.847,-0.003
4.848,-0.002
4.849,0.003
4.850,0.003
4.851,0.006
4.852,0.007
4.853,0.013
4.854,0.014
4.855,0.019
4.856,0.014
4.857,0.016
4.858,0.013
4.859,0.013
4.860,0.018
4.861,0.016
4.862,0.016
4.863,0.019
4.864,0.022
4.865,0.025
4.866,0.028
4.867,0.028
4.868,0.031
4.869,0.031
4.870,0.041
4.871,0.044
4.872,0.046
4.873,0.044
4.874,0.042
4.875,0.047
4.876,0.053
4.877,0.056
4.878,0.056
4.879,0.056
4.880,0.058
4.881,0.059
4.882,0.059
4.883,0.063
4.884,0.064
4.885,0.066
4.886,0.075
4.887,0.078
4.888,0.081
4.889,0.081
4.890,0.086
4.891,0.091
4.892,0.094
4.893,0.097
4.894,0.100
4.895,0.100
4.896,0.106
4.897,0.113
4.898,0.119
4.899,0.125
4.900,0.125
4.901,0.122
4.902,0.129
4.903,0.134
4.904,0.136
4.905,0.137
4.906,0.139
4.907,0.141
4.908,0.147
4.909,0.153
4.910,0.158
4.911,0.159
4.912,0.159
4.913,0.159
4.914,0.164
4.915,0.169
4.916,0.169
4.917,0.172
4.918,0.179
4.919,0.184
4.920,0.189
4.921,0.197
4.922,0.199
4.923,0.200
4.924,0.201
4.925,0.206
4.926,0.211
4.927,0.213
4.928,0.214
4.929,0.216
4.930,0.217
4.931,0.222
4.932,0.228
4.933,0.234
4.934,0.231
4.935,0.231
4.936,0.237
4.937,0.244
4.938,0.245
4.939,0.250
4.940,0.252
4.941,0.250
4.942,0.252
4.943,0.250
4.944,0.252
4.945,0.250
4.946,0.256
4.947,0.256
4.948,0.258
4.949,0.263
4.950,0.266
4.951,0.266
4.952,0.269
4.953,0.275
4.954,0.272
4.955,0.272
4.956,0.271
4.957,0.269
4.958,0.271
4.959,0.269
4.960,0.275
4.961,0.278
4.962,0.277
4.963,0.278
4.964,0.279
4.965,0.284
4.966,0.288
4.967,0.288
4.968,0.289
4.969,0.288
4.970,0.288
4.971,0.291
4.972,0.293
4.973,0.291
4.974,0.294
4.975,0.294
4.976,0.303
4.977,0.306
4.978,0.303
4.979,0.300
4.980,0.302
4.981,0.303
4.982,0.306
4.983,0.306
4.984,0.307
4.985,0.306
4.986,0.306
4.987,0.306
4.988,0.303
4.989,0.300
4.990,0.294
4.991,0.294
4.992,0.295
4.993,0.297
4.994,0.294
4.995,0.288
4.996,0.286
4.997,0.278
4.998,0.271
4.999,0.266
5.000,0.263
5.001,0.256
5.002,0.254
5.003,0.253
5.004,0.249
5.005,0.244
5.006,0.236
5.007,0.228
5.008,0.222
5.009,0.216
5.010,0.213
5.011,0.209
5.012,0.203
5.013,0.194
5.014,0.186
5.015,0.178
5.016,0.176
5.017,0.169
5.018,0.166
5.019,0.163
5.020,0.153
5.021,0.144
5.022,0.136
5.023,0.125
5.024,0.116
5.025,0.109
5.026,0.106
5.027,0.100
5.028,0.092
5.029,0.088
5.030,0.083
5.031,0.078
5.032,0.071
5.033,0.059
5.034,0.054
5.035,0.053
5.036,0.050
5.037,0.047
5.038,0.041
5.039,0.031
5.040,0.029
5.041,0.025
5.042,0.022
5.043,0.016
5.044,0.013
5.045,0.006
5.046,0.002
5.047,-0.003
5.048,-0.006
5.049,-0.009
5.050,-0.016
5.051,-0.019
5.052,-0.021
5.053,-0.019
5.054,-0.022
5.055,-0.025
5.056,-0.025
5.057,-0.031
5.058,-0.034
5.059,-0.034
5.060,-0.039
5.061,-0.044
5.062,-0.044
5.063,-0.047
5.064,-0.050
5.065,-0.050
5.066,-0.049
5.067,-0.050
5.068,-0.052
5.069,-0.050
5.070,-0.056
5.071,-0.059
5.072,-0.059
5.073,-0.063
5.074,-0.061
5.075,-0.063
5.076,-0.064
5.077,-0.066
5.078,-0.066
5.079,-0.066
5.080,-0.069
5.081,-0.066
5.082,-0.067
5.083,-0.069
5.084,-0.069
5.085,-0.066
5.086,-0.066
5.087,-0.066
5.088,-0.070
5.089,-0.072
5.090,-0.072
5.091,-0.072
5.092,-0.074
5.093,-0.069
5.094,-0.067
5.095,-0.072
5.096,-0.075
5.097,-0.078
5.098,-0.078
5.099,-0.078
5.100,-0.079
5.101,-0.081
5.102,-0.081
5.103,-0.075
5.104,-0.076
5.105,-0.078
5.106,-0.079
5.107,-0.081
5.108,-0.078
5.109,-0.075
5.110,-0.074
5.111,-0.072
5.112,-0.075
5.113,-0.075
5.114,-0.078
5.115,-0.078
5.116,-0.081
5.117,-0.081
5.118,-0.084
5.119,-0.084
5.120,-0.084
5.121,-0.081
5.122,-0.080
5.123,-0.081
5.124,-0.078
5.125,-0.075
5.126,-0.074
5.127,-0.072
5.128,-0.072
5.129,-0.072
5.130,-0.069
5.131,-0.072
5.132,-0.072
5.133,-0.072
5.134,-0.072
5.135,-0.072
5.136,-0.075
5.137,-0.072
5.138,-0.072
5.139,-0.072
5.140,-0.073
5.141,-0.075
5.142,-0.075
5.143,-0.075
5.144,-0.074
5.145,-0.075
5.146,-0.076
5.147,-0.075
5.148,-0.075
5.149,-0.072
5.150,-0.072
5.151,-0.072
5.152,-0.073
5.153,-0.075
5.154,-0.072
5.155,-0.072
5.156,-0.075
5.157,-0.081
5.158,-0.078
5.159,-0.075
5.160,-0.076
5.161,-0.075
5.162,-0.078
5.163,-0.078
5.164,-0.075
5.165,-0.072
5.166,-0.072
5.167,-0.069
5.168,-0.071
5.169,-0.072
5.170,-0.070
5.171,-0.069
5.172,-0.073
5.173,-0.072
5.174,-0.075
5.175,-0.075
5.176,-0.071
5.177,-0.072
5.178,-0.072
5.179,-0.072
5.180,-0.069
5.181,-0.072
5.182,-0.073
5.183,-0.075
5.184,-0.071
5.185,-0.072
5.186,-0.072
5.187,-0.072
5.188,-0.073
5.189,-0.075
5.190,-0.077
5.191,-0.072
5.192,-0.072
5.193,-0.066
5.194,-0.069
5.195,-0.069
5.196,-0.070
5.197,-0.069
5.198,-0.073
5.199,-0.075
5.200,-0.075
5.201,-0.075
5.202,-0.075
5.203,-0.075
5.204,-0.074
5.205,-0.072
5.206,-0.075
5.207,-0.072
5.208,-0.075
5.209,-0.075
5.210,-0.074
5.211,-0.072
5.212,-0.075
5.213,-0.075
5.214,-0.075
5.215,-0.075
5.216,-0.075
5.217,-0.081
5.218,-0.081
5.219,-0.081
5.220,-0.086
5.221,-0.084
5.222,-0.086
5.223,-0.087
5.224,-0.087
5.225,-0.091
5.226,-0.089
5.227,-0.087
5.228,-0.091
5.229,-0.094
5.230,-0.094
5.231,-0.094
5.232,-0.094
5.233,-0.094
5.234,-0.094
5.235,-0.091
5.236,-0.092
5.237,-0.091
5.238,-0.094
5.239,-0.097
5.240,-0.094
5.241,-0.094
5.242,-0.095
5.243,-0.097
5.244,-0.096
5.245,-0.094
5.246,-0.095
5.247,-0.100
5.248,-0.100
5.249,-0.097
5.250,-0.100
5.251,-0.100
5.252,-0.101
5.253,-0.100
5.254,-0.099
5.255,-0.100
5.256,-0.101
5.257,-0.103
5.258,-0.103
5.259,-0.103
5.260,-0.103
5.261,-0.103
5.262,-0.102
5.263,-0.103
5.264,-0.104
5.265,-0.106
5.266,-0.105
5.267,-0.103
5.268,-0.102
5.269,-0.103
5.270,-0.103
5.271,-0.100
5.272,-0.106
5.273,-0.109
5.274,-0.111
5.275,-0.112
5.276,-0.111
5.277,-0.109
5.278,-0.112
5.279,-0.112
5.280,-0.111
5.281,-0.109
5.282,-0.106
5.283,-0.109
5.284,-0.111
5.285,-0.112
5.286,-0.112
5.287,-0.112
5.288,-0.116
5.289,-0.119
5.290,-0.116
5.291,-0.112
5.292,-0.111
5.293,-0.109
5.294,-0.112
5.295,-0.116
5.296,-0.120
5.297,-0.119
5.298,-0.117
5.299,-0.119
5.300,-0.119
5.301,-0.119
5.302,-0.117
5.303,-0.112
5.304,-0.114
5.305,-0.112
5.306,-0.114
5.307,-0.116
5.308,-0.114
5.309,-0.112
5.310,-0.109
5.311,-0.106
5.312,-0.107
5.313,-0.109
5.314,-0.109
5.315,-0.109
5.316,-0.109
5.317,-0.112
5.318,-0.109
5.319,-0.112
5.320,-0.114
5.321,-0.112
5.322,-0.112
5.323,-0.119
5.324,-0.122
5.325,-0.122
5.326,-0.117
5.327,-0.116
5.328,-0.114
5.329,-0.112
5.330,-0.119
5.331,-0.119
5.332,-0.116
5.333,-0.112
5.334,-0.116
5.335,-0.116
5.336,-0.112
5.337,-0.109
5.338,-0.111
5.339,-0.109
5.340,-0.103
5.341,-0.097
5.342,-0.097
5.343,-0.094
5.344,-0.094
5.345,-0.094
5.346,-0.095
5.347,-0.094
5.348,-0.091
5.349,-0.087
5.350,-0.083
5.351,-0.084
5.352,-0.087
5.353,-0.091
5.354,-0.091
5.355,-0.091
5.356,-0.087
5.357,-0.087
5.358,-0.083
5.359,-0.072
5.360,-0.056
5.361,-0.047
5.362,-0.050
5.363,-0.041
5.364,-0.039
5.365,-0.041
5.366,-0.039
5.367,-0.037
5.368,-0.037
5.369,-0.041
5.370,-0.036
5.371,-0.037
5.372,-0.039
5.373,-0.044
5.374,-0.049
5.375,-0.050
5.376,-0.054
5.377,-0.063
5.378,-0.063
5.379,-0.066
5.380,-0.063
5.381,-0.059
5.382,-0.075
5.383,-0.087
5.384,-0.100
5.385,-0.106
5.386,-0.109
5.387,-0.109
5.388,-0.105
5.389,-0.106
5.390,-0.103
5.391,-0.103
5.392,-0.096
5.393,-0.091
5.394,-0.091
5.395,-0.091
5.396,-0.093
5.397,-0.084
5.398,-0.082
5.399,-0.078
5.400,-0.078
5.401,-0.072
5.402,-0.064
5.403,-0.059
5.404,-0.053
5.405,-0.056
5.406,-0.064
5.407,-0.075
5.408,-0.077
5.409,-0.078
5.410,-0.074
5.411,-0.072
5.412,-0.070
5.413,-0.069
5.414,-0.069
5.415,-0.069
5.416,-0.073
5.417,-0.072
5.418,-0.071
5.419,-0.069
5.420,-0.072
5.421,-0.072
5.422,-0.071
5.423,-0.072
5.424,-0.071
5.425,-0.072
5.426,-0.078
5.427,-0.084
5.428,-0.097
5.429,-0.103
5.430,-0.103
5.431,-0.103
5.432,-0.105
5.433,-0.112
5.434,-0.123
5.435,-0.131
5.436,-0.136
5.437,-0.144
5.438,-0.144
5.439,-0.144
5.440,-0.153
5.441,-0.156
5.442,-0.156
5.443,-0.156
5.444,-0.155
5.445,-0.156
5.446,-0.156
5.447,-0.153
5.448,-0.152
5.449,-0.150
5.450,-0.148
5.451,-0.150
5.452,-0.144
5.453,-0.144
5.454,-0.141
5.455,-0.144
5.456,-0.142
5.457,-0.144
5.458,-0.144
5.459,-0.144
5.460,-0.147
5.461,-0.147
5.462,-0.150
5.463,-0.153
5.464,-0.153
5.465,-0.150
5.466,-0.149
5.467,-0.147
5.468,-0.148
5.469,-0.147
5.470,-0.141
5.471,-0.141
5.472,-0.141
5.473,-0.144
5.474,-0.141
5.475,-0.141
5.476,-0.141
5.477,-0.141
5.478,-0.144
5.479,-0.141
5.480,-0.139
5.481,-0.141
5.482,-0.142
5.483,-0.141
5.484,-0.142
5.485,-0.141
5.486,-0.142
5.487,-0.137
5.488,-0.139
5.489,-0.141
5.490,-0.141
5.491,-0.144
5.492,-0.141
5.493,-0.141
5.494,-0.141
5.495,-0.141
5.496,-0.141
5.497,-0.141
5.498,-0.136
5.499,-0.131
5.500,-0.134
5.501,-0.134
5.502,-0.134
5.503,-0.131
5.504,-0.131
5.505,-0.131
5.506,-0.133
5.507,-0.134
5.508,-0.130
5.509,-0.131
5.510,-0.131
5.511,-0.131
5.512,-0.129
5.513,-0.131
5.514,-0.131
5.515,-0.131
5.516,-0.130
5.517,-0.125
5.518,-0.126
5.519,-0.125
5.520,-0.125
5.521,-0.128
5.522,-0.126
5.523,-0.125
5.524,-0.124
5.525,-0.122
5.526,-0.119
5.527,-0.122
5.528,-0.125
5.529,-0.125
5.530,-0.121
5.531,-0.122
5.532,-0.122
5.533,-0.122
5.534,-0.123
5.535,-0.119
5.536,-0.114
5.537,-0.112
5.538,-0.112
5.539,-0.112
5.540,-0.114
5.541,-0.112
5.542,-0.111
5.543,-0.109
5.544,-0.111
5.545,-0.112
5.546,-0.116
5.547,-0.122
5.548,-0.123
5.549,-0.128
5.550,-0.134
5.551,-0.144
5.552,-0.153
5.553,-0.159
5.554,-0.166
5.555,-0.175
5.556,-0.186
5.557,-0.197
5.558,-0.206
5.559,-0.216
5.560,-0.223
5.561,-0.222
5.562,-0.223
5.563,-0.219
5.564,-0.206
5.565,-0.197
5.566,-0.187
5.567,-0.172
5.568,-0.150
5.569,-0.131
5.570,-0.109
5.571,-0.084
5.572,-0.058
5.573,-0.031
5.574,0.013
5.575,0.059
5.576,0.117
5.577,0.175
5.578,0.237
5.579,0.300
5.580,0.370
5.581,0.450
5.582,0.536
5.583,0.619
5.584,0.704
5.585,0.778
5.586,0.842
5.587,0.872
5.588,0.888
5.589,0.900
5.590,0.902
5.591,0.909
5.592,0.924
5.593,0.934
5.594,0.938
5.595,0.928
5.596,0.909
5.597,0.872
5.598,0.836
5.599,0.806
5.600,0.775
5.601,0.738
5.602,0.709
5.603,0.678
5.604,0.642
5.605,0.588
5.606,0.519
5.607,0.444
5.608,0.347
5.609,0.219
5.610,0.086
5.611,-0.031
5.612,-0.133
5.613,-0.209
5.614,-0.287
5.615,-0.350
5.616,-0.400
5.617,-0.434
5.618,-0.464
5.619,-0.472
5.620,-0.471
5.621,-0.466
5.622,-0.456
5.623,-0.447
5.624,-0.433
5.625,-0.412
5.626,-0.387
5.627,-0.363
5.628,-0.341
5.629,-0.312
5.630,-0.287
5.631,-0.266
5.632,-0.241
5.633,-0.222
5.634,-0.211
5.635,-0.197
5.636,-0.183
5.637,-0.169
5.638,-0.158
5.639,-0.150
5.640,-0.139
5.641,-0.128
5.642,-0.116
5.643,-0.106
5.644,-0.101
5.645,-0.097
5.646,-0.091
5.647,-0.087
5.648,-0.081
5.649,-0.075
5.650,-0.072
5.651,-0.069
5.652,-0.066
5.653,-0.066
5.654,-0.064
5.655,-0.059
5.656,-0.059
5.657,-0.059
5.658,-0.056
5.659,-0.053
5.660,-0.053
5.661,-0.053
5.662,-0.056
5.663,-0.053
5.664,-0.052
5.665,-0.050
5.666,-0.053
5.667,-0.056
5.668,-0.058
5.669,-0.053
5.670,-0.052
5.671,-0.050
5.672,-0.051
5.673,-0.053
5.674,-0.047
5.675,-0.044
5.676,-0.041
5.677,-0.037
5.678,-0.041
5.679,-0.044
5.680,-0.045
5.681,-0.047
5.682,-0.042
5.683,-0.044
5.684,-0.042
5.685,-0.037
5.686,-0.034
5.687,-0.034
5.688,-0.034
5.689,-0.034
5.690,-0.033
5.691,-0.034
5.692,-0.033
5.693,-0.031
5.694,-0.033
5.695,-0.034
5.696,-0.031
5.697,-0.031
5.698,-0.028
5.699,-0.028
5.700,-0.028
5.701,-0.028
5.702,-0.026
5.703,-0.028
5.704,-0.024
5.705,-0.019
5.706,-0.022
5.707,-0.022
5.708,-0.017
5.709,-0.016
5.710,-0.017
5.711,-0.016
5.712,-0.016
5.713,-0.016
5.714,-0.012
5.715,-0.016
5.716,-0.014
5.717,-0.016
5.718,-0.017
5.719,-0.016
5.720,-0.009
5.721,-0.006
5.722,-0.007
5.723,-0.006
5.724,-0.007
5.725,-0.006
5.726,-0.005
5.727,0.000
5.728,0.000
5.729,0.003
5.730,0.004
5.731,0.009
5.732,0.005
5.733,0.006
5.734,0.005
5.735,0.006
5.736,0.016
5.737,0.019
5.738,0.018
5.739,0.019
5.740,0.019
5.741,0.019
5.742,0.023
5.743,0.025
5.744,0.027
5.745,0.025
5.746,0.030
5.747,0.028
5.748,0.036
5.749,0.041
5.750,0.037
5.751,0.041
5.752,0.047
5.753,0.050
5.754,0.054
5.755,0.059
5.756,0.061
5.757,0.063
5.758,0.063
5.759,0.066
5.760,0.064
5.761,0.063
5.762,0.070
5.763,0.072
5.764,0.076
5.765,0.078
5.766,0.080
5.767,0.081
5.768,0.086
5.769,0.091
5.770,0.100
5.771,0.106
5.772,0.106
5.773,0.106
5.774,0.109
5.775,0.113
5.776,0.120
5.777,0.125
5.778,0.127
5.779,0.125
5.780,0.129
5.781,0.134
5.782,0.136
5.783,0.137
5.784,0.139
5.785,0.141
5.786,0.147
5.787,0.150
5.788,0.154
5.789,0.159
5.790,0.163
5.791,0.166
5.792,0.167
5.793,0.172
5.794,0.175
5.795,0.175
5.796,0.178
5.797,0.184
5.798,0.191
5.799,0.197
5.800,0.197
5.801,0.200
5.802,0.205
5.803,0.206
5.804,0.209
5.805,0.213
5.806,0.213
5.807,0.216
5.808,0.219
5.809,0.222
5.810,0.223
5.811,0.228
5.812,0.231
5.813,0.234
5.814,0.236
5.815,0.241
5.816,0.245
5.817,0.247
5.818,0.249
5.819,0.247
5.820,0.253
5.821,0.256
5.822,0.259
5.823,0.256
5.824,0.258
5.825,0.263
5.826,0.264
5.827,0.263
5.828,0.261
5.829,0.263
5.830,0.264
5.831,0.269
5.832,0.270
5.833,0.272
5.834,0.274
5.835,0.272
5.836,0.276
5.837,0.278
5.838,0.279
5.839,0.284
5.840,0.283
5.841,0.284
5.842,0.289
5.843,0.291
5.844,0.293
5.845,0.291
5.846,0.291
5.847,0.294
5.848,0.298
5.849,0.300
5.850,0.300
5.851,0.297
5.852,0.303
5.853,0.303
5.854,0.303
5.855,0.303
5.856,0.306
5.857,0.309
5.858,0.311
5.859,0.309
5.860,0.311
5.861,0.309
5.862,0.309
5.863,0.309
5.864,0.311
5.865,0.312
5.866,0.303
5.867,0.300
5.868,0.301
5.869,0.303
5.870,0.301
5.871,0.297
5.872,0.294
5.873,0.284
5.874,0.283
5.875,0.284
5.876,0.280
5.877,0.272
5.878,0.264
5.879,0.256
5.880,0.254
5.881,0.253
5.882,0.250
5.883,0.247
5.884,0.241
5.885,0.234
5.886,0.231
5.887,0.228
5.888,0.221
5.889,0.209
5.890,0.200
5.891,0.191
5.892,0.189
5.893,0.181
5.894,0.172
5.895,0.163
5.896,0.158
5.897,0.153
5.898,0.150
5.899,0.144
5.900,0.133
5.901,0.125
5.902,0.122
5.903,0.116
5.904,0.107
5.905,0.103
5.906,0.096
5.907,0.088
5.908,0.081
5.909,0.072
5.910,0.061
5.911,0.053
5.912,0.049
5.913,0.044
5.914,0.042
5.915,0.037
5.916,0.034
5.917,0.028
5.918,0.026
5.919,0.022
5.920,0.020
5.921,0.016
5.922,0.011
5.923,0.006
5.924,0.002
5.925,-0.003
5.926,-0.006
5.927,-0.006
5.928,-0.014
5.929,-0.019
5.930,-0.019
5.931,-0.019
5.932,-0.020
5.933,-0.028
5.934,-0.031
5.935,-0.031
5.936,-0.030
5.937,-0.028
5.938,-0.028
5.939,-0.031
5.940,-0.034
5.941,-0.034
5.942,-0.033
5.943,-0.034
5.944,-0.041
5.945,-0.044
5.946,-0.047
5.947,-0.047
5.948,-0.048
5.949,-0.053
5.950,-0.052
5.951,-0.053
5.952,-0.054
5.953,-0.056
5.954,-0.056
5.955,-0.056
5.956,-0.061
5.957,-0.059
5.958,-0.061
5.959,-0.063
5.960,-0.064
5.961,-0.063
5.962,-0.064
5.963,-0.066
5.964,-0.067
5.965,-0.066
5.966,-0.067
5.967,-0.069
5.968,-0.073
5.969,-0.072
5.970,-0.066
5.971,-0.066
5.972,-0.066
5.973,-0.066
5.974,-0.066
5.975,-0.066
5.976,-0.067
5.977,-0.069
5.978,-0.072
5.979,-0.069
5.980,-0.064
5.981,-0.059
5.982,-0.059
5.983,-0.059
5.984,-0.061
5.985,-0.063
5.986,-0.063
5.987,-0.063
5.988,-0.067
5.989,-0.069
5.990,-0.069
5.991,-0.066
5.992,-0.069
5.993,-0.069
5.994,-0.070
5.995,-0.069
5.996,-0.067
5.997,-0.063
5.998,-0.059
5.999,-0.059
6.000,-0.059
6.001,-0.059
6.002,-0.059
6.003,-0.059
6.004,-0.061
6.005,-0.063
6.006,-0.059
6.007,-0.063
6.008,-0.063
6.009,-0.063
6.010,-0.061
6.011,-0.059
6.012,-0.066
6.013,-0.066
6.014,-0.066
6.015,-0.066
6.016,-0.066
6.017,-0.066
6.018,-0.067
6.019,-0.069
6.020,-0.066
6.021,-0.066
6.022,-0.069
6.023,-0.069
6.024,-0.072
6.025,-0.072
6.026,-0.069
6.027,-0.066
6.028,-0.067
6.029,-0.069
6.030,-0.067
6.031,-0.069
6.032,-0.067
6.033,-0.069
6.034,-0.069
6.035,-0.069
6.036,-0.069
6.037,-0.066
6.038,-0.069
6.039,-0.069
6.040,-0.069
6.041,-0.069
6.042,-0.069
6.043,-0.066
6.044,-0.067
6.045,-0.069
6.046,-0.067
6.047,-0.066
6.048,-0.069
6.049,-0.066
6.050,-0.069
6.051,-0.069
6.052,-0.067
6.053,-0.072
6.054,-0.073
6.055,-0.075
6.056,-0.071
6.057,-0.072
6.058,-0.073
6.059,-0.075
6.060,-0.071
6.061,-0.072
6.062,-0.073
6.063,-0.075
6.064,-0.072
6.065,-0.069
6.066,-0.073
6.067,-0.072
6.068,-0.075
6.069,-0.072
6.070,-0.072
6.071,-0.069
6.072,-0.070
6.073,-0.069
6.074,-0.073
6.075,-0.075
6.076,-0.075
6.077,-0.075
6.078,-0.078
6.079,-0.081
6.080,-0.078
6.081,-0.075
6.082,-0.081
6.083,-0.081
6.084,-0.084
6.085,-0.084
6.086,-0.084
6.087,-0.084
6.088,-0.086
6.089,-0.084
6.090,-0.086
6.091,-0.087
6.092,-0.084
6.093,-0.087
6.094,-0.089
6.095,-0.091
6.096,-0.094
6.097,-0.091
6.098,-0.089
6.099,-0.087
6.100,-0.086
6.101,-0.087
6.102,-0.089
6.103,-0.091
6.104,-0.091
6.105,-0.091
6.106,-0.091
6.107,-0.091
6.108,-0.091
6.109,-0.091
6.110,-0.095
6.111,-0.097
6.112,-0.098
6.113,-0.097
6.114,-0.099
6.115,-0.100
6.116,-0.096
6.117,-0.094
6.118,-0.095
6.119,-0.097
6.120,-0.097
6.121,-0.097
6.122,-0.096
6.123,-0.097
6.124,-0.098
6.125,-0.097
6.126,-0.101
6.127,-0.103
6.128,-0.104
6.129,-0.103
6.130,-0.103
6.131,-0.106
6.132,-0.103
6.133,-0.100
6.134,-0.100
6.135,-0.100
6.136,-0.101
6.137,-0.103
6.138,-0.097
6.139,-0.094
6.140,-0.094
6.141,-0.094
6.142,-0.095
6.143,-0.097
6.144,-0.098
6.145,-0.103
6.146,-0.104
6.147,-0.103
6.148,-0.106
6.149,-0.106
6.150,-0.106
6.151,-0.106
6.152,-0.105
6.153,-0.103
6.154,-0.106
6.155,-0.106
6.156,-0.107
6.157,-0.109
6.158,-0.105
6.159,-0.106
6.160,-0.107
6.161,-0.109
6.162,-0.108
6.163,-0.106
6.164,-0.105
6.165,-0.103
6.166,-0.104
6.167,-0.106
6.168,-0.107
6.169,-0.109
6.170,-0.108
6.171,-0.106
6.172,-0.112
6.173,-0.112
6.174,-0.108
6.175,-0.106
6.176,-0.105
6.177,-0.103
6.178,-0.109
6.179,-0.112
6.180,-0.114
6.181,-0.112
6.182,-0.114
6.183,-0.116
6.184,-0.116
6.185,-0.116
6.186,-0.112
6.187,-0.109
6.188,-0.111
6.189,-0.112
6.190,-0.116
6.191,-0.119
6.192,-0.114
6.193,-0.112
6.194,-0.111
6.195,-0.116
6.196,-0.117
6.197,-0.116
6.198,-0.112
6.199,-0.116
6.200,-0.117
6.201,-0.116
6.202,-0.114
6.203,-0.116
6.204,-0.114
6.205,-0.112
6.206,-0.114
6.207,-0.109
6.208,-0.112
6.209,-0.116
6.210,-0.119
6.211,-0.119
6.212,-0.117
6.213,-0.116
6.214,-0.116
6.215,-0.112
6.216,-0.111
6.217,-0.109
6.218,-0.108
6.219,-0.103
6.220,-0.103
6.221,-0.103
6.222,-0.106
6.223,-0.106
6.224,-0.100
6.225,-0.094
6.226,-0.089
6.227,-0.091
6.228,-0.092
6.229,-0.094
6.230,-0.094
6.231,-0.094
6.232,-0.094
6.233,-0.097
6.234,-0.100
6.235,-0.097
6.236,-0.084
6.237,-0.078
6.238,-0.072
6.239,-0.063
6.240,-0.053
6.241,-0.044
6.242,-0.042
6.243,-0.037
6.244,-0.039
6.245,-0.041
6.246,-0.042
6.247,-0.044
6.248,-0.047
6.249,-0.044
6.250,-0.048
6.251,-0.050
6.252,-0.049
6.253,-0.050
6.254,-0.056
6.255,-0.063
6.256,-0.066
6.257,-0.063
6.258,-0.066
6.259,-0.069
6.260,-0.067
6.261,-0.078
6.262,-0.092
6.263,-0.103
6.264,-0.107
6.265,-0.112
6.266,-0.114
6.267,-0.112
6.268,-0.117
6.269,-0.116
6.270,-0.114
6.271,-0.106
6.272,-0.104
6.273,-0.103
6.274,-0.097
6.275,-0.097
6.276,-0.092
6.277,-0.091
6.278,-0.086
6.279,-0.087
6.280,-0.080
6.281,-0.072
6.282,-0.070
6.283,-0.066
6.284,-0.067
6.285,-0.069
6.286,-0.072
6.287,-0.072
6.288,-0.076
6.289,-0.075
6.290,-0.076
6.291,-0.075
6.292,-0.071
6.293,-0.072
6.294,-0.078
6.295,-0.084
6.296,-0.082
6.297,-0.084
6.298,-0.083
6.299,-0.084
6.300,-0.084
6.301,-0.084
6.302,-0.087
6.303,-0.087
6.304,-0.089
6.305,-0.097
6.306,-0.105
6.307,-0.109
6.308,-0.108
6.309,-0.109
6.310,-0.112
6.311,-0.116
6.312,-0.126
6.313,-0.134
6.314,-0.137
6.315,-0.144
6.316,-0.154
6.317,-0.156
6.318,-0.156
6.319,-0.163
6.320,-0.164
6.321,-0.166
6.322,-0.167
6.323,-0.169
6.324,-0.172
6.325,-0.172
6.326,-0.166
6.327,-0.163
6.328,-0.164
6.329,-0.163
6.330,-0.163
6.331,-0.156
6.332,-0.153
6.333,-0.147
6.334,-0.151
6.335,-0.150
6.336,-0.151
6.337,-0.153
6.338,-0.152
6.339,-0.153
6.340,-0.152
6.341,-0.150
6.342,-0.150
6.343,-0.150
6.344,-0.150
6.345,-0.153
6.346,-0.154
6.347,-0.156
6.348,-0.153
6.349,-0.150
6.350,-0.154
6.351,-0.156
6.352,-0.156
6.353,-0.150
6.354,-0.151
6.355,-0.153
6.356,-0.154
6.357,-0.159
6.358,-0.155
6.359,-0.153
6.360,-0.155
6.361,-0.153
6.362,-0.150
6.363,-0.150
6.364,-0.147
6.365,-0.150
6.366,-0.146
6.367,-0.144
6.368,-0.144
6.369,-0.144
6.370,-0.148
6.371,-0.147
6.372,-0.147
6.373,-0.147
6.374,-0.148
6.375,-0.150
6.376,-0.147
6.377,-0.144
6.378,-0.144
6.379,-0.144
6.380,-0.139
6.381,-0.137
6.382,-0.136
6.383,-0.137
6.384,-0.137
6.385,-0.137
6.386,-0.137
6.387,-0.134
6.388,-0.137
6.389,-0.137
6.390,-0.141
6.391,-0.141
6.392,-0.137
6.393,-0.134
6.394,-0.134
6.395,-0.134
6.396,-0.133
6.397,-0.134
6.398,-0.130
6.399,-0.128
6.400,-0.133
6.401,-0.131
6.402,-0.127
6.403,-0.125
6.404,-0.126
6.405,-0.125
6.406,-0.129
6.407,-0.131
6.408,-0.129
6.409,-0.128
6.410,-0.127
6.411,-0.122
6.412,-0.125
6.413,-0.128
6.414,-0.123
6.415,-0.125
6.416,-0.127
6.417,-0.125
6.418,-0.125
6.419,-0.125
6.420,-0.121
6.421,-0.119
6.422,-0.119
6.423,-0.122
6.424,-0.124
6.425,-0.125
6.426,-0.130
6.427,-0.128
6.428,-0.134
6.429,-0.141
6.430,-0.142
6.431,-0.147
6.432,-0.154
6.433,-0.166
6.434,-0.177
6.435,-0.187
6.436,-0.201
6.437,-0.212
6.438,-0.226
6.439,-0.237
6.440,-0.234
6.441,-0.234
6.442,-0.231
6.443,-0.222
6.444,-0.217
6.445,-0.206
6.446,-0.181
6.447,-0.156
6.448,-0.137
6.449,-0.112
6.450,-0.086
6.451,-0.056
6.452,-0.029
6.453,0.003
6.454,0.045
6.455,0.103
6.456,0.158
6.457,0.219
6.458,0.280
6.459,0.347
6.460,0.429
6.461,0.519
6.462,0.604
6.463,0.688
6.464,0.769
6.465,0.834
6.466,0.864
6.467,0.894
6.468,0.902
6.469,0.912
6.470,0.925
6.471,0.934
6.472,0.941
6.473,0.938
6.474,0.933
6.475,0.919
6.476,0.877
6.477,0.838
6.478,0.802
6.479,0.763
6.480,0.738
6.481,0.712
6.482,0.679
6.483,0.644
6.484,0.588
6.485,0.522
6.486,0.453
6.487,0.363
6.488,0.236
6.489,0.106
6.490,-0.012
6.491,-0.116
6.492,-0.194
6.493,-0.269
6.494,-0.334
6.495,-0.394
6.496,-0.429
6.497,-0.463
6.498,-0.469
6.499,-0.472
6.500,-0.475
6.501,-0.463
6.502,-0.449
6.503,-0.434
6.504,-0.414
6.505,-0.394
6.506,-0.375
6.507,-0.350
6.508,-0.317
6.509,-0.291
6.510,-0.270
6.511,-0.250
6.512,-0.233
6.513,-0.219
6.514,-0.206
6.515,-0.197
6.516,-0.184
6.517,-0.172
6.518,-0.164
6.519,-0.153
6.520,-0.137
6.521,-0.125
6.522,-0.117
6.523,-0.109
6.524,-0.103
6.525,-0.097
6.526,-0.093
6.527,-0.087
6.528,-0.086
6.529,-0.081
6.530,-0.072
6.531,-0.063
6.532,-0.058
6.533,-0.056
6.534,-0.056
6.535,-0.056
6.536,-0.054
6.537,-0.056
6.538,-0.058
6.539,-0.059
6.540,-0.055
6.541,-0.053
6.542,-0.050
6.543,-0.050
6.544,-0.050
6.545,-0.050
6.546,-0.050
6.547,-0.053
6.548,-0.051
6.549,-0.053
6.550,-0.054
6.551,-0.053
6.552,-0.051
6.553,-0.050
6.554,-0.049
6.555,-0.047
6.556,-0.047
6.557,-0.047
6.558,-0.042
6.559,-0.037
6.560,-0.039
6.561,-0.037
6.562,-0.039
6.563,-0.037
6.564,-0.036
6.565,-0.034
6.566,-0.034
6.567,-0.034
6.568,-0.036
6.569,-0.034
6.570,-0.033
6.571,-0.031
6.572,-0.031
6.573,-0.031
6.574,-0.030
6.575,-0.025
6.576,-0.024
6.577,-0.022
6.578,-0.029
6.579,-0.031
6.580,-0.027
6.581,-0.022
6.582,-0.023
6.583,-0.025
6.584,-0.022
6.585,-0.019
6.586,-0.014
6.587,-0.009
6.588,-0.011
6.589,-0.012
6.590,-0.012
6.591,-0.016
6.592,-0.016
6.593,-0.012
6.594,-0.017
6.595,-0.016
6.596,-0.012
6.597,-0.009
6.598,-0.006
6.599,-0.003
6.600,-0.003
6.601,-0.003
6.602,-0.001
6.603,-0.003
6.604,0.000
6.605,0.000
6.606,0.002
6.607,0.000
6.608,0.003
6.609,0.003
6.610,0.006
6.611,0.003
6.612,0.005
6.613,0.003
6.614,0.009
6.615,0.019
6.616,0.022
6.617,0.025
6.618,0.027
6.619,0.028
6.620,0.033
6.621,0.037
6.622,0.034
6.623,0.034
6.624,0.036
6.625,0.044
6.626,0.045
6.627,0.050
6.628,0.047
6.629,0.044
6.630,0.050
6.631,0.053
6.632,0.054
6.633,0.059
6.634,0.063
6.635,0.066
6.636,0.072
6.637,0.075
6.638,0.072
6.639,0.069
6.640,0.073
6.641,0.081
6.642,0.083
6.643,0.088
6.644,0.089
6.645,0.094
6.646,0.096
6.647,0.097
6.648,0.097
6.649,0.100
6.650,0.104
6.651,0.109
6.652,0.114
6.653,0.119
6.654,0.121
6.655,0.122
6.656,0.123
6.657,0.131
6.658,0.134
6.659,0.137
6.660,0.141
6.661,0.144
6.662,0.147
6.663,0.150
6.664,0.153
6.665,0.159
6.666,0.164
6.667,0.169
6.668,0.172
6.669,0.175
6.670,0.178
6.671,0.178
6.672,0.183
6.673,0.191
6.674,0.194
6.675,0.197
6.676,0.203
6.677,0.206
6.678,0.208
6.679,0.206
6.680,0.208
6.681,0.213
6.682,0.217
6.683,0.222
6.684,0.225
6.685,0.225
6.686,0.228
6.687,0.231
6.688,0.234
6.689,0.234
6.690,0.237
6.691,0.241
6.692,0.244
6.693,0.244
6.694,0.247
6.695,0.250
6.696,0.251
6.697,0.256
6.698,0.259
6.699,0.266
6.700,0.261
6.701,0.263
6.702,0.266
6.703,0.269
6.704,0.269
6.705,0.269
6.706,0.268
6.707,0.266
6.708,0.272
6.709,0.275
6.710,0.279
6.711,0.281
6.712,0.280
6.713,0.281
6.714,0.280
6.715,0.281
6.716,0.284
6.717,0.288
6.718,0.294
6.719,0.297
6.720,0.300
6.721,0.303
6.722,0.302
6.723,0.303
6.724,0.303
6.725,0.303
6.726,0.305
6.727,0.306
6.728,0.305
6.729,0.306
6.730,0.306
6.731,0.312
6.732,0.312
6.733,0.312
6.734,0.311
6.735,0.312
6.736,0.317
6.737,0.319
6.738,0.316
6.739,0.316
6.740,0.312
6.741,0.312
6.742,0.312
6.743,0.312
6.744,0.312
6.745,0.306
6.746,0.305
6.747,0.303
6.748,0.306
6.749,0.306
6.750,0.301
6.751,0.303
6.752,0.298
6.753,0.294
6.754,0.292
6.755,0.291
6.756,0.283
6.757,0.275
6.758,0.269
6.759,0.266
6.760,0.263
6.761,0.256
6.762,0.249
6.763,0.241
6.764,0.236
6.765,0.234
6.766,0.230
6.767,0.222
6.768,0.214
6.769,0.209
6.770,0.203
6.771,0.200
6.772,0.189
6.773,0.181
6.774,0.175
6.775,0.166
6.776,0.156
6.777,0.153
6.778,0.147
6.779,0.137
6.780,0.133
6.781,0.131
6.782,0.126
6.783,0.119
6.784,0.111
6.785,0.103
6.786,0.098
6.787,0.094
6.788,0.084
6.789,0.078
6.790,0.072
6.791,0.066
6.792,0.063
6.793,0.056
6.794,0.048
6.795,0.047
6.796,0.039
6.797,0.034
6.798,0.029
6.799,0.028
6.800,0.021
6.801,0.016
6.802,0.016
6.803,0.016
6.804,0.011
6.805,0.003
6.806,0.000
6.807,-0.003
6.808,-0.003
6.809,-0.006
6.810,-0.014
6.811,-0.019
6.812,-0.024
6.813,-0.025
6.814,-0.025
6.815,-0.028
6.816,-0.031
6.817,-0.031
6.818,-0.034
6.819,-0.037
6.820,-0.041
6.821,-0.044
6.822,-0.046
6.823,-0.047
6.824,-0.046
6.825,-0.047
6.826,-0.047
6.827,-0.047
6.828,-0.053
6.829,-0.056
6.830,-0.058
6.831,-0.056
6.832,-0.058
6.833,-0.059
6.834,-0.058
6.835,-0.059
6.836,-0.055
6.837,-0.056
6.838,-0.063
6.839,-0.066
6.840,-0.059
6.841,-0.056
6.842,-0.055
6.843,-0.056
6.844,-0.059
6.845,-0.063
6.846,-0.063
6.847,-0.066
6.848,-0.064
6.849,-0.063
6.850,-0.066
6.851,-0.066
6.852,-0.066
6.853,-0.066
6.854,-0.066
6.855,-0.066
6.856,-0.066
6.857,-0.069
6.858,-0.066
6.859,-0.066
6.860,-0.067
6.861,-0.069
6.862,-0.069
6.863,-0.069
6.864,-0.067
6.865,-0.066
6.866,-0.064
6.867,-0.066
6.868,-0.067
6.869,-0.069
6.870,-0.064
6.871,-0.066
6.872,-0.067
6.873,-0.069
6.874,-0.067
6.875,-0.069
6.876,-0.063
6.877,-0.059
6.878,-0.064
6.879,-0.066
6.880,-0.066
6.881,-0.066
6.882,-0.066
6.883,-0.066
6.884,-0.067
6.885,-0.066
6.886,-0.067
6.887,-0.066
6.888,-0.066
6.889,-0.066
6.890,-0.066
6.891,-0.069
6.892,-0.064
6.893,-0.063
6.894,-0.063
6.895,-0.063
6.896,-0.063
6.897,-0.063
6.898,-0.063
6.899,-0.063
6.900,-0.066
6.901,-0.066
6.902,-0.063
6.903,-0.066
6.904,-0.067
6.905,-0.069
6.906,-0.067
6.907,-0.066
6.908,-0.064
6.909,-0.059
6.910,-0.061
6.911,-0.063
6.912,-0.066
6.913,-0.066
6.914,-0.064
6.915,-0.063
6.916,-0.061
6.917,-0.066
6.918,-0.064
6.919,-0.063
6.920,-0.063
6.921,-0.063
6.922,-0.063
6.923,-0.069
6.924,-0.075
6.925,-0.075
6.926,-0.071
6.927,-0.072
6.928,-0.069
6.929,-0.072
6.930,-0.072
6.931,-0.069
6.932,-0.072
6.933,-0.072
6.934,-0.073
6.935,-0.072
6.936,-0.072
6.937,-0.069
6.938,-0.070
6.939,-0.069
6.940,-0.072
6.941,-0.072
6.942,-0.071
6.943,-0.069
6.944,-0.069
6.945,-0.072
6.946,-0.070
6.947,-0.075
6.948,-0.072
6.949,-0.075
6.950,-0.075
6.951,-0.075
6.952,-0.069
6.953,-0.069
6.954,-0.069
6.955,-0.069
6.956,-0.073
6.957,-0.078
6.958,-0.077
6.959,-0.075
6.960,-0.072
6.961,-0.072
6.962,-0.069
6.963,-0.072
6.964,-0.072
6.965,-0.072
6.966,-0.071
6.967,-0.072
6.968,-0.076
6.969,-0.081
6.970,-0.082
6.971,-0.081
6.972,-0.084
6.973,-0.084
6.974,-0.084
6.975,-0.087
6.976,-0.084
6.977,-0.084
6.978,-0.086
6.979,-0.087
6.980,-0.089
6.981,-0.087
6.982,-0.087
6.983,-0.087
6.984,-0.086
6.985,-0.084
6.986,-0.084
6.987,-0.084
6.988,-0.083
6.989,-0.084
6.990,-0.086
6.991,-0.087
6.992,-0.083
6.993,-0.084
6.994,-0.092
6.995,-0.094
6.996,-0.094
6.997,-0.094
6.998,-0.094
6.999,-0.094
7.000,-0.093
7.001,-0.091
7.002,-0.094
7.003,-0.094
7.004,-0.089
7.005,-0.091
7.006,-0.094
7.007,-0.097
7.008,-0.094
7.009,-0.094
7.010,-0.094
7.011,-0.091
7.012,-0.091
7.013,-0.091
7.014,-0.089
7.015,-0.087
7.016,-0.087
7.017,-0.087
7.018,-0.091
7.019,-0.091
7.020,-0.091
7.021,-0.091
7.022,-0.092
7.023,-0.094
7.024,-0.098
7.025,-0.100
7.026,-0.097
7.027,-0.100
7.028,-0.103
7.029,-0.106
7.030,-0.106
7.031,-0.106
7.032,-0.105
7.033,-0.106
7.034,-0.106
7.035,-0.106
7.036,-0.106
7.037,-0.103
7.038,-0.105
7.039,-0.103
7.040,-0.102
7.041,-0.100
7.042,-0.100
7.043,-0.100
7.044,-0.101
7.045,-0.103
7.046,-0.103
7.047,-0.103
7.048,-0.104
7.049,-0.106
7.050,-0.105
7.051,-0.106
7.052,-0.102
7.053,-0.100
7.054,-0.103
7.055,-0.103
7.056,-0.103
7.057,-0.103
7.058,-0.100
7.059,-0.103
7.060,-0.103
7.061,-0.103
7.062,-0.103
7.063,-0.103
7.064,-0.099
7.065,-0.094
7.066,-0.095
7.067,-0.097
7.068,-0.098
7.069,-0.100
7.070,-0.101
7.071,-0.103
7.072,-0.112
7.073,-0.116
7.074,-0.117
7.075,-0.116
7.076,-0.111
7.077,-0.106
7.078,-0.109
7.079,-0.109
7.080,-0.106
7.081,-0.106
7.082,-0.112
7.083,-0.112
7.084,-0.109
7.085,-0.112
7.086,-0.109
7.087,-0.109
7.088,-0.109
7.089,-0.109
7.090,-0.107
7.091,-0.106
7.092,-0.102
7.093,-0.100
7.094,-0.098
7.095,-0.097
7.096,-0.093
7.097,-0.091
7.098,-0.087
7.099,-0.087
7.100,-0.087
7.101,-0.087
7.102,-0.083
7.103,-0.078
7.104,-0.079
7.105,-0.081
7.106,-0.089
7.107,-0.094
7.108,-0.093
7.109,-0.091
7.110,-0.087
7.111,-0.084
7.112,-0.077
7.113,-0.066
7.114,-0.055
7.115,-0.047
7.116,-0.048
7.117,-0.044
7.118,-0.041
7.119,-0.037
7.120,-0.036
7.121,-0.034
7.122,-0.037
7.123,-0.034
7.124,-0.036
7.125,-0.034
7.126,-0.037
7.127,-0.044
7.128,-0.048
7.129,-0.053
7.130,-0.058
7.131,-0.056
7.132,-0.059
7.133,-0.063
7.134,-0.061
7.135,-0.072
7.136,-0.086
7.137,-0.097
7.138,-0.101
7.139,-0.106
7.140,-0.106
7.141,-0.103
7.142,-0.107
7.143,-0.106
7.144,-0.106
7.145,-0.100
7.146,-0.097
7.147,-0.094
7.148,-0.089
7.149,-0.091
7.150,-0.089
7.151,-0.091
7.152,-0.080
7.153,-0.075
7.154,-0.069
7.155,-0.063
7.156,-0.059
7.157,-0.053
7.158,-0.055
7.159,-0.056
7.160,-0.063
7.161,-0.066
7.162,-0.070
7.163,-0.069
7.164,-0.070
7.165,-0.069
7.166,-0.066
7.167,-0.069
7.168,-0.072
7.169,-0.075
7.170,-0.072
7.171,-0.072
7.172,-0.071
7.173,-0.072
7.174,-0.072
7.175,-0.072
7.176,-0.076
7.177,-0.078
7.178,-0.078
7.179,-0.084
7.180,-0.095
7.181,-0.103
7.182,-0.104
7.183,-0.109
7.184,-0.109
7.185,-0.109
7.186,-0.119
7.187,-0.125
7.188,-0.131
7.189,-0.141
7.190,-0.149
7.191,-0.147
7.192,-0.146
7.193,-0.150
7.194,-0.153
7.195,-0.156
7.196,-0.155
7.197,-0.153
7.198,-0.158
7.199,-0.159
7.200,-0.158
7.201,-0.159
7.202,-0.159
7.203,-0.156
7.204,-0.158
7.205,-0.153
7.206,-0.152
7.207,-0.147
7.208,-0.149
7.209,-0.144
7.210,-0.144
7.211,-0.144
7.212,-0.147
7.213,-0.153
7.214,-0.154
7.215,-0.156
7.216,-0.158
7.217,-0.159
7.218,-0.153
7.219,-0.150
7.220,-0.149
7.221,-0.147
7.222,-0.142
7.223,-0.137
7.224,-0.139
7.225,-0.137
7.226,-0.142
7.227,-0.141
7.228,-0.141
7.229,-0.141
7.230,-0.137
7.231,-0.137
7.232,-0.136
7.233,-0.137
7.234,-0.139
7.235,-0.137
7.236,-0.136
7.237,-0.137
7.238,-0.137
7.239,-0.144
7.240,-0.137
7.241,-0.134
7.242,-0.131
7.243,-0.128
7.244,-0.134
7.245,-0.134
7.246,-0.134
7.247,-0.134
7.248,-0.134
7.249,-0.134
7.250,-0.137
7.251,-0.141
7.252,-0.139
7.253,-0.137
7.254,-0.136
7.255,-0.137
7.256,-0.134
7.257,-0.134
7.258,-0.131
7.259,-0.128
7.260,-0.129
7.261,-0.128
7.262,-0.131
7.263,-0.131
7.264,-0.130
7.265,-0.125
7.266,-0.125
7.267,-0.125
7.268,-0.125
7.269,-0.125
7.270,-0.123
7.271,-0.125
7.272,-0.123
7.273,-0.125
7.274,-0.125
7.275,-0.119
7.276,-0.117
7.277,-0.119
7.278,-0.119
7.279,-0.116
7.280,-0.117
7.281,-0.116
7.282,-0.116
7.283,-0.116
7.284,-0.119
7.285,-0.119
7.286,-0.117
7.287,-0.116
7.288,-0.109
7.289,-0.109
7.290,-0.112
7.291,-0.112
7.292,-0.111
7.293,-0.109
7.294,-0.107
7.295,-0.109
7.296,-0.108
7.297,-0.109
7.298,-0.112
7.299,-0.116
7.300,-0.122
7.301,-0.122
7.302,-0.122
7.303,-0.122
7.304,-0.128
7.305,-0.137
7.306,-0.145
7.307,-0.156
7.308,-0.166
7.309,-0.175
7.310,-0.192
7.311,-0.206
7.312,-0.216
7.313,-0.222
7.314,-0.219
7.315,-0.219
7.316,-0.216
7.317,-0.206
7.318,-0.197
7.319,-0.181
7.320,-0.161
7.321,-0.141
7.322,-0.125
7.323,-0.103
7.324,-0.075
7.325,-0.044
7.326,-0.012
7.327,0.025
7.328,0.066
7.329,0.122
7.330,0.175
7.331,0.234
7.332,0.289
7.333,0.350
7.334,0.427
7.335,0.509
7.336,0.592
7.337,0.672
7.338,0.739
7.339,0.791
7.340,0.809
7.341,0.828
7.342,0.831
7.343,0.838
7.344,0.861
7.345,0.881
7.346,0.906
7.347,0.922
7.348,0.919
7.349,0.906
7.350,0.875
7.351,0.847
7.352,0.828
7.353,0.806
7.354,0.772
7.355,0.738
7.356,0.706
7.357,0.672
7.358,0.625
7.359,0.569
7.360,0.501
7.361,0.412
7.362,0.286
7.363,0.156
7.364,0.044
7.365,-0.053
7.366,-0.131
7.367,-0.206
7.368,-0.273
7.369,-0.334
7.370,-0.378
7.371,-0.419
7.372,-0.436
7.373,-0.450
7.374,-0.454
7.375,-0.444
7.376,-0.436
7.377,-0.428
7.378,-0.414
7.379,-0.400
7.380,-0.381
7.381,-0.356
7.382,-0.326
7.383,-0.303
7.384,-0.280
7.385,-0.256
7.386,-0.236
7.387,-0.219
7.388,-0.204
7.389,-0.194
7.390,-0.182
7.391,-0.172
7.392,-0.158
7.393,-0.141
7.394,-0.129
7.395,-0.122
7.396,-0.112
7.397,-0.103
7.398,-0.098
7.399,-0.094
7.400,-0.092
7.401,-0.091
7.402,-0.087
7.403,-0.081
7.404,-0.076
7.405,-0.072
7.406,-0.069
7.407,-0.069
7.408,-0.061
7.409,-0.053
7.410,-0.051
7.411,-0.053
7.412,-0.052
7.413,-0.050
7.414,-0.047
7.415,-0.047
7.416,-0.045
7.417,-0.047
7.418,-0.047
7.419,-0.047
7.420,-0.046
7.421,-0.047
7.422,-0.045
7.423,-0.047
7.424,-0.044
7.425,-0.037
7.426,-0.036
7.427,-0.034
7.428,-0.034
7.429,-0.034
7.430,-0.034
7.431,-0.034
7.432,-0.034
7.433,-0.034
7.434,-0.034
7.435,-0.031
7.436,-0.034
7.437,-0.034
7.438,-0.034
7.439,-0.034
7.440,-0.033
7.441,-0.031
7.442,-0.033
7.443,-0.031
7.444,-0.033
7.445,-0.034
7.446,-0.034
7.447,-0.034
7.448,-0.033
7.449,-0.028
7.450,-0.027
7.451,-0.025
7.452,-0.027
7.453,-0.022
7.454,-0.020
7.455,-0.019
7.456,-0.022
7.457,-0.025
7.458,-0.021
7.459,-0.016
7.460,-0.016
7.461,-0.016
7.462,-0.014
7.463,-0.012
7.464,-0.008
7.465,-0.006
7.466,-0.007
7.467,-0.006
7.468,-0.009
7.469,-0.006
7.470,-0.003
7.471,0.000
7.472,0.002
7.473,0.003
7.474,0.003
7.475,0.003
7.476,0.005
7.477,0.003
7.478,0.005
7.479,0.003
7.480,0.005
7.481,0.003
7.482,0.005
7.483,0.003
7.484,0.007
7.485,0.006
7.486,0.016
7.487,0.022
7.488,0.021
7.489,0.022
7.490,0.022
7.491,0.022
7.492,0.025
7.493,0.028
7.494,0.031
7.495,0.034
7.496,0.037
7.497,0.044
7.498,0.041
7.499,0.044
7.500,0.044
7.501,0.047
7.502,0.048
7.503,0.050
7.504,0.056
7.505,0.059
7.506,0.058
7.507,0.059
7.508,0.063
7.509,0.066
7.510,0.069
7.511,0.069
7.512,0.073
7.513,0.078
7.514,0.080
7.515,0.084
7.516,0.084
7.517,0.088
7.518,0.091
7.519,0.097
7.520,0.099
7.521,0.100
7.522,0.103
7.523,0.109
7.524,0.113
7.525,0.116
7.526,0.118
7.527,0.119
7.528,0.121
7.529,0.122
7.530,0.125
7.531,0.134
7.532,0.141
7.533,0.147
7.534,0.149
7.535,0.150
7.536,0.154
7.537,0.159
7.538,0.161
7.539,0.166
7.540,0.170
7.541,0.175
7.542,0.175
7.543,0.175
7.544,0.177
7.545,0.175
7.546,0.179
7.547,0.188
7.548,0.192
7.549,0.197
7.550,0.202
7.551,0.203
7.552,0.207
7.553,0.209
7.554,0.211
7.555,0.216
7.556,0.218
7.557,0.219
7.558,0.223
7.559,0.225
7.560,0.225
7.561,0.225
7.562,0.229
7.563,0.231
7.564,0.233
7.565,0.234
7.566,0.241
7.567,0.244
7.568,0.246
7.569,0.247
7.570,0.248
7.571,0.253
7.572,0.252
7.573,0.253
7.574,0.252
7.575,0.256
7.576,0.259
7.577,0.263
7.578,0.263
7.579,0.263
7.580,0.264
7.581,0.266
7.582,0.269
7.583,0.269
7.584,0.273
7.585,0.275
7.586,0.278
7.587,0.284
7.588,0.284
7.589,0.288
7.590,0.288
7.591,0.288
7.592,0.289
7.593,0.288
7.594,0.288
7.595,0.288
7.596,0.289
7.597,0.294
7.598,0.293
7.599,0.291
7.600,0.291
7.601,0.291
7.602,0.294
7.603,0.300
7.604,0.299
7.605,0.303
7.606,0.300
7.607,0.297
7.608,0.298
7.609,0.303
7.610,0.306
7.611,0.306
7.612,0.304
7.613,0.306
7.614,0.304
7.615,0.306
7.616,0.305
7.617,0.303
7.618,0.304
7.619,0.300
7.620,0.300
7.621,0.300
7.622,0.299
7.623,0.294
7.624,0.289
7.625,0.291
7.626,0.284
7.627,0.278
7.628,0.274
7.629,0.269
7.630,0.266
7.631,0.263
7.632,0.256
7.633,0.253
7.634,0.250
7.635,0.244
7.636,0.237
7.637,0.231
7.638,0.225
7.639,0.222
7.640,0.219
7.641,0.213
7.642,0.200
7.643,0.191
7.644,0.181
7.645,0.175
7.646,0.169
7.647,0.166
7.648,0.163
7.649,0.156
7.650,0.146
7.651,0.141
7.652,0.134
7.653,0.125
7.654,0.122
7.655,0.122
7.656,0.116
7.657,0.106
7.658,0.099
7.659,0.091
7.660,0.084
7.661,0.078
7.662,0.066
7.663,0.056
7.664,0.056
7.665,0.056
7.666,0.053
7.667,0.047
7.668,0.037
7.669,0.034
7.670,0.029
7.671,0.028
7.672,0.019
7.673,0.013
7.674,0.009
7.675,0.009
7.676,0.003
7.677,-0.003
7.678,-0.003
7.679,-0.006
7.680,-0.008
7.681,-0.009
7.682,-0.009
7.683,-0.012
7.684,-0.014
7.685,-0.012
7.686,-0.019
7.687,-0.022
7.688,-0.025
7.689,-0.031
7.690,-0.034
7.691,-0.034
7.692,-0.034
7.693,-0.034
7.694,-0.039
7.695,-0.044
7.696,-0.047
7.697,-0.050
7.698,-0.050
7.699,-0.053
7.700,-0.052
7.701,-0.050
7.702,-0.052
7.703,-0.050
7.704,-0.058
7.705,-0.063
7.706,-0.066
7.707,-0.069
7.708,-0.067
7.709,-0.069
7.710,-0.067
7.711,-0.072
7.712,-0.072
7.713,-0.069
7.714,-0.067
7.715,-0.069
7.716,-0.067
7.717,-0.069
7.718,-0.069
7.719,-0.069
7.720,-0.069
7.721,-0.072
7.722,-0.069
7.723,-0.066
7.724,-0.069
7.725,-0.069
7.726,-0.070
7.727,-0.072
7.728,-0.072
7.729,-0.072
7.730,-0.071
7.731,-0.072
7.732,-0.070
7.733,-0.072
7.734,-0.072
7.735,-0.072
7.736,-0.072
7.737,-0.072
7.738,-0.072
7.739,-0.072
7.740,-0.071
7.741,-0.072
7.742,-0.072
7.743,-0.072
7.744,-0.069
7.745,-0.072
7.746,-0.072
7.747,-0.072
7.748,-0.069
7.749,-0.069
7.750,-0.066
7.751,-0.066
7.752,-0.069
7.753,-0.069
7.754,-0.070
7.755,-0.072
7.756,-0.072
7.757,-0.072
7.758,-0.072
7.759,-0.069
7.760,-0.072
7.761,-0.072
7.762,-0.072
7.763,-0.072
7.764,-0.072
7.765,-0.075
7.766,-0.072
7.767,-0.072
7.768,-0.071
7.769,-0.069
7.770,-0.070
7.771,-0.072
7.772,-0.071
7.773,-0.069
7.774,-0.072
7.775,-0.072
7.776,-0.066
7.777,-0.066
7.778,-0.067
7.779,-0.069
7.780,-0.069
7.781,-0.069
7.782,-0.072
7.783,-0.072
7.784,-0.071
7.785,-0.069
7.786,-0.071
7.787,-0.069
7.788,-0.069
7.789,-0.069
7.790,-0.066
7.791,-0.069
7.792,-0.069
7.793,-0.069
7.794,-0.072
7.795,-0.075
7.796,-0.072
7.797,-0.075
7.798,-0.079
7.799,-0.078
7.800,-0.078
7.801,-0.084
7.802,-0.077
7.803,-0.075
7.804,-0.075
7.805,-0.072
7.806,-0.075
7.807,-0.075
7.808,-0.075
7.809,-0.072
7.810,-0.072
7.811,-0.069
7.812,-0.070
7.813,-0.069
7.814,-0.071
7.815,-0.069
7.816,-0.070
7.817,-0.072
7.818,-0.071
7.819,-0.072
7.820,-0.070
7.821,-0.075
7.822,-0.071
7.823,-0.072
7.824,-0.072
7.825,-0.072
7.826,-0.069
7.827,-0.072
7.828,-0.072
7.829,-0.072
7.830,-0.073
7.831,-0.075
7.832,-0.076
7.833,-0.078
7.834,-0.078
7.835,-0.081
7.836,-0.075
7.837,-0.075
7.838,-0.076
7.839,-0.078
7.840,-0.078
7.841,-0.081
7.842,-0.081
7.843,-0.081
7.844,-0.084
7.845,-0.084
7.846,-0.087
7.847,-0.087
7.848,-0.086
7.849,-0.087
7.850,-0.083
7.851,-0.081
7.852,-0.078
7.853,-0.075
7.854,-0.077
7.855,-0.075
7.856,-0.076
7.857,-0.078
7.858,-0.081
7.859,-0.084
7.860,-0.084
7.861,-0.084
7.862,-0.084
7.863,-0.087
7.864,-0.087
7.865,-0.087
7.866,-0.083
7.867,-0.084
7.868,-0.087
7.869,-0.084
7.870,-0.086
7.871,-0.087
7.872,-0.087
7.873,-0.087
7.874,-0.086
7.875,-0.084
7.876,-0.089
7.877,-0.091
7.878,-0.087
7.879,-0.091
7.880,-0.091
7.881,-0.091
7.882,-0.086
7.883,-0.084
7.884,-0.087
7.885,-0.087
7.886,-0.087
7.887,-0.087
7.888,-0.092
7.889,-0.097
7.890,-0.097
7.891,-0.097
7.892,-0.097
7.893,-0.094
7.894,-0.095
7.895,-0.097
7.896,-0.094
7.897,-0.091
7.898,-0.093
7.899,-0.091
7.900,-0.087
7.901,-0.091
7.902,-0.091
7.903,-0.091
7.904,-0.091
7.905,-0.091
7.906,-0.089
7.907,-0.091
7.908,-0.091
7.909,-0.091
7.910,-0.092
7.911,-0.091
7.912,-0.094
7.913,-0.094
7.914,-0.095
7.915,-0.097
7.916,-0.098
7.917,-0.100
7.918,-0.099
7.919,-0.097
7.920,-0.096
7.921,-0.094
7.922,-0.095
7.923,-0.097
7.924,-0.097
7.925,-0.100
7.926,-0.097
7.927,-0.097
7.928,-0.101
7.929,-0.103
7.930,-0.102
7.931,-0.100
7.932,-0.096
7.933,-0.097
7.934,-0.098
7.935,-0.100
7.936,-0.097
7.937,-0.094
7.938,-0.095
7.939,-0.097
7.940,-0.096
7.941,-0.094
7.942,-0.095
7.943,-0.097
7.944,-0.097
7.945,-0.097
7.946,-0.100
7.947,-0.097
7.948,-0.099
7.949,-0.097
7.950,-0.094
7.951,-0.091
7.952,-0.093
7.953,-0.091
7.954,-0.086
7.955,-0.084
7.956,-0.086
7.957,-0.081
7.958,-0.077
7.959,-0.078
7.960,-0.078
7.961,-0.081
7.962,-0.082
7.963,-0.084
7.964,-0.084
7.965,-0.084
7.966,-0.082
7.967,-0.084
7.968,-0.078
7.969,-0.072
7.970,-0.066
7.971,-0.063
7.972,-0.052
7.973,-0.044
7.974,-0.042
7.975,-0.034
7.976,-0.033
7.977,-0.034
7.978,-0.031
7.979,-0.028
7.980,-0.028
7.981,-0.031
7.982,-0.028
7.983,-0.031
7.984,-0.030
7.985,-0.031
7.986,-0.039
7.987,-0.044
7.988,-0.046
7.989,-0.050
7.990,-0.050
7.991,-0.053
7.992,-0.059
7.993,-0.066
7.994,-0.080
7.995,-0.091
7.996,-0.101
7.997,-0.106
7.998,-0.116
7.999,-0.122
8.000,-0.117
8.001,-0.119
8.002,-0.114
8.003,-0.112
8.004,-0.109
8.005,-0.109
8.006,-0.103
8.007,-0.097
8.008,-0.099
8.009,-0.091
8.010,-0.087
8.011,-0.081
8.012,-0.080
8.013,-0.072
8.014,-0.064
8.015,-0.059
8.016,-0.053
8.017,-0.056
8.018,-0.058
8.019,-0.063
8.020,-0.066
8.021,-0.069
8.022,-0.067
8.023,-0.069
8.024,-0.067
8.025,-0.066
8.026,-0.066
8.027,-0.066
8.028,-0.070
8.029,-0.069
8.030,-0.067
8.031,-0.066
8.032,-0.070
8.033,-0.072
8.034,-0.071
8.035,-0.072
8.036,-0.071
8.037,-0.072
8.038,-0.084
8.039,-0.097
8.040,-0.103
8.041,-0.103
8.042,-0.106
8.043,-0.109
8.044,-0.112
8.045,-0.122
8.046,-0.128
8.047,-0.131
8.048,-0.134
8.049,-0.141
8.050,-0.141
8.051,-0.141
8.052,-0.146
8.053,-0.144
8.054,-0.145
8.055,-0.147
8.056,-0.146
8.057,-0.147
8.058,-0.148
8.059,-0.147
8.060,-0.147
8.061,-0.147
8.062,-0.144
8.063,-0.144
8.064,-0.142
8.065,-0.147
8.066,-0.144
8.067,-0.147
8.068,-0.144
8.069,-0.144
8.070,-0.141
8.071,-0.137
8.072,-0.141
8.073,-0.141
8.074,-0.137
8.075,-0.134
8.076,-0.134
8.077,-0.131
8.078,-0.131
8.079,-0.131
8.080,-0.133
8.081,-0.131
8.082,-0.129
8.083,-0.134
8.084,-0.134
8.085,-0.137
8.086,-0.136
8.087,-0.137
8.088,-0.141
8.089,-0.144
8.090,-0.148
8.091,-0.147
8.092,-0.146
8.093,-0.147
8.094,-0.146
8.095,-0.141
8.096,-0.139
8.097,-0.134
8.098,-0.137
8.099,-0.134
8.100,-0.133
8.101,-0.131
8.102,-0.130
8.103,-0.131
8.104,-0.128
8.105,-0.128
8.106,-0.128
8.107,-0.128
8.108,-0.127
8.109,-0.125
8.110,-0.126
8.111,-0.128
8.112,-0.129
8.113,-0.128
8.114,-0.128
8.115,-0.125
8.116,-0.122
8.117,-0.119
8.118,-0.117
8.119,-0.116
8.120,-0.114
8.121,-0.119
8.122,-0.120
8.123,-0.122
8.124,-0.119
8.125,-0.119
8.126,-0.117
8.127,-0.116
8.128,-0.117
8.129,-0.116
8.130,-0.117
8.131,-0.116
8.132,-0.114
8.133,-0.116
8.134,-0.116
8.135,-0.116
8.136,-0.114
8.137,-0.112
8.138,-0.108
8.139,-0.109
8.140,-0.112
8.141,-0.112
8.142,-0.108
8.143,-0.109
8.144,-0.109
8.145,-0.109
8.146,-0.111
8.147,-0.106
8.148,-0.105
8.149,-0.106
8.150,-0.107
8.151,-0.109
8.152,-0.109
8.153,-0.106
8.154,-0.107
8.155,-0.109
8.156,-0.109
8.157,-0.109
8.158,-0.112
8.159,-0.119
8.160,-0.120
8.161,-0.125
8.162,-0.128
8.163,-0.134
8.164,-0.144
8.165,-0.150
8.166,-0.161
8.167,-0.175
8.168,-0.184
8.169,-0.194
8.170,-0.204
8.171,-0.216
8.172,-0.228
8.173,-0.231
8.174,-0.233
8.175,-0.228
8.176,-0.214
8.177,-0.203
8.178,-0.189
8.179,-0.169
8.180,-0.146
8.181,-0.125
8.182,-0.099
8.183,-0.069
8.184,-0.039
8.185,-0.009
8.186,0.033
8.187,0.078
8.188,0.131
8.189,0.184
8.190,0.242
8.191,0.300
8.192,0.358
8.193,0.425
8.194,0.497
8.195,0.566
8.196,0.642
8.197,0.706
8.198,0.755
8.199,0.769
8.200,0.786
8.201,0.800
8.202,0.833
8.203,0.872
8.204,0.904
8.205,0.934
8.206,0.956
8.207,0.966
8.208,0.961
8.209,0.938
8.210,0.914
8.211,0.897
8.212,0.873
8.213,0.844
8.214,0.806
8.215,0.766
8.216,0.725
8.217,0.666
8.218,0.606
8.219,0.541
8.220,0.445
8.221,0.319
8.222,0.183
8.223,0.063
8.224,-0.039
8.225,-0.116
8.226,-0.195
8.227,-0.259
8.228,-0.316
8.229,-0.356
8.230,-0.397
8.231,-0.416
8.232,-0.426
8.233,-0.434
8.234,-0.425
8.235,-0.416
8.236,-0.406
8.237,-0.391
8.238,-0.378
8.239,-0.366
8.240,-0.344
8.241,-0.316
8.242,-0.292
8.243,-0.272
8.244,-0.249
8.245,-0.231
8.246,-0.216
8.247,-0.197
8.248,-0.186
8.249,-0.175
8.250,-0.163
8.251,-0.153
8.252,-0.137
8.253,-0.122
8.254,-0.109
8.255,-0.100
8.256,-0.095
8.257,-0.091
8.258,-0.087
8.259,-0.087
8.260,-0.087
8.261,-0.087
8.262,-0.078
8.263,-0.069
8.264,-0.061
8.265,-0.056
8.266,-0.056
8.267,-0.053
8.268,-0.050
8.269,-0.047
8.270,-0.046
8.271,-0.044
8.272,-0.042
8.273,-0.041
8.274,-0.045
8.275,-0.044
8.276,-0.044
8.277,-0.044
8.278,-0.047
8.279,-0.050
8.280,-0.050
8.281,-0.044
8.282,-0.045
8.283,-0.047
8.284,-0.042
8.285,-0.037
8.286,-0.034
8.287,-0.034
8.288,-0.034
8.289,-0.034
8.290,-0.033
8.291,-0.031
8.292,-0.031
8.293,-0.031
8.294,-0.029
8.295,-0.034
8.296,-0.037
8.297,-0.037
8.298,-0.033
8.299,-0.031
8.300,-0.028
8.301,-0.025
8.302,-0.021
8.303,-0.019
8.304,-0.019
8.305,-0.019
8.306,-0.019
8.307,-0.019
8.308,-0.016
8.309,-0.016
8.310,-0.016
8.311,-0.019
8.312,-0.014
8.313,-0.009
8.314,-0.007
8.315,-0.009
8.316,-0.009
8.317,-0.009
8.318,-0.012
8.319,-0.012
8.320,-0.009
8.321,-0.009
8.322,-0.011
8.323,-0.009
8.324,-0.005
8.325,0.000
8.326,0.004
8.327,0.003
8.328,0.006
8.329,0.006
8.330,0.006
8.331,0.009
8.332,0.011
8.333,0.009
8.334,0.008
8.335,0.009
8.336,0.008
8.337,0.009
8.338,0.008
8.339,0.009
8.340,0.011
8.341,0.016
8.342,0.014
8.343,0.016
8.344,0.014
8.345,0.019
8.346,0.020
8.347,0.025
8.348,0.031
8.349,0.031
8.350,0.033
8.351,0.037
8.352,0.041
8.353,0.044
8.354,0.047
8.355,0.047
8.356,0.050
8.357,0.050
8.358,0.056
8.359,0.056
8.360,0.059
8.361,0.059
8.362,0.058
8.363,0.063
8.364,0.066
8.365,0.066
8.366,0.067
8.367,0.069
8.368,0.075
8.369,0.081
8.370,0.084
8.371,0.091
8.372,0.091
8.373,0.091
8.374,0.096
8.375,0.094
8.376,0.098
8.377,0.100
8.378,0.099
8.379,0.097
8.380,0.101
8.381,0.106
8.382,0.111
8.383,0.113
8.384,0.116
8.385,0.119
8.386,0.125
8.387,0.131
8.388,0.133
8.389,0.131
8.390,0.136
8.391,0.137
8.392,0.141
8.393,0.144
8.394,0.147
8.395,0.150
8.396,0.156
8.397,0.163
8.398,0.169
8.399,0.172
8.400,0.175
8.401,0.178
8.402,0.180
8.403,0.181
8.404,0.183
8.405,0.188
8.406,0.193
8.407,0.194
8.408,0.194
8.409,0.197
8.410,0.197
8.411,0.197
8.412,0.200
8.413,0.206
8.414,0.211
8.415,0.213
8.416,0.217
8.417,0.222
8.418,0.223
8.419,0.228
8.420,0.231
8.421,0.234
8.422,0.236
8.423,0.241
8.424,0.242
8.425,0.244
8.426,0.244
8.427,0.247
8.428,0.249
8.429,0.247
8.430,0.250
8.431,0.250
8.432,0.252
8.433,0.250
8.434,0.256
8.435,0.256
8.436,0.256
8.437,0.259
8.438,0.261
8.439,0.259
8.440,0.261
8.441,0.266
8.442,0.264
8.443,0.266
8.444,0.264
8.445,0.263
8.446,0.267
8.447,0.269
8.448,0.271
8.449,0.269
8.450,0.268
8.451,0.269
8.452,0.270
8.453,0.275
8.454,0.279
8.455,0.281
8.456,0.288
8.457,0.291
8.458,0.291
8.459,0.294
8.460,0.296
8.461,0.294
8.462,0.294
8.463,0.291
8.464,0.296
8.465,0.294
8.466,0.295
8.467,0.297
8.468,0.299
8.469,0.300
8.470,0.303
8.471,0.303
8.472,0.303
8.473,0.300
8.474,0.301
8.475,0.303
8.476,0.304
8.477,0.306
8.478,0.301
8.479,0.303
8.480,0.300
8.481,0.297
8.482,0.293
8.483,0.284
8.484,0.283
8.485,0.275
8.486,0.272
8.487,0.272
8.488,0.268
8.489,0.259
8.490,0.256
8.491,0.253
8.492,0.247
8.493,0.241
8.494,0.233
8.495,0.225
8.496,0.222
8.497,0.219
8.498,0.214
8.499,0.209
8.500,0.203
8.501,0.194
8.502,0.189
8.503,0.184
8.504,0.181
8.505,0.172
8.506,0.169
8.507,0.166
8.508,0.155
8.509,0.144
8.510,0.141
8.511,0.134
8.512,0.126
8.513,0.122
8.514,0.119
8.515,0.113
8.516,0.103
8.517,0.097
8.518,0.091
8.519,0.084
8.520,0.083
8.521,0.078
8.522,0.069
8.523,0.063
8.524,0.058
8.525,0.053
8.526,0.050
8.527,0.044
8.528,0.037
8.529,0.028
8.530,0.024
8.531,0.016
8.532,0.014
8.533,0.009
8.534,0.007
8.535,0.006
8.536,0.004
8.537,0.003
8.538,-0.004
8.539,-0.009
8.540,-0.011
8.541,-0.009
8.542,-0.011
8.543,-0.012
8.544,-0.016
8.545,-0.025
8.546,-0.029
8.547,-0.031
8.548,-0.036
8.549,-0.041
8.550,-0.037
8.551,-0.037
8.552,-0.041
8.553,-0.041
8.554,-0.041
8.555,-0.044
8.556,-0.048
8.557,-0.050
8.558,-0.052
8.559,-0.050
8.560,-0.049
8.561,-0.050
8.562,-0.049
8.563,-0.050
8.564,-0.051
8.565,-0.053
8.566,-0.052
8.567,-0.050
8.568,-0.053
8.569,-0.050
8.570,-0.053
8.571,-0.056
8.572,-0.061
8.573,-0.063
8.574,-0.061
8.575,-0.059
8.576,-0.064
8.577,-0.066
8.578,-0.064
8.579,-0.063
8.580,-0.067
8.581,-0.066
8.582,-0.063
8.583,-0.066
8.584,-0.066
8.585,-0.066
8.586,-0.066
8.587,-0.066
8.588,-0.064
8.589,-0.063
8.590,-0.067
8.591,-0.066
8.592,-0.066
8.593,-0.066
8.594,-0.066
8.595,-0.066
8.596,-0.066
8.597,-0.066
8.598,-0.064
8.599,-0.063
8.600,-0.066
8.601,-0.066
8.602,-0.067
8.603,-0.066
8.604,-0.067
8.605,-0.066
8.606,-0.067
8.607,-0.066
8.608,-0.067
8.609,-0.066
8.610,-0.064
8.611,-0.066
8.612,-0.063
8.613,-0.059
8.614,-0.058
8.615,-0.056
8.616,-0.056
8.617,-0.056
8.618,-0.054
8.619,-0.059
8.620,-0.061
8.621,-0.063
8.622,-0.064
8.623,-0.066
8.624,-0.069
8.625,-0.066
8.626,-0.066
8.627,-0.066
8.628,-0.064
8.629,-0.063
8.630,-0.063
8.631,-0.063
8.632,-0.063
8.633,-0.066
8.634,-0.064
8.635,-0.059
8.636,-0.059
8.637,-0.056
8.638,-0.061
8.639,-0.066
8.640,-0.067
8.641,-0.069
8.642,-0.067
8.643,-0.069
8.644,-0.069
8.645,-0.072
8.646,-0.072
8.647,-0.072
8.648,-0.075
8.649,-0.075
8.650,-0.077
8.651,-0.075
8.652,-0.072
8.653,-0.069
8.654,-0.070
8.655,-0.069
8.656,-0.071
8.657,-0.072
8.658,-0.070
8.659,-0.069
8.660,-0.072
8.661,-0.069
8.662,-0.072
8.663,-0.072
8.664,-0.069
8.665,-0.072
8.666,-0.073
8.667,-0.075
8.668,-0.071
8.669,-0.072
8.670,-0.073
8.671,-0.075
8.672,-0.071
8.673,-0.072
8.674,-0.072
8.675,-0.072
8.676,-0.071
8.677,-0.069
8.678,-0.072
8.679,-0.069
8.680,-0.072
8.681,-0.069
8.682,-0.072
8.683,-0.072
8.684,-0.071
8.685,-0.066
8.686,-0.069
8.687,-0.069
8.688,-0.070
8.689,-0.072
8.690,-0.071
8.691,-0.069
8.692,-0.069
8.693,-0.069
8.694,-0.073
8.695,-0.072
8.696,-0.076
8.697,-0.078
8.698,-0.081
8.699,-0.084
8.700,-0.087
8.701,-0.087
8.702,-0.084
8.703,-0.081
8.704,-0.078
8.705,-0.081
8.706,-0.081
8.707,-0.081
8.708,-0.084
8.709,-0.081
8.710,-0.084
8.711,-0.087
8.712,-0.086
8.713,-0.087
8.714,-0.087
8.715,-0.087
8.716,-0.086
8.717,-0.084
8.718,-0.080
8.719,-0.075
8.720,-0.076
8.721,-0.078
8.722,-0.081
8.723,-0.081
8.724,-0.082
8.725,-0.081
8.726,-0.084
8.727,-0.087
8.728,-0.086
8.729,-0.087
8.730,-0.086
8.731,-0.084
8.732,-0.084
8.733,-0.084
8.734,-0.083
8.735,-0.084
8.736,-0.084
8.737,-0.081
8.738,-0.086
8.739,-0.087
8.740,-0.089
8.741,-0.087
8.742,-0.089
8.743,-0.094
8.744,-0.094
8.745,-0.094
8.746,-0.094
8.747,-0.094
8.748,-0.094
8.749,-0.094
8.750,-0.093
8.751,-0.094
8.752,-0.093
8.753,-0.091
8.754,-0.091
8.755,-0.091
8.756,-0.091
8.757,-0.094
8.758,-0.095
8.759,-0.094
8.760,-0.098
8.761,-0.100
8.762,-0.097
8.763,-0.094
8.764,-0.093
8.765,-0.091
8.766,-0.095
8.767,-0.097
8.768,-0.097
8.769,-0.097
8.770,-0.093
8.771,-0.094
8.772,-0.094
8.773,-0.094
8.774,-0.095
8.775,-0.097
8.776,-0.100
8.777,-0.103
8.778,-0.103
8.779,-0.103
8.780,-0.103
8.781,-0.103
8.782,-0.103
8.783,-0.103
8.784,-0.106
8.785,-0.103
8.786,-0.102
8.787,-0.103
8.788,-0.104
8.789,-0.106
8.790,-0.106
8.791,-0.103
8.792,-0.105
8.793,-0.103
8.794,-0.103
8.795,-0.103
8.796,-0.100
8.797,-0.097
8.798,-0.097
8.799,-0.097
8.800,-0.094
8.801,-0.091
8.802,-0.086
8.803,-0.081
8.804,-0.080
8.805,-0.081
8.806,-0.075
8.807,-0.075
8.808,-0.075
8.809,-0.072
8.810,-0.072
8.811,-0.078
8.812,-0.079
8.813,-0.078
8.814,-0.075
8.815,-0.075
8.816,-0.073
8.817,-0.072
8.818,-0.075
8.819,-0.072
8.820,-0.066
8.821,-0.059
8.822,-0.049
8.823,-0.034
8.824,-0.030
8.825,-0.025
8.826,-0.023
8.827,-0.019
8.828,-0.019
8.829,-0.019
8.830,-0.017
8.831,-0.016
8.832,-0.020
8.833,-0.019
8.834,-0.023
8.835,-0.025
8.836,-0.024
8.837,-0.025
8.838,-0.028
8.839,-0.031
8.840,-0.042
8.841,-0.047
8.842,-0.051
8.843,-0.056
8.844,-0.064
8.845,-0.084
8.846,-0.096
8.847,-0.103
8.848,-0.105
8.849,-0.106
8.850,-0.107
8.851,-0.106
8.852,-0.109
8.853,-0.106
8.854,-0.107
8.855,-0.103
8.856,-0.097
8.857,-0.091
8.858,-0.089
8.859,-0.094
8.860,-0.091
8.861,-0.091
8.862,-0.083
8.863,-0.081
8.864,-0.075
8.865,-0.069
8.866,-0.067
8.867,-0.063
8.868,-0.064
8.869,-0.066
8.870,-0.073
8.871,-0.078
8.872,-0.082
8.873,-0.081
8.874,-0.080
8.875,-0.075
8.876,-0.071
8.877,-0.072
8.878,-0.074
8.879,-0.075
8.880,-0.072
8.881,-0.072
8.882,-0.069
8.883,-0.069
8.884,-0.072
8.885,-0.075
8.886,-0.078
8.887,-0.078
8.888,-0.082
8.889,-0.094
8.890,-0.102
8.891,-0.106
8.892,-0.105
8.893,-0.106
8.894,-0.112
8.895,-0.119
8.896,-0.127
8.897,-0.131
8.898,-0.134
8.899,-0.141
8.900,-0.153
8.901,-0.156
8.902,-0.156
8.903,-0.163
8.904,-0.164
8.905,-0.166
8.906,-0.164
8.907,-0.163
8.908,-0.166
8.909,-0.166
8.910,-0.163
8.911,-0.163
8.912,-0.161
8.913,-0.156
8.914,-0.158
8.915,-0.153
8.916,-0.153
8.917,-0.150
8.918,-0.154
8.919,-0.153
8.920,-0.152
8.921,-0.150
8.922,-0.150
8.923,-0.153
8.924,-0.154
8.925,-0.156
8.926,-0.158
8.927,-0.159
8.928,-0.156
8.929,-0.156
8.930,-0.155
8.931,-0.153
8.932,-0.151
8.933,-0.150
8.934,-0.154
8.935,-0.156
8.936,-0.156
8.937,-0.150
8.938,-0.151
8.939,-0.153
8.940,-0.152
8.941,-0.153
8.942,-0.150
8.943,-0.150
8.944,-0.153
8.945,-0.153
8.946,-0.150
8.947,-0.150
8.948,-0.147
8.949,-0.150
8.950,-0.147
8.951,-0.147
8.952,-0.146
8.953,-0.144
8.954,-0.148
8.955,-0.147
8.956,-0.148
8.957,-0.150
8.958,-0.147
8.959,-0.144
8.960,-0.144
8.961,-0.144
8.962,-0.145
8.963,-0.147
8.964,-0.145
8.965,-0.147
8.966,-0.145
8.967,-0.147
8.968,-0.142
8.969,-0.137
8.970,-0.136
8.971,-0.131
8.972,-0.136
8.973,-0.137
8.974,-0.141
8.975,-0.141
8.976,-0.141
8.977,-0.141
8.978,-0.137
8.979,-0.134
8.980,-0.130
8.981,-0.128
8.982,-0.124
8.983,-0.122
8.984,-0.126
8.985,-0.125
8.986,-0.122
8.987,-0.122
8.988,-0.122
8.989,-0.119
8.990,-0.122
8.991,-0.122
8.992,-0.117
8.993,-0.112
8.994,-0.117
8.995,-0.119
8.996,-0.120
8.997,-0.122
8.998,-0.117
8.999,-0.119
9.000,-0.122
9.001,-0.122
9.002,-0.122
9.003,-0.122
9.004,-0.120
9.005,-0.122
9.006,-0.121
9.007,-0.122
9.008,-0.122
9.009,-0.122
9.010,-0.129
9.011,-0.131
9.012,-0.134
9.013,-0.137
9.014,-0.144
9.015,-0.153
9.016,-0.161
9.017,-0.172
9.018,-0.181
9.019,-0.191
9.020,-0.204
9.021,-0.216
9.022,-0.222
9.023,-0.225
9.024,-0.222
9.025,-0.222
9.026,-0.219
9.027,-0.209
9.028,-0.200
9.029,-0.184
9.030,-0.158
9.031,-0.131
9.032,-0.111
9.033,-0.084
9.034,-0.058
9.035,-0.028
9.036,0.004
9.037,0.044
9.038,0.083
9.039,0.137
9.040,0.191
9.041,0.250
9.042,0.311
9.043,0.378
9.044,0.455
9.045,0.537
9.046,0.619
9.047,0.697
9.048,0.755
9.049,0.797
9.050,0.809
9.051,0.822
9.052,0.839
9.053,0.859
9.054,0.888
9.055,0.912
9.056,0.934
9.057,0.947
9.058,0.942
9.059,0.928
9.060,0.903
9.061,0.881
9.062,0.856
9.063,0.828
9.064,0.797
9.065,0.766
9.066,0.725
9.067,0.681
9.068,0.628
9.069,0.566
9.070,0.481
9.071,0.375
9.072,0.239
9.073,0.100
9.074,-0.017
9.075,-0.119
9.076,-0.197
9.077,-0.272
9.078,-0.327
9.079,-0.375
9.080,-0.406
9.081,-0.434
9.082,-0.442
9.083,-0.447
9.084,-0.450
9.085,-0.437
9.086,-0.424
9.087,-0.409
9.088,-0.392
9.089,-0.375
9.090,-0.359
9.091,-0.337
9.092,-0.303
9.093,-0.275
9.094,-0.256
9.095,-0.237
9.096,-0.221
9.097,-0.206
9.098,-0.191
9.099,-0.178
9.100,-0.164
9.101,-0.150
9.102,-0.142
9.103,-0.131
9.104,-0.119
9.105,-0.109
9.106,-0.103
9.107,-0.097
9.108,-0.092
9.109,-0.087
9.110,-0.084
9.111,-0.081
9.112,-0.078
9.113,-0.072
9.114,-0.066
9.115,-0.059
9.116,-0.055
9.117,-0.053
9.118,-0.051
9.119,-0.050
9.120,-0.048
9.121,-0.050
9.122,-0.051
9.123,-0.053
9.124,-0.052
9.125,-0.053
9.126,-0.051
9.127,-0.053
9.128,-0.054
9.129,-0.056
9.130,-0.055
9.131,-0.056
9.132,-0.052
9.133,-0.050
9.134,-0.051
9.135,-0.050
9.136,-0.047
9.137,-0.044
9.138,-0.042
9.139,-0.041
9.140,-0.041
9.141,-0.041
9.142,-0.037
9.143,-0.034
9.144,-0.037
9.145,-0.037
9.146,-0.039
9.147,-0.037
9.148,-0.034
9.149,-0.031
9.150,-0.031
9.151,-0.031
9.152,-0.031
9.153,-0.028
9.154,-0.028
9.155,-0.028
9.156,-0.028
9.157,-0.028
9.158,-0.029
9.159,-0.028
9.160,-0.029
9.161,-0.031
9.162,-0.036
9.163,-0.034
9.164,-0.030
9.165,-0.025
9.166,-0.024
9.167,-0.022
9.168,-0.022
9.169,-0.022
9.170,-0.022
9.171,-0.022
9.172,-0.023
9.173,-0.025
9.174,-0.021
9.175,-0.019
9.176,-0.019
9.177,-0.016
9.178,-0.017
9.179,-0.012
9.180,-0.008
9.181,-0.003
9.182,-0.004
9.183,-0.006
9.184,-0.006
9.185,-0.006
9.186,-0.002
9.187,0.000
9.188,0.003
9.189,0.003
9.190,0.006
9.191,0.006
9.192,0.009
9.193,0.009
9.194,0.013
9.195,0.009
9.196,0.014
9.197,0.016
9.198,0.016
9.199,0.019
9.200,0.020
9.201,0.022
9.202,0.025
9.203,0.028
9.204,0.028
9.205,0.028
9.206,0.031
9.207,0.037
9.208,0.033
9.209,0.034
9.210,0.031
9.211,0.031
9.212,0.036
9.213,0.041
9.214,0.051
9.215,0.059
9.216,0.059
9.217,0.063
9.218,0.064
9.219,0.066
9.220,0.069
9.221,0.069
9.222,0.069
9.223,0.069
9.224,0.073
9.225,0.081
9.226,0.080
9.227,0.081
9.228,0.084
9.229,0.091
9.230,0.094
9.231,0.097
9.232,0.097
9.233,0.100
9.234,0.104
9.235,0.109
9.236,0.114
9.237,0.119
9.238,0.122
9.239,0.125
9.240,0.126
9.241,0.134
9.242,0.134
9.243,0.134
9.244,0.136
9.245,0.137
9.246,0.142
9.247,0.147
9.248,0.149
9.249,0.153
9.250,0.156
9.251,0.159
9.252,0.166
9.253,0.172
9.254,0.175
9.255,0.175
9.256,0.175
9.257,0.178
9.258,0.184
9.259,0.191
9.260,0.196
9.261,0.197
9.262,0.201
9.263,0.203
9.264,0.207
9.265,0.216
9.266,0.218
9.267,0.219
9.268,0.223
9.269,0.225
9.270,0.228
9.271,0.231
9.272,0.236
9.273,0.237
9.274,0.241
9.275,0.244
9.276,0.247
9.277,0.247
9.278,0.247
9.279,0.247
9.280,0.247
9.281,0.250
9.282,0.249
9.283,0.250
9.284,0.250
9.285,0.256
9.286,0.256
9.287,0.256
9.288,0.261
9.289,0.266
9.290,0.264
9.291,0.263
9.292,0.264
9.293,0.263
9.294,0.266
9.295,0.266
9.296,0.269
9.297,0.275
9.298,0.274
9.299,0.275
9.300,0.275
9.301,0.275
9.302,0.279
9.303,0.281
9.304,0.281
9.305,0.281
9.306,0.281
9.307,0.284
9.308,0.284
9.309,0.284
9.310,0.288
9.311,0.291
9.312,0.291
9.313,0.294
9.314,0.291
9.315,0.294
9.316,0.297
9.317,0.300
9.318,0.299
9.319,0.300
9.320,0.304
9.321,0.306
9.322,0.304
9.323,0.306
9.324,0.300
9.325,0.297
9.326,0.293
9.327,0.288
9.328,0.292
9.329,0.291
9.330,0.291
9.331,0.291
9.332,0.292
9.333,0.291
9.334,0.283
9.335,0.281
9.336,0.276
9.337,0.272
9.338,0.264
9.339,0.256
9.340,0.191
9.341,0.125
9.342,0.063
9.343,0.003
9.344,0.004
9.345,0.003
9.346,0.003
9.347,0.003
9.348,0.048
9.349,0.097
9.350,0.147
9.351,0.194
9.352,0.188
9.353,0.184
9.354,0.174
9.355,0.166
9.356,0.161
9.357,0.159
9.358,0.152
9.359,0.141
9.360,0.131
9.361,0.128
9.362,0.126
9.363,0.122
9.364,0.113
9.365,0.106
9.366,0.100
9.367,0.091
9.368,0.088
9.369,0.084
9.370,0.078
9.371,0.072
9.372,0.061
9.373,0.053
9.374,0.049
9.375,0.044
9.376,0.044
9.377,0.041
9.378,0.030
9.379,0.025
9.380,0.020
9.381,0.019
9.382,0.013
9.383,0.009
9.384,0.003
9.385,0.000
9.386,-0.004
9.387,-0.009
9.388,-0.009
9.389,-0.012
9.390,-0.016
9.391,-0.019
9.392,-0.020
9.393,-0.025
9.394,-0.029
9.395,-0.031
9.396,-0.033
9.397,-0.031
9.398,-0.030
9.399,-0.031
9.400,-0.036
9.401,-0.037
9.402,-0.039
9.403,-0.041
9.404,-0.042
9.405,-0.044
9.406,-0.046
9.407,-0.047
9.408,-0.047
9.409,-0.050
9.410,-0.053
9.411,-0.056
9.412,-0.059
9.413,-0.059
9.414,-0.058
9.415,-0.053
9.416,-0.054
9.417,-0.056
9.418,-0.055
9.419,-0.056
9.420,-0.053
9.421,-0.056
9.422,-0.061
9.423,-0.063
9.424,-0.061
9.425,-0.063
9.426,-0.063
9.427,-0.066
9.428,-0.066
9.429,-0.066
9.430,-0.066
9.431,-0.069
9.432,-0.067
9.433,-0.066
9.434,-0.066
