'Elapsed time','II'
'seconds','mV'
0.000,2.053
0.001,2.075
0.002,2.097
0.003,2.119
0.004,2.028
0.005,1.937
0.006,1.771
0.007,1.603
0.008,1.417
0.009,1.231
0.010,1.091
0.011,0.950
0.012,0.796
0.013,0.641
0.014,0.494
0.015,0.347
0.016,0.246
0.017,0.144
0.018,0.112
0.019,0.081
0.020,0.062
0.021,0.044
0.022,0.014
0.023,-0.016
0.024,-0.041
0.025,-0.066
0.026,-0.055
0.027,-0.044
0.028,-0.027
0.029,-0.009
0.030,-0.017
0.031,-0.025
0.032,-0.044
0.033,-0.063
0.034,-0.064
0.035,-0.066
0.036,-0.059
0.037,-0.053
0.038,-0.069
0.039,-0.084
0.040,-0.106
0.041,-0.128
0.042,-0.128
0.043,-0.128
0.044,-0.102
0.045,-0.075
0.046,-0.072
0.047,-0.069
0.048,-0.084
0.049,-0.100
0.050,-0.109
0.051,-0.119
0.052,-0.102
0.053,-0.084
0.054,-0.091
0.055,-0.097
0.056,-0.116
0.057,-0.134
0.058,-0.144
0.059,-0.153
0.060,-0.127
0.061,-0.100
0.062,-0.086
0.063,-0.072
0.064,-0.079
0.065,-0.088
0.066,-0.104
0.067,-0.122
0.068,-0.109
0.069,-0.097
0.070,-0.093
0.071,-0.088
0.072,-0.101
0.073,-0.116
0.074,-0.136
0.075,-0.156
0.076,-0.134
0.077,-0.113
0.078,-0.093
0.079,-0.072
0.080,-0.073
0.081,-0.075
0.082,-0.092
0.083,-0.109
0.084,-0.103
0.085,-0.097
0.086,-0.086
0.087,-0.075
0.088,-0.086
0.089,-0.097
0.090,-0.116
0.091,-0.134
0.092,-0.131
0.093,-0.128
0.094,-0.102
0.095,-0.075
0.096,-0.072
0.097,-0.069
0.098,-0.079
0.099,-0.091
0.100,-0.097
0.101,-0.103
0.102,-0.083
0.103,-0.063
0.104,-0.069
0.105,-0.075
0.106,-0.095
0.107,-0.116
0.108,-0.123
0.109,-0.131
0.110,-0.102
0.111,-0.072
0.112,-0.061
0.113,-0.050
0.114,-0.061
0.115,-0.072
0.116,-0.084
0.117,-0.097
0.118,-0.080
0.119,-0.063
0.120,-0.061
0.121,-0.059
0.122,-0.070
0.123,-0.081
0.124,-0.103
0.125,-0.125
0.126,-0.106
0.127,-0.088
0.128,-0.068
0.129,-0.047
0.130,-0.051
0.131,-0.056
0.132,-0.073
0.133,-0.091
0.134,-0.084
0.135,-0.078
0.136,-0.063
0.137,-0.047
0.138,-0.054
0.139,-0.063
0.140,-0.081
0.141,-0.100
0.142,-0.100
0.143,-0.100
0.144,-0.072
0.145,-0.044
0.146,-0.039
0.147,-0.034
0.148,-0.044
0.149,-0.053
0.150,-0.066
0.151,-0.078
0.152,-0.055
0.153,-0.031
0.154,-0.036
0.155,-0.041
0.156,-0.063
0.157,-0.084
0.158,-0.091
0.159,-0.097
0.160,-0.069
0.161,-0.041
0.162,-0.027
0.163,-0.013
0.164,-0.019
0.165,-0.025
0.166,-0.041
0.167,-0.056
0.168,-0.041
0.169,-0.025
0.170,-0.021
0.171,-0.016
0.172,-0.029
0.173,-0.044
0.174,-0.059
0.175,-0.075
0.176,-0.055
0.177,-0.034
0.178,-0.014
0.179,0.006
0.180,0.006
0.181,0.006
0.182,-0.008
0.183,-0.022
0.184,-0.014
0.185,-0.006
0.186,0.004
0.187,0.016
0.188,0.011
0.189,0.006
0.190,-0.011
0.191,-0.028
0.192,-0.024
0.193,-0.019
0.194,0.011
0.195,0.041
0.196,0.045
0.197,0.050
0.198,0.039
0.199,0.028
0.200,0.022
0.201,0.016
0.202,0.041
0.203,0.066
0.204,0.062
0.205,0.059
0.206,0.044
0.207,0.028
0.208,0.025
0.209,0.022
0.210,0.051
0.211,0.081
0.212,0.095
0.213,0.109
0.214,0.105
0.215,0.100
0.216,0.086
0.217,0.072
0.218,0.092
0.219,0.112
0.220,0.122
0.221,0.131
0.222,0.119
0.223,0.106
0.224,0.091
0.225,0.075
0.226,0.098
0.227,0.122
0.228,0.144
0.229,0.166
0.230,0.166
0.231,0.166
0.232,0.155
0.233,0.144
0.234,0.148
0.235,0.153
0.236,0.158
0.237,0.184
0.238,0.178
0.239,0.175
0.240,0.158
0.241,0.134
0.242,0.159
0.243,0.169
0.244,0.178
0.245,0.209
0.246,0.222
0.247,0.225
0.248,0.225
0.249,0.209
0.250,0.212
0.251,0.206
0.252,0.220
0.253,0.241
0.254,0.255
0.255,0.250
0.256,0.234
0.257,0.212
0.258,0.205
0.259,0.200
0.260,0.219
0.261,0.231
0.262,0.262
0.263,0.275
0.264,0.256
0.265,0.253
0.266,0.224
0.267,0.200
0.268,0.217
0.269,0.222
0.270,0.232
0.271,0.228
0.272,0.203
0.273,0.194
0.274,0.162
0.275,0.134
0.276,0.142
0.277,0.159
0.278,0.178
0.279,0.184
0.280,0.158
0.281,0.153
0.282,0.134
0.283,0.109
0.284,0.104
0.285,0.103
0.286,0.109
0.287,0.106
0.288,0.083
0.289,0.075
0.290,0.059
0.291,0.028
0.292,0.014
0.293,0.016
0.294,0.039
0.295,0.053
0.296,0.053
0.297,0.047
0.298,0.031
0.299,0.009
0.300,-0.013
0.301,-0.028
0.302,-0.013
0.303,0.000
0.304,-0.003
0.305,-0.016
0.306,-0.025
0.307,-0.050
0.308,-0.073
0.309,-0.081
0.310,-0.066
0.311,-0.044
0.312,-0.018
0.313,-0.016
0.314,-0.038
0.315,-0.047
0.316,-0.072
0.317,-0.084
0.318,-0.066
0.319,-0.066
0.320,-0.044
0.321,-0.044
0.322,-0.058
0.323,-0.069
0.324,-0.101
0.325,-0.125
0.326,-0.102
0.327,-0.091
0.328,-0.068
0.329,-0.041
0.330,-0.046
0.331,-0.047
0.332,-0.076
0.333,-0.094
0.334,-0.089
0.335,-0.094
0.336,-0.077
0.337,-0.059
0.338,-0.064
0.339,-0.066
0.340,-0.100
0.341,-0.122
0.342,-0.114
0.343,-0.106
0.344,-0.109
0.345,-0.072
0.346,-0.059
0.347,-0.056
0.348,-0.070
0.349,-0.081
0.350,-0.088
0.351,-0.088
0.352,-0.088
0.353,-0.056
0.354,-0.054
0.355,-0.059
0.356,-0.073
0.357,-0.094
0.358,-0.108
0.359,-0.109
0.360,-0.096
0.361,-0.078
0.362,-0.049
0.363,-0.041
0.364,-0.058
0.365,-0.056
0.366,-0.079
0.367,-0.094
0.368,-0.075
0.369,-0.066
0.370,-0.052
0.371,-0.056
0.372,-0.075
0.373,-0.084
0.374,-0.116
0.375,-0.131
0.376,-0.109
0.377,-0.097
0.378,-0.069
0.379,-0.044
0.380,-0.049
0.381,-0.044
0.382,-0.066
0.383,-0.081
0.384,-0.081
0.385,-0.084
0.386,-0.066
0.387,-0.050
0.388,-0.061
0.389,-0.069
0.390,-0.095
0.391,-0.119
0.392,-0.111
0.393,-0.094
0.394,-0.093
0.395,-0.053
0.396,-0.046
0.397,-0.044
0.398,-0.056
0.399,-0.072
0.400,-0.084
0.401,-0.088
0.402,-0.081
0.403,-0.053
0.404,-0.050
0.405,-0.053
0.406,-0.072
0.407,-0.094
0.408,-0.108
0.409,-0.109
0.410,-0.094
0.411,-0.075
0.412,-0.050
0.413,-0.041
0.414,-0.054
0.415,-0.056
0.416,-0.079
0.417,-0.097
0.418,-0.075
0.419,-0.069
0.420,-0.047
0.421,-0.047
0.422,-0.070
0.423,-0.078
0.424,-0.113
0.425,-0.128
0.426,-0.105
0.427,-0.094
0.428,-0.068
0.429,-0.047
0.430,-0.056
0.431,-0.050
0.432,-0.066
0.433,-0.078
0.434,-0.077
0.435,-0.075
0.436,-0.058
0.437,-0.044
0.438,-0.059
0.439,-0.069
0.440,-0.094
0.441,-0.119
0.442,-0.108
0.443,-0.100
0.444,-0.093
0.445,-0.059
0.446,-0.056
0.447,-0.056
0.448,-0.066
0.449,-0.078
0.450,-0.097
0.451,-0.106
0.452,-0.094
0.453,-0.072
0.454,-0.070
0.455,-0.075
0.456,-0.084
0.457,-0.106
0.458,-0.123
0.459,-0.125
0.460,-0.113
0.461,-0.094
0.462,-0.066
0.463,-0.063
0.464,-0.076
0.465,-0.081
0.466,-0.101
0.467,-0.119
0.468,-0.099
0.469,-0.091
0.470,-0.069
0.471,-0.069
0.472,-0.088
0.473,-0.097
0.474,-0.129
0.475,-0.147
0.476,-0.121
0.477,-0.113
0.478,-0.078
0.479,-0.059
0.480,-0.070
0.481,-0.069
0.482,-0.094
0.483,-0.116
0.484,-0.105
0.485,-0.103
0.486,-0.086
0.487,-0.075
0.488,-0.083
0.489,-0.088
0.490,-0.120
0.491,-0.147
0.492,-0.139
0.493,-0.131
0.494,-0.118
0.495,-0.081
0.496,-0.074
0.497,-0.072
0.498,-0.086
0.499,-0.103
0.500,-0.117
0.501,-0.116
0.502,-0.109
0.503,-0.084
0.504,-0.083
0.505,-0.091
0.506,-0.109
0.507,-0.134
0.508,-0.145
0.509,-0.147
0.510,-0.127
0.511,-0.097
0.512,-0.071
0.513,-0.059
0.514,-0.081
0.515,-0.088
0.516,-0.119
0.517,-0.134
0.518,-0.114
0.519,-0.106
0.520,-0.089
0.521,-0.094
0.522,-0.111
0.523,-0.116
0.524,-0.144
0.525,-0.159
0.526,-0.139
0.527,-0.131
0.528,-0.096
0.529,-0.075
0.530,-0.088
0.531,-0.084
0.532,-0.108
0.533,-0.125
0.534,-0.121
0.535,-0.119
0.536,-0.105
0.537,-0.088
0.538,-0.101
0.539,-0.109
0.540,-0.136
0.541,-0.156
0.542,-0.143
0.543,-0.131
0.544,-0.118
0.545,-0.078
0.546,-0.077
0.547,-0.078
0.548,-0.092
0.549,-0.109
0.550,-0.122
0.551,-0.122
0.552,-0.114
0.553,-0.081
0.554,-0.076
0.555,-0.081
0.556,-0.091
0.557,-0.109
0.558,-0.123
0.559,-0.131
0.560,-0.121
0.561,-0.094
0.562,-0.081
0.563,-0.072
0.564,-0.075
0.565,-0.075
0.566,-0.095
0.567,-0.106
0.568,-0.081
0.569,-0.063
0.570,-0.043
0.571,-0.034
0.572,-0.048
0.573,-0.053
0.574,-0.084
0.575,-0.106
0.576,-0.080
0.577,-0.081
0.578,-0.052
0.579,-0.034
0.580,-0.048
0.581,-0.050
0.582,-0.076
0.583,-0.100
0.584,-0.096
0.585,-0.084
0.586,-0.059
0.587,-0.044
0.588,-0.038
0.589,-0.025
0.590,-0.045
0.591,-0.066
0.592,-0.059
0.593,-0.047
0.594,-0.021
0.595,0.003
0.596,0.001
0.597,0.000
0.598,-0.016
0.599,-0.044
0.600,-0.067
0.601,-0.069
0.602,-0.072
0.603,-0.056
0.604,-0.063
0.605,-0.075
0.606,-0.086
0.607,-0.100
0.608,-0.109
0.609,-0.113
0.610,-0.111
0.611,-0.091
0.612,-0.074
0.613,-0.072
0.614,-0.091
0.615,-0.091
0.616,-0.117
0.617,-0.131
0.618,-0.116
0.619,-0.097
0.620,-0.086
0.621,-0.084
0.622,-0.098
0.623,-0.109
0.624,-0.147
0.625,-0.169
0.626,-0.156
0.627,-0.153
0.628,-0.124
0.629,-0.109
0.630,-0.114
0.631,-0.106
0.632,-0.131
0.633,-0.153
0.634,-0.150
0.635,-0.150
0.636,-0.127
0.637,-0.113
0.638,-0.123
0.639,-0.128
0.640,-0.147
0.641,-0.169
0.642,-0.170
0.643,-0.163
0.644,-0.152
0.645,-0.119
0.646,-0.116
0.647,-0.109
0.648,-0.128
0.649,-0.147
0.650,-0.151
0.651,-0.153
0.652,-0.152
0.653,-0.122
0.654,-0.122
0.655,-0.128
0.656,-0.147
0.657,-0.169
0.658,-0.178
0.659,-0.178
0.660,-0.164
0.661,-0.147
0.662,-0.122
0.663,-0.122
0.664,-0.134
0.665,-0.141
0.666,-0.166
0.667,-0.181
0.668,-0.153
0.669,-0.147
0.670,-0.125
0.671,-0.125
0.672,-0.133
0.673,-0.144
0.674,-0.169
0.675,-0.191
0.676,-0.164
0.677,-0.153
0.678,-0.127
0.679,-0.113
0.680,-0.123
0.681,-0.122
0.682,-0.144
0.683,-0.153
0.684,-0.153
0.685,-0.147
0.686,-0.122
0.687,-0.109
0.688,-0.119
0.689,-0.125
0.690,-0.158
0.691,-0.184
0.692,-0.178
0.693,-0.166
0.694,-0.164
0.695,-0.138
0.696,-0.134
0.697,-0.138
0.698,-0.164
0.699,-0.191
0.700,-0.204
0.701,-0.216
0.702,-0.224
0.703,-0.206
0.704,-0.197
0.705,-0.197
0.706,-0.211
0.707,-0.213
0.708,-0.201
0.709,-0.184
0.710,-0.138
0.711,-0.088
0.712,-0.030
0.713,0.022
0.714,0.059
0.715,0.131
0.716,0.199
0.717,0.275
0.718,0.392
0.719,0.509
0.720,0.642
0.721,0.781
0.722,0.881
0.723,1.022
0.724,1.147
0.725,1.241
0.726,1.370
0.727,1.487
0.728,1.611
0.729,1.722
0.730,1.794
0.731,1.872
0.732,1.930
0.733,1.975
0.734,2.012
0.735,2.016
0.736,2.006
0.737,1.941
0.738,1.816
0.739,1.672
0.740,1.492
0.741,1.303
0.742,1.159
0.743,1.006
0.744,0.854
0.745,0.706
0.746,0.559
0.747,0.416
0.748,0.286
0.749,0.187
0.750,0.123
0.751,0.081
0.752,0.053
0.753,0.062
0.754,0.046
0.755,0.025
0.756,0.008
0.757,-0.019
0.758,-0.045
0.759,-0.050
0.760,-0.046
0.761,-0.016
0.762,-0.009
0.763,-0.009
0.764,-0.033
0.765,-0.044
0.766,-0.070
0.767,-0.097
0.768,-0.088
0.769,-0.075
0.770,-0.059
0.771,-0.059
0.772,-0.081
0.773,-0.081
0.774,-0.113
0.775,-0.134
0.776,-0.113
0.777,-0.109
0.778,-0.074
0.779,-0.063
0.780,-0.081
0.781,-0.081
0.782,-0.111
0.783,-0.131
0.784,-0.119
0.785,-0.119
0.786,-0.105
0.787,-0.088
0.788,-0.097
0.789,-0.103
0.790,-0.122
0.791,-0.144
0.792,-0.139
0.793,-0.128
0.794,-0.121
0.795,-0.084
0.796,-0.083
0.797,-0.084
0.798,-0.095
0.799,-0.113
0.800,-0.125
0.801,-0.125
0.802,-0.127
0.803,-0.097
0.804,-0.089
0.805,-0.091
0.806,-0.106
0.807,-0.128
0.808,-0.141
0.809,-0.144
0.810,-0.124
0.811,-0.094
0.812,-0.074
0.813,-0.072
0.814,-0.086
0.815,-0.094
0.816,-0.122
0.817,-0.134
0.818,-0.118
0.819,-0.109
0.820,-0.086
0.821,-0.084
0.822,-0.106
0.823,-0.106
0.824,-0.129
0.825,-0.141
0.826,-0.116
0.827,-0.106
0.828,-0.074
0.829,-0.063
0.830,-0.073
0.831,-0.072
0.832,-0.101
0.833,-0.125
0.834,-0.121
0.835,-0.122
0.836,-0.097
0.837,-0.081
0.838,-0.091
0.839,-0.091
0.840,-0.113
0.841,-0.134
0.842,-0.127
0.843,-0.113
0.844,-0.105
0.845,-0.069
0.846,-0.066
0.847,-0.069
0.848,-0.083
0.849,-0.103
0.850,-0.106
0.851,-0.106
0.852,-0.100
0.853,-0.072
0.854,-0.071
0.855,-0.075
0.856,-0.081
0.857,-0.097
0.858,-0.109
0.859,-0.116
0.860,-0.100
0.861,-0.078
0.862,-0.056
0.863,-0.056
0.864,-0.069
0.865,-0.072
0.866,-0.095
0.867,-0.109
0.868,-0.089
0.869,-0.075
0.870,-0.061
0.871,-0.059
0.872,-0.069
0.873,-0.075
0.874,-0.109
0.875,-0.125
0.876,-0.097
0.877,-0.091
0.878,-0.072
0.879,-0.050
0.880,-0.053
0.881,-0.053
0.882,-0.075
0.883,-0.094
0.884,-0.078
0.885,-0.072
0.886,-0.046
0.887,-0.025
0.888,-0.038
0.889,-0.044
0.890,-0.064
0.891,-0.097
0.892,-0.088
0.893,-0.078
0.894,-0.066
0.895,-0.034
0.896,-0.027
0.897,-0.025
0.898,-0.034
0.899,-0.050
0.900,-0.063
0.901,-0.063
0.902,-0.044
0.903,-0.016
0.904,-0.016
0.905,-0.022
0.906,-0.033
0.907,-0.050
0.908,-0.067
0.909,-0.069
0.910,-0.049
0.911,-0.022
0.912,0.004
0.913,0.012
0.914,-0.013
0.915,-0.013
0.916,-0.031
0.917,-0.044
0.918,-0.021
0.919,0.000
0.920,0.019
0.921,0.019
0.922,0.000
0.923,-0.003
0.924,-0.029
0.925,-0.047
0.926,-0.014
0.927,0.000
0.928,0.025
0.929,0.044
0.930,0.037
0.931,0.041
0.932,0.019
0.933,0.003
0.934,0.011
0.935,0.019
0.936,0.044
0.937,0.062
0.938,0.056
0.939,0.056
0.940,0.037
0.941,0.019
0.942,0.029
0.943,0.044
0.944,0.051
0.945,0.084
0.946,0.094
0.947,0.094
0.948,0.086
0.949,0.075
0.950,0.067
0.951,0.072
0.952,0.086
0.953,0.116
0.954,0.122
0.955,0.122
0.956,0.116
0.957,0.097
0.958,0.092
0.959,0.094
0.960,0.114
0.961,0.144
0.962,0.164
0.963,0.172
0.964,0.161
0.965,0.156
0.966,0.136
0.967,0.122
0.968,0.150
0.969,0.162
0.970,0.184
0.971,0.187
0.972,0.181
0.973,0.175
0.974,0.147
0.975,0.134
0.976,0.162
0.977,0.178
0.978,0.207
0.979,0.225
0.980,0.214
0.981,0.225
0.982,0.206
0.983,0.194
0.984,0.195
0.985,0.203
0.986,0.231
0.987,0.247
0.988,0.236
0.989,0.231
0.990,0.212
0.991,0.187
0.992,0.195
0.993,0.206
0.994,0.207
0.995,0.241
0.996,0.241
0.997,0.237
0.998,0.219
0.999,0.194
1.000,0.184
1.001,0.181
1.002,0.182
1.003,0.206
1.004,0.206
1.005,0.197
1.006,0.174
1.007,0.150
1.008,0.137
1.009,0.125
1.010,0.129
1.011,0.147
1.012,0.164
1.013,0.159
1.014,0.131
1.015,0.119
1.016,0.084
1.017,0.062
1.018,0.073
1.019,0.078
1.020,0.091
1.021,0.087
1.022,0.066
1.023,0.050
1.024,0.011
1.025,-0.019
1.026,0.004
1.027,0.012
1.028,0.032
1.029,0.041
1.030,0.019
1.031,0.012
1.032,-0.016
1.033,-0.038
1.034,-0.030
1.035,-0.031
1.036,-0.018
1.037,-0.009
1.038,-0.022
1.039,-0.031
1.040,-0.063
1.041,-0.091
1.042,-0.086
1.043,-0.081
1.044,-0.074
1.045,-0.038
1.046,-0.044
1.047,-0.050
1.048,-0.061
1.049,-0.081
1.050,-0.095
1.051,-0.097
1.052,-0.093
1.053,-0.072
1.054,-0.069
1.055,-0.075
1.056,-0.089
1.057,-0.109
1.058,-0.120
1.059,-0.125
1.060,-0.105
1.061,-0.081
1.062,-0.071
1.063,-0.072
1.064,-0.073
1.065,-0.084
1.066,-0.111
1.067,-0.131
1.068,-0.109
1.069,-0.100
1.070,-0.080
1.071,-0.078
1.072,-0.095
1.073,-0.100
1.074,-0.128
1.075,-0.141
1.076,-0.119
1.077,-0.116
1.078,-0.084
1.079,-0.066
1.080,-0.078
1.081,-0.069
1.082,-0.094
1.083,-0.113
1.084,-0.108
1.085,-0.106
1.086,-0.089
1.087,-0.078
1.088,-0.083
1.089,-0.084
1.090,-0.114
1.091,-0.134
1.092,-0.121
1.093,-0.116
1.094,-0.106
1.095,-0.075
1.096,-0.077
1.097,-0.075
1.098,-0.079
1.099,-0.097
1.100,-0.109
1.101,-0.106
1.102,-0.097
1.103,-0.072
1.104,-0.072
1.105,-0.078
1.106,-0.094
1.107,-0.113
1.108,-0.120
1.109,-0.122
1.110,-0.105
1.111,-0.088
1.112,-0.066
1.113,-0.063
1.114,-0.072
1.115,-0.072
1.116,-0.095
1.117,-0.116
1.118,-0.100
1.119,-0.088
1.120,-0.064
1.121,-0.059
1.122,-0.078
1.123,-0.091
1.124,-0.116
1.125,-0.134
1.126,-0.109
1.127,-0.097
1.128,-0.072
1.129,-0.053
1.130,-0.067
1.131,-0.063
1.132,-0.084
1.133,-0.100
1.134,-0.096
1.135,-0.097
1.136,-0.069
1.137,-0.056
1.138,-0.064
1.139,-0.069
1.140,-0.097
1.141,-0.122
1.142,-0.109
1.143,-0.100
1.144,-0.089
1.145,-0.053
1.146,-0.050
1.147,-0.053
1.148,-0.061
1.149,-0.081
1.150,-0.091
1.151,-0.091
1.152,-0.078
1.153,-0.053
1.154,-0.054
1.155,-0.059
1.156,-0.073
1.157,-0.097
1.158,-0.106
1.159,-0.116
1.160,-0.097
1.161,-0.078
1.162,-0.059
1.163,-0.056
1.164,-0.069
1.165,-0.072
1.166,-0.092
1.167,-0.100
1.168,-0.089
1.169,-0.081
1.170,-0.064
1.171,-0.066
1.172,-0.083
1.173,-0.091
1.174,-0.119
1.175,-0.138
1.176,-0.111
1.177,-0.103
1.178,-0.075
1.179,-0.059
1.180,-0.073
1.181,-0.072
1.182,-0.094
1.183,-0.109
1.184,-0.103
1.185,-0.100
1.186,-0.078
1.187,-0.069
1.188,-0.081
1.189,-0.088
1.190,-0.122
1.191,-0.141
1.192,-0.134
1.193,-0.128
1.194,-0.121
1.195,-0.088
1.196,-0.080
1.197,-0.075
1.198,-0.086
1.199,-0.106
1.200,-0.117
1.201,-0.116
1.202,-0.111
1.203,-0.081
1.204,-0.084
1.205,-0.091
1.206,-0.113
1.207,-0.131
1.208,-0.144
1.209,-0.150
1.210,-0.134
1.211,-0.103
1.212,-0.081
1.213,-0.081
1.214,-0.094
1.215,-0.100
1.216,-0.119
1.217,-0.134
1.218,-0.119
1.219,-0.103
1.220,-0.094
1.221,-0.094
1.222,-0.113
1.223,-0.128
1.224,-0.150
1.225,-0.175
1.226,-0.153
1.227,-0.141
1.228,-0.113
1.229,-0.097
1.230,-0.102
1.231,-0.103
1.232,-0.123
1.233,-0.138
1.234,-0.125
1.235,-0.122
1.236,-0.114
1.237,-0.097
1.238,-0.100
1.239,-0.116
1.240,-0.129
1.241,-0.163
1.242,-0.159
1.243,-0.147
1.244,-0.131
1.245,-0.097
1.246,-0.099
1.247,-0.103
1.248,-0.111
1.249,-0.134
1.250,-0.139
1.251,-0.138
1.252,-0.130
1.253,-0.097
1.254,-0.098
1.255,-0.113
1.256,-0.119
1.257,-0.144
1.258,-0.159
1.259,-0.166
1.260,-0.150
1.261,-0.128
1.262,-0.108
1.263,-0.103
1.264,-0.108
1.265,-0.125
1.266,-0.148
1.267,-0.156
1.268,-0.131
1.269,-0.119
1.270,-0.101
1.271,-0.103
1.272,-0.117
1.273,-0.131
1.274,-0.156
1.275,-0.178
1.276,-0.150
1.277,-0.138
1.278,-0.108
1.279,-0.091
1.280,-0.093
1.281,-0.088
1.282,-0.104
1.283,-0.119
1.284,-0.106
1.285,-0.106
1.286,-0.099
1.287,-0.091
1.288,-0.095
1.289,-0.103
1.290,-0.117
1.291,-0.141
1.292,-0.134
1.293,-0.116
1.294,-0.089
1.295,-0.059
1.296,-0.056
1.297,-0.056
1.298,-0.050
1.299,-0.069
1.300,-0.086
1.301,-0.084
1.302,-0.099
1.303,-0.075
1.304,-0.069
1.305,-0.081
1.306,-0.091
1.307,-0.109
1.308,-0.125
1.309,-0.131
1.310,-0.103
1.311,-0.072
1.312,-0.069
1.313,-0.056
1.314,-0.038
1.315,-0.044
1.316,-0.056
1.317,-0.056
1.318,-0.027
1.319,-0.006
1.320,-0.002
1.321,-0.003
1.322,-0.025
1.323,-0.044
1.324,-0.070
1.325,-0.100
1.326,-0.088
1.327,-0.088
1.328,-0.069
1.329,-0.063
1.330,-0.073
1.331,-0.072
1.332,-0.091
1.333,-0.113
1.334,-0.094
1.335,-0.097
1.336,-0.094
1.337,-0.075
1.338,-0.076
1.339,-0.097
1.340,-0.113
1.341,-0.144
1.342,-0.144
1.343,-0.138
1.344,-0.119
1.345,-0.100
1.346,-0.103
1.347,-0.113
1.348,-0.129
1.349,-0.156
1.350,-0.159
1.351,-0.163
1.352,-0.155
1.353,-0.122
1.354,-0.125
1.355,-0.128
1.356,-0.128
1.357,-0.156
1.358,-0.175
1.359,-0.178
1.360,-0.163
1.361,-0.138
1.362,-0.133
1.363,-0.134
1.364,-0.138
1.365,-0.150
1.366,-0.181
1.367,-0.197
1.368,-0.168
1.369,-0.156
1.370,-0.141
1.371,-0.144
1.372,-0.150
1.373,-0.163
1.374,-0.184
1.375,-0.200
1.376,-0.183
1.377,-0.178
1.378,-0.147
1.379,-0.134
1.380,-0.144
1.381,-0.150
1.382,-0.172
1.383,-0.191
1.384,-0.177
1.385,-0.172
1.386,-0.166
1.387,-0.138
1.388,-0.142
1.389,-0.153
1.390,-0.170
1.391,-0.194
1.392,-0.193
1.393,-0.175
1.394,-0.168
1.395,-0.138
1.396,-0.144
1.397,-0.144
1.398,-0.153
1.399,-0.169
1.400,-0.181
1.401,-0.175
1.402,-0.166
1.403,-0.138
1.404,-0.138
1.405,-0.147
1.406,-0.148
1.407,-0.172
1.408,-0.179
1.409,-0.184
1.410,-0.161
1.411,-0.131
1.412,-0.128
1.413,-0.131
1.414,-0.141
1.415,-0.159
1.416,-0.181
1.417,-0.194
1.418,-0.166
1.419,-0.159
1.420,-0.148
1.421,-0.153
1.422,-0.172
1.423,-0.197
1.424,-0.231
1.425,-0.256
1.426,-0.246
1.427,-0.253
1.428,-0.251
1.429,-0.244
1.430,-0.247
1.431,-0.259
1.432,-0.273
1.433,-0.269
1.434,-0.228
1.435,-0.191
1.436,-0.167
1.437,-0.125
1.438,-0.097
1.439,-0.066
1.440,-0.016
1.441,0.025
1.442,0.114
1.443,0.222
1.444,0.329
1.445,0.459
1.446,0.577
1.447,0.691
1.448,0.833
1.449,0.959
1.450,1.075
1.451,1.181
1.452,1.295
1.453,1.422
1.454,1.519
1.455,1.619
1.456,1.717
1.457,1.794
1.458,1.872
1.459,1.947
1.460,1.998
1.461,2.034
1.462,1.989
1.463,1.891
1.464,1.772
1.465,1.616
1.466,1.452
1.467,1.278
1.468,1.141
1.469,1.006
1.470,0.830
1.471,0.666
1.472,0.477
1.473,0.303
1.474,0.181
1.475,0.078
1.476,0.047
1.477,0.037
1.478,0.044
1.479,0.044
1.480,0.021
1.481,0.006
1.482,-0.023
1.483,-0.056
1.484,-0.049
1.485,-0.053
1.486,-0.036
1.487,-0.031
1.488,-0.044
1.489,-0.059
1.490,-0.070
1.491,-0.100
1.492,-0.113
1.493,-0.109
1.494,-0.089
1.495,-0.069
1.496,-0.078
1.497,-0.088
1.498,-0.092
1.499,-0.125
1.500,-0.144
1.501,-0.144
1.502,-0.141
1.503,-0.106
1.504,-0.106
1.505,-0.113
1.506,-0.111
1.507,-0.134
1.508,-0.151
1.509,-0.156
1.510,-0.144
1.511,-0.122
1.512,-0.113
1.513,-0.116
1.514,-0.125
1.515,-0.138
1.516,-0.164
1.517,-0.175
1.518,-0.143
1.519,-0.131
1.520,-0.109
1.521,-0.106
1.522,-0.117
1.523,-0.125
1.524,-0.148
1.525,-0.172
1.526,-0.150
1.527,-0.147
1.528,-0.118
1.529,-0.103
1.530,-0.111
1.531,-0.116
1.532,-0.141
1.533,-0.159
1.534,-0.144
1.535,-0.134
1.536,-0.119
1.537,-0.097
1.538,-0.103
1.539,-0.113
1.540,-0.125
1.541,-0.150
1.542,-0.146
1.543,-0.141
1.544,-0.134
1.545,-0.103
1.546,-0.102
1.547,-0.109
1.548,-0.109
1.549,-0.134
1.550,-0.142
1.551,-0.138
1.552,-0.131
1.553,-0.094
1.554,-0.091
1.555,-0.097
1.556,-0.101
1.557,-0.125
1.558,-0.139
1.559,-0.144
1.560,-0.131
1.561,-0.103
1.562,-0.094
1.563,-0.094
1.564,-0.097
1.565,-0.113
1.566,-0.139
1.567,-0.150
1.568,-0.122
1.569,-0.116
1.570,-0.094
1.571,-0.088
1.572,-0.098
1.573,-0.109
1.574,-0.131
1.575,-0.144
1.576,-0.124
1.577,-0.113
1.578,-0.084
1.579,-0.072
1.580,-0.089
1.581,-0.097
1.582,-0.119
1.583,-0.138
1.584,-0.124
1.585,-0.113
1.586,-0.100
1.587,-0.075
1.588,-0.079
1.589,-0.091
1.590,-0.104
1.591,-0.128
1.592,-0.125
1.593,-0.116
1.594,-0.097
1.595,-0.069
1.596,-0.075
1.597,-0.081
1.598,-0.095
1.599,-0.122
1.600,-0.122
1.601,-0.116
1.602,-0.108
1.603,-0.078
1.604,-0.066
1.605,-0.075
1.606,-0.083
1.607,-0.097
1.608,-0.113
1.609,-0.113
1.610,-0.097
1.611,-0.072
1.612,-0.059
1.613,-0.056
1.614,-0.069
1.615,-0.081
1.616,-0.109
1.617,-0.116
1.618,-0.088
1.619,-0.072
1.620,-0.055
1.621,-0.050
1.622,-0.054
1.623,-0.056
1.624,-0.075
1.625,-0.094
1.626,-0.077
1.627,-0.066
1.628,-0.049
1.629,-0.038
1.630,-0.045
1.631,-0.047
1.632,-0.063
1.633,-0.081
1.634,-0.063
1.635,-0.053
1.636,-0.044
1.637,-0.019
1.638,-0.013
1.639,-0.025
1.640,-0.031
1.641,-0.056
1.642,-0.050
1.643,-0.034
1.644,-0.021
1.645,0.006
1.646,0.004
1.647,0.000
1.648,-0.004
1.649,-0.028
1.650,-0.036
1.651,-0.028
1.652,-0.021
1.653,0.006
1.654,0.016
1.655,0.012
1.656,0.012
1.657,-0.003
1.658,-0.011
1.659,-0.009
1.660,0.012
1.661,0.041
1.662,0.050
1.663,0.053
1.664,0.053
1.665,0.041
1.666,0.017
1.667,0.009
1.668,0.037
1.669,0.050
1.670,0.075
1.671,0.084
1.672,0.078
1.673,0.075
1.674,0.055
1.675,0.037
1.676,0.067
1.677,0.081
1.678,0.106
1.679,0.125
1.680,0.119
1.681,0.119
1.682,0.094
1.683,0.078
1.684,0.095
1.685,0.103
1.686,0.120
1.687,0.144
1.688,0.144
1.689,0.137
1.690,0.131
1.691,0.112
1.692,0.111
1.693,0.128
1.694,0.141
1.695,0.172
1.696,0.172
1.697,0.172
1.698,0.162
1.699,0.144
1.700,0.141
1.701,0.144
1.702,0.156
1.703,0.187
1.704,0.195
1.705,0.191
1.706,0.199
1.707,0.181
1.708,0.171
1.709,0.162
1.710,0.187
1.711,0.222
1.712,0.231
1.713,0.234
1.714,0.230
1.715,0.219
1.716,0.189
1.717,0.175
1.718,0.203
1.719,0.209
1.720,0.231
1.721,0.231
1.722,0.224
1.723,0.216
1.724,0.191
1.725,0.172
1.726,0.187
1.727,0.191
1.728,0.207
1.729,0.216
1.730,0.199
1.731,0.178
1.732,0.144
1.733,0.119
1.734,0.129
1.735,0.128
1.736,0.132
1.737,0.153
1.738,0.145
1.739,0.125
1.740,0.103
1.741,0.069
1.742,0.067
1.743,0.069
1.744,0.073
1.745,0.094
1.746,0.086
1.747,0.072
1.748,0.052
1.749,0.022
1.750,0.005
1.751,0.003
1.752,0.006
1.753,0.028
1.754,0.026
1.755,0.012
1.756,0.005
1.757,-0.025
1.758,-0.044
1.759,-0.044
1.760,-0.034
1.761,-0.013
1.762,-0.011
1.763,-0.019
1.764,-0.036
1.765,-0.059
1.766,-0.079
1.767,-0.088
1.768,-0.068
1.769,-0.063
1.770,-0.046
1.771,-0.050
1.772,-0.061
1.773,-0.069
1.774,-0.094
1.775,-0.113
1.776,-0.089
1.777,-0.078
1.778,-0.063
1.779,-0.053
1.780,-0.064
1.781,-0.072
1.782,-0.098
1.783,-0.119
1.784,-0.108
1.785,-0.100
1.786,-0.089
1.787,-0.072
1.788,-0.075
1.789,-0.072
1.790,-0.089
1.791,-0.113
1.792,-0.118
1.793,-0.106
1.794,-0.096
1.795,-0.066
1.796,-0.069
1.797,-0.078
1.798,-0.084
1.799,-0.106
1.800,-0.109
1.801,-0.106
1.802,-0.103
1.803,-0.075
1.804,-0.072
1.805,-0.081
1.806,-0.081
1.807,-0.109
1.808,-0.120
1.809,-0.119
1.810,-0.106
1.811,-0.081
1.812,-0.069
1.813,-0.069
1.814,-0.083
1.815,-0.103
1.816,-0.122
1.817,-0.131
1.818,-0.108
1.819,-0.091
1.820,-0.071
1.821,-0.069
1.822,-0.078
1.823,-0.084
1.824,-0.101
1.825,-0.119
1.826,-0.102
1.827,-0.091
1.828,-0.064
1.829,-0.050
1.830,-0.058
1.831,-0.069
1.832,-0.098
1.833,-0.119
1.834,-0.102
1.835,-0.091
1.836,-0.080
1.837,-0.056
1.838,-0.069
1.839,-0.078
1.840,-0.086
1.841,-0.109
1.842,-0.109
1.843,-0.097
1.844,-0.081
1.845,-0.053
1.846,-0.053
1.847,-0.059
1.848,-0.078
1.849,-0.100
1.850,-0.104
1.851,-0.103
1.852,-0.097
1.853,-0.072
1.854,-0.063
1.855,-0.069
1.856,-0.069
1.857,-0.091
1.858,-0.101
1.859,-0.103
1.860,-0.089
1.861,-0.056
1.862,-0.050
1.863,-0.047
1.864,-0.056
1.865,-0.075
1.866,-0.100
1.867,-0.109
1.868,-0.084
1.869,-0.075
1.870,-0.056
1.871,-0.053
1.872,-0.070
1.873,-0.078
1.874,-0.100
1.875,-0.116
1.876,-0.093
1.877,-0.078
1.878,-0.056
1.879,-0.044
1.880,-0.056
1.881,-0.066
1.882,-0.094
1.883,-0.113
1.884,-0.103
1.885,-0.091
1.886,-0.080
1.887,-0.059
1.888,-0.064
1.889,-0.075
1.890,-0.084
1.891,-0.106
1.892,-0.105
1.893,-0.097
1.894,-0.081
1.895,-0.056
1.896,-0.064
1.897,-0.075
1.898,-0.091
1.899,-0.116
1.900,-0.120
1.901,-0.116
1.902,-0.106
1.903,-0.072
1.904,-0.069
1.905,-0.075
1.906,-0.073
1.907,-0.097
1.908,-0.113
1.909,-0.116
1.910,-0.103
1.911,-0.078
1.912,-0.075
1.913,-0.075
1.914,-0.081
1.915,-0.109
1.916,-0.128
1.917,-0.138
1.918,-0.111
1.919,-0.100
1.920,-0.084
1.921,-0.084
1.922,-0.094
1.923,-0.100
1.924,-0.123
1.925,-0.144
1.926,-0.119
1.927,-0.106
1.928,-0.081
1.929,-0.075
1.930,-0.081
1.931,-0.094
1.932,-0.116
1.933,-0.134
1.934,-0.121
1.935,-0.116
1.936,-0.094
1.937,-0.081
1.938,-0.088
1.939,-0.091
1.940,-0.111
1.941,-0.134
1.942,-0.127
1.943,-0.128
1.944,-0.096
1.945,-0.075
1.946,-0.081
1.947,-0.084
1.948,-0.111
1.949,-0.131
1.950,-0.131
1.951,-0.141
1.952,-0.122
1.953,-0.094
1.954,-0.086
1.955,-0.091
1.956,-0.095
1.957,-0.119
1.958,-0.129
1.959,-0.131
1.960,-0.122
1.961,-0.094
1.962,-0.089
1.963,-0.088
1.964,-0.094
1.965,-0.116
1.966,-0.131
1.967,-0.141
1.968,-0.138
1.969,-0.109
1.970,-0.100
1.971,-0.103
1.972,-0.098
1.973,-0.113
1.974,-0.136
1.975,-0.150
1.976,-0.136
1.977,-0.116
1.978,-0.096
1.979,-0.091
1.980,-0.091
1.981,-0.103
1.982,-0.133
1.983,-0.147
1.984,-0.131
1.985,-0.128
1.986,-0.100
1.987,-0.091
1.988,-0.093
1.989,-0.094
1.990,-0.117
1.991,-0.138
1.992,-0.122
1.993,-0.122
1.994,-0.088
1.995,-0.066
1.996,-0.072
1.997,-0.072
1.998,-0.094
1.999,-0.113
2.000,-0.111
2.001,-0.122
2.002,-0.100
2.003,-0.078
2.004,-0.074
2.005,-0.072
2.006,-0.076
2.007,-0.091
2.008,-0.094
2.009,-0.084
2.010,-0.058
2.011,-0.028
2.012,-0.025
2.013,-0.025
2.014,-0.028
2.015,-0.056
2.016,-0.088
2.017,-0.100
2.018,-0.105
2.019,-0.072
2.020,-0.056
2.021,-0.059
2.022,-0.063
2.023,-0.075
2.024,-0.094
2.025,-0.103
2.026,-0.080
2.027,-0.053
2.028,-0.044
2.029,-0.025
2.030,-0.011
2.031,-0.022
2.032,-0.045
2.033,-0.056
2.034,-0.034
2.035,-0.022
2.036,-0.003
2.037,0.009
2.038,-0.004
2.039,-0.016
2.040,-0.048
2.041,-0.084
2.042,-0.081
2.043,-0.091
2.044,-0.066
2.045,-0.053
2.046,-0.064
2.047,-0.063
2.048,-0.081
2.049,-0.103
2.050,-0.100
2.051,-0.119
2.052,-0.108
2.053,-0.081
2.054,-0.069
2.055,-0.075
2.056,-0.079
2.057,-0.100
2.058,-0.114
2.059,-0.122
2.060,-0.100
2.061,-0.078
2.062,-0.081
2.063,-0.091
2.064,-0.111
2.065,-0.141
2.066,-0.151
2.067,-0.163
2.068,-0.152
2.069,-0.116
2.070,-0.111
2.071,-0.106
2.072,-0.100
2.073,-0.122
2.074,-0.147
2.075,-0.156
2.076,-0.147
2.077,-0.128
2.078,-0.118
2.079,-0.113
2.080,-0.123
2.081,-0.144
2.082,-0.176
2.083,-0.194
2.084,-0.169
2.085,-0.163
2.086,-0.136
2.087,-0.128
2.088,-0.127
2.089,-0.131
2.090,-0.154
2.091,-0.172
2.092,-0.164
2.093,-0.169
2.094,-0.139
2.095,-0.128
2.096,-0.133
2.097,-0.134
2.098,-0.158
2.099,-0.178
2.100,-0.173
2.101,-0.178
2.102,-0.163
2.103,-0.125
2.104,-0.122
2.105,-0.125
2.106,-0.138
2.107,-0.156
2.108,-0.166
2.109,-0.159
2.110,-0.152
2.111,-0.122
2.112,-0.125
2.113,-0.122
2.114,-0.133
2.115,-0.150
2.116,-0.172
2.117,-0.175
2.118,-0.164
2.119,-0.134
2.120,-0.124
2.121,-0.122
2.122,-0.117
2.123,-0.134
2.124,-0.153
2.125,-0.169
2.126,-0.153
2.127,-0.131
2.128,-0.119
2.129,-0.113
2.130,-0.122
2.131,-0.141
2.132,-0.166
2.133,-0.181
2.134,-0.164
2.135,-0.169
2.136,-0.149
2.137,-0.144
2.138,-0.150
2.139,-0.163
2.140,-0.195
2.141,-0.219
2.142,-0.214
2.143,-0.228
2.144,-0.217
2.145,-0.200
2.146,-0.196
2.147,-0.200
2.148,-0.214
2.149,-0.209
2.150,-0.186
2.151,-0.166
2.152,-0.127
2.153,-0.069
2.154,-0.021
2.155,0.031
2.156,0.099
2.157,0.156
2.158,0.231
2.159,0.325
2.160,0.439
2.161,0.575
2.162,0.704
2.163,0.831
2.164,0.977
2.165,1.106
2.166,1.216
2.167,1.316
2.168,1.426
2.169,1.550
2.170,1.648
2.171,1.750
2.172,1.837
2.173,1.903
2.174,1.971
2.175,2.034
2.176,2.091
2.177,2.131
2.178,2.112
2.179,2.041
2.180,1.909
2.181,1.741
2.182,1.558
2.183,1.366
2.184,1.212
2.185,1.062
2.186,0.894
2.187,0.737
2.188,0.567
2.189,0.412
2.190,0.280
2.191,0.166
2.192,0.103
2.193,0.062
2.194,0.067
2.195,0.066
2.196,0.041
2.197,0.025
2.198,-0.004
2.199,-0.038
2.200,-0.045
2.201,-0.066
2.202,-0.039
2.203,-0.025
2.204,-0.031
2.205,-0.041
2.206,-0.044
2.207,-0.066
2.208,-0.089
2.209,-0.097
2.210,-0.077
2.211,-0.056
2.212,-0.064
2.213,-0.072
2.214,-0.075
2.215,-0.106
2.216,-0.126
2.217,-0.128
2.218,-0.124
2.219,-0.088
2.220,-0.083
2.221,-0.084
2.222,-0.079
2.223,-0.100
2.224,-0.125
2.225,-0.138
2.226,-0.128
2.227,-0.109
2.228,-0.093
2.229,-0.088
2.230,-0.097
2.231,-0.109
2.232,-0.141
2.233,-0.156
2.234,-0.133
2.235,-0.131
2.236,-0.096
2.237,-0.078
2.238,-0.088
2.239,-0.094
2.240,-0.116
2.241,-0.138
2.242,-0.125
2.243,-0.131
2.244,-0.102
2.245,-0.088
2.246,-0.093
2.247,-0.094
2.248,-0.117
2.249,-0.134
2.250,-0.133
2.251,-0.138
2.252,-0.116
2.253,-0.088
2.254,-0.083
2.255,-0.081
2.256,-0.094
2.257,-0.119
2.258,-0.122
2.259,-0.125
2.260,-0.118
2.261,-0.084
2.262,-0.081
2.263,-0.088
2.264,-0.086
2.265,-0.109
2.266,-0.128
2.267,-0.134
2.268,-0.130
2.269,-0.094
2.270,-0.084
2.271,-0.084
2.272,-0.075
2.273,-0.084
2.274,-0.108
2.275,-0.122
2.276,-0.116
2.277,-0.094
2.278,-0.080
2.279,-0.075
2.280,-0.076
2.281,-0.091
2.282,-0.120
2.283,-0.134
2.284,-0.111
2.285,-0.109
2.286,-0.081
2.287,-0.069
2.288,-0.071
2.289,-0.072
2.290,-0.098
2.291,-0.116
2.292,-0.106
2.293,-0.106
2.294,-0.075
2.295,-0.059
2.296,-0.067
2.297,-0.066
2.298,-0.092
2.299,-0.116
2.300,-0.116
2.301,-0.119
2.302,-0.099
2.303,-0.066
2.304,-0.059
2.305,-0.059
2.306,-0.070
2.307,-0.091
2.308,-0.098
2.309,-0.100
2.310,-0.081
2.311,-0.053
2.312,-0.053
2.313,-0.053
2.314,-0.063
2.315,-0.084
2.316,-0.095
2.317,-0.100
2.318,-0.094
2.319,-0.066
2.320,-0.044
2.321,-0.044
2.322,-0.047
2.323,-0.056
2.324,-0.081
2.325,-0.091
2.326,-0.078
2.327,-0.056
2.328,-0.043
2.329,-0.038
2.330,-0.044
2.331,-0.050
2.332,-0.079
2.333,-0.088
2.334,-0.069
2.335,-0.063
2.336,-0.034
2.337,-0.019
2.338,-0.025
2.339,-0.028
2.340,-0.047
2.341,-0.066
2.342,-0.055
2.343,-0.050
2.344,-0.027
2.345,-0.009
2.346,-0.016
2.347,-0.016
2.348,-0.034
2.349,-0.056
2.350,-0.051
2.351,-0.056
2.352,-0.036
2.353,0.000
2.354,0.011
2.355,0.003
2.356,0.000
2.357,-0.022
2.358,-0.034
2.359,-0.038
2.360,-0.018
2.361,0.016
2.362,0.019
2.363,0.019
2.364,0.016
2.365,-0.006
2.366,-0.023
2.367,-0.025
2.368,-0.011
2.369,0.022
2.370,0.037
2.371,0.041
2.372,0.044
2.373,0.031
2.374,0.012
2.375,0.003
2.376,0.022
2.377,0.047
2.378,0.061
2.379,0.069
2.380,0.072
2.381,0.062
2.382,0.033
2.383,0.019
2.384,0.042
2.385,0.050
2.386,0.082
2.387,0.100
2.388,0.097
2.389,0.097
2.390,0.078
2.391,0.062
2.392,0.081
2.393,0.084
2.394,0.109
2.395,0.128
2.396,0.124
2.397,0.125
2.398,0.103
2.399,0.091
2.400,0.099
2.401,0.097
2.402,0.123
2.403,0.156
2.404,0.164
2.405,0.166
2.406,0.158
2.407,0.137
2.408,0.122
2.409,0.125
2.410,0.137
2.411,0.169
2.412,0.173
2.413,0.178
2.414,0.172
2.415,0.156
2.416,0.149
2.417,0.147
2.418,0.162
2.419,0.197
2.420,0.214
2.421,0.219
2.422,0.227
2.423,0.209
2.424,0.197
2.425,0.187
2.426,0.200
2.427,0.222
2.428,0.234
2.429,0.241
2.430,0.239
2.431,0.231
2.432,0.199
2.433,0.181
2.434,0.204
2.435,0.206
2.436,0.241
2.437,0.253
2.438,0.244
2.439,0.234
2.440,0.203
2.441,0.178
2.442,0.181
2.443,0.172
2.444,0.192
2.445,0.203
2.446,0.194
2.447,0.181
2.448,0.149
2.449,0.125
2.450,0.125
2.451,0.112
2.452,0.122
2.453,0.147
2.454,0.145
2.455,0.131
2.456,0.114
2.457,0.084
2.458,0.071
2.459,0.059
2.460,0.061
2.461,0.078
2.462,0.075
2.463,0.066
2.464,0.049
2.465,0.022
2.466,-0.004
2.467,-0.016
2.468,-0.009
2.469,0.016
2.470,0.025
2.471,0.022
2.472,0.017
2.473,-0.009
2.474,-0.042
2.475,-0.056
2.476,-0.050
2.477,-0.031
2.478,-0.022
2.479,-0.022
2.480,-0.036
2.481,-0.056
2.482,-0.088
2.483,-0.106
2.484,-0.088
2.485,-0.084
2.486,-0.053
2.487,-0.044
2.488,-0.053
2.489,-0.059
2.490,-0.086
2.491,-0.106
2.492,-0.094
2.493,-0.094
2.494,-0.075
2.495,-0.063
2.496,-0.073
2.497,-0.081
2.498,-0.104
2.499,-0.122
2.500,-0.122
2.501,-0.125
2.502,-0.102
2.503,-0.072
2.504,-0.075
2.505,-0.072
2.506,-0.083
2.507,-0.100
2.508,-0.114
2.509,-0.113
2.510,-0.102
2.511,-0.072
2.512,-0.072
2.513,-0.078
2.514,-0.089
2.515,-0.116
2.516,-0.126
2.517,-0.131
2.518,-0.122
2.519,-0.088
2.520,-0.074
2.521,-0.072
2.522,-0.066
2.523,-0.088
2.524,-0.111
2.525,-0.122
2.526,-0.114
2.527,-0.094
2.528,-0.078
2.529,-0.075
2.530,-0.089
2.531,-0.109
2.532,-0.128
2.533,-0.138
2.534,-0.122
2.535,-0.113
2.536,-0.081
2.537,-0.069
2.538,-0.070
2.539,-0.069
2.540,-0.095
2.541,-0.122
2.542,-0.114
2.543,-0.113
2.544,-0.086
2.545,-0.072
2.546,-0.075
2.547,-0.081
2.548,-0.111
2.549,-0.131
2.550,-0.126
2.551,-0.128
2.552,-0.103
2.553,-0.066
2.554,-0.068
2.555,-0.066
2.556,-0.073
2.557,-0.097
2.558,-0.113
2.559,-0.116
2.560,-0.103
2.561,-0.078
2.562,-0.075
2.563,-0.078
2.564,-0.092
2.565,-0.109
2.566,-0.123
2.567,-0.131
2.568,-0.121
2.569,-0.091
2.570,-0.074
2.571,-0.072
2.572,-0.064
2.573,-0.078
2.574,-0.100
2.575,-0.113
2.576,-0.106
2.577,-0.081
2.578,-0.075
2.579,-0.072
2.580,-0.079
2.581,-0.097
2.582,-0.125
2.583,-0.138
2.584,-0.118
2.585,-0.113
2.586,-0.078
2.587,-0.059
2.588,-0.066
2.589,-0.063
2.590,-0.089
2.591,-0.109
2.592,-0.100
2.593,-0.100
2.594,-0.078
2.595,-0.066
2.596,-0.072
2.597,-0.075
2.598,-0.104
2.599,-0.125
2.600,-0.124
2.601,-0.119
2.602,-0.099
2.603,-0.069
2.604,-0.066
2.605,-0.069
2.606,-0.078
2.607,-0.100
2.608,-0.109
2.609,-0.113
2.610,-0.096
2.611,-0.069
2.612,-0.071
2.613,-0.075
2.614,-0.089
2.615,-0.113
2.616,-0.125
2.617,-0.128
2.618,-0.122
2.619,-0.091
2.620,-0.078
2.621,-0.075
2.622,-0.069
2.623,-0.088
2.624,-0.113
2.625,-0.125
2.626,-0.114
2.627,-0.091
2.628,-0.083
2.629,-0.078
2.630,-0.083
2.631,-0.109
2.632,-0.133
2.633,-0.147
2.634,-0.125
2.635,-0.119
2.636,-0.089
2.637,-0.075
2.638,-0.079
2.639,-0.081
2.640,-0.109
2.641,-0.134
2.642,-0.127
2.643,-0.131
2.644,-0.103
2.645,-0.094
2.646,-0.093
2.647,-0.097
2.648,-0.119
2.649,-0.138
2.650,-0.133
2.651,-0.138
2.652,-0.118
2.653,-0.091
2.654,-0.088
2.655,-0.091
2.656,-0.100
2.657,-0.113
2.658,-0.126
2.659,-0.125
2.660,-0.119
2.661,-0.094
2.662,-0.091
2.663,-0.097
2.664,-0.111
2.665,-0.131
2.666,-0.147
2.667,-0.153
2.668,-0.138
2.669,-0.113
2.670,-0.091
2.671,-0.084
2.672,-0.104
2.673,-0.109
2.674,-0.138
2.675,-0.150
2.676,-0.130
2.677,-0.122
2.678,-0.100
2.679,-0.100
2.680,-0.117
2.681,-0.122
2.682,-0.151
2.683,-0.169
2.684,-0.150
2.685,-0.144
2.686,-0.111
2.687,-0.094
2.688,-0.106
2.689,-0.103
2.690,-0.131
2.691,-0.153
2.692,-0.144
2.693,-0.138
2.694,-0.124
2.695,-0.106
2.696,-0.113
2.697,-0.113
2.698,-0.138
2.699,-0.156
2.700,-0.151
2.701,-0.150
2.702,-0.139
2.703,-0.103
2.704,-0.102
2.705,-0.103
2.706,-0.116
2.707,-0.131
2.708,-0.142
2.709,-0.141
2.710,-0.134
2.711,-0.103
2.712,-0.093
2.713,-0.091
2.714,-0.100
2.715,-0.119
2.716,-0.131
2.717,-0.138
2.718,-0.128
2.719,-0.103
2.720,-0.096
2.721,-0.091
2.722,-0.091
2.723,-0.088
2.724,-0.106
2.725,-0.116
2.726,-0.088
2.727,-0.066
2.728,-0.046
2.729,-0.038
2.730,-0.051
2.731,-0.056
2.732,-0.088
2.733,-0.109
2.734,-0.089
2.735,-0.097
2.736,-0.071
2.737,-0.056
2.738,-0.070
2.739,-0.072
2.740,-0.091
2.741,-0.106
2.742,-0.102
2.743,-0.091
2.744,-0.064
2.745,-0.047
2.746,-0.047
2.747,-0.041
2.748,-0.058
2.749,-0.075
2.750,-0.073
2.751,-0.066
2.752,-0.038
2.753,-0.013
2.754,-0.018
2.755,-0.022
2.756,-0.038
2.757,-0.066
2.758,-0.089
2.759,-0.091
2.760,-0.093
2.761,-0.075
2.762,-0.078
2.763,-0.088
2.764,-0.098
2.765,-0.113
2.766,-0.123
2.767,-0.128
2.768,-0.127
2.769,-0.106
2.770,-0.084
2.771,-0.078
2.772,-0.100
2.773,-0.103
2.774,-0.128
2.775,-0.141
2.776,-0.130
2.777,-0.116
2.778,-0.099
2.779,-0.091
2.780,-0.111
2.781,-0.128
2.782,-0.164
2.783,-0.184
2.784,-0.169
2.785,-0.163
2.786,-0.131
2.787,-0.116
2.788,-0.120
2.789,-0.113
2.790,-0.144
2.791,-0.172
2.792,-0.166
2.793,-0.163
2.794,-0.139
2.795,-0.125
2.796,-0.141
2.797,-0.150
2.798,-0.169
2.799,-0.191
2.800,-0.191
2.801,-0.181
2.802,-0.171
2.803,-0.138
2.804,-0.136
2.805,-0.131
2.806,-0.150
2.807,-0.169
2.808,-0.173
2.809,-0.175
2.810,-0.171
2.811,-0.138
2.812,-0.134
2.813,-0.138
2.814,-0.150
2.815,-0.166
2.816,-0.184
2.817,-0.194
2.818,-0.178
2.819,-0.159
2.820,-0.133
2.821,-0.131
2.822,-0.144
2.823,-0.150
2.824,-0.173
2.825,-0.188
2.826,-0.158
2.827,-0.150
2.828,-0.128
2.829,-0.128
2.830,-0.136
2.831,-0.147
2.832,-0.173
2.833,-0.197
2.834,-0.172
2.835,-0.163
2.836,-0.134
2.837,-0.119
2.838,-0.128
2.839,-0.125
2.840,-0.153
2.841,-0.169
2.842,-0.168
2.843,-0.159
2.844,-0.134
2.845,-0.122
2.846,-0.129
2.847,-0.134
2.848,-0.161
2.849,-0.181
2.850,-0.183
2.851,-0.178
2.852,-0.177
2.853,-0.150
2.854,-0.149
2.855,-0.153
2.856,-0.178
2.857,-0.203
2.858,-0.216
2.859,-0.225
2.860,-0.233
2.861,-0.216
2.862,-0.203
2.863,-0.200
2.864,-0.216
2.865,-0.219
2.866,-0.214
2.867,-0.203
2.868,-0.159
2.869,-0.113
2.870,-0.053
2.871,0.000
2.872,0.039
2.873,0.112
2.874,0.174
2.875,0.244
2.876,0.354
2.877,0.466
2.878,0.597
2.879,0.734
2.880,0.842
2.881,0.991
2.882,1.127
2.883,1.231
2.884,1.362
2.885,1.481
2.886,1.601
2.887,1.709
2.888,1.781
2.889,1.859
2.890,1.928
2.891,1.984
2.892,2.061
2.893,2.103
2.894,2.132
2.895,2.106
2.896,2.002
2.897,1.878
2.898,1.697
2.899,1.506
2.900,1.342
2.901,1.169
2.902,1.016
2.903,0.866
2.904,0.714
2.905,0.566
2.906,0.402
2.907,0.269
2.908,0.174
2.909,0.100
2.910,0.062
2.911,0.062
2.912,0.047
2.913,0.028
2.914,0.006
2.915,-0.025
2.916,-0.054
2.917,-0.063
2.918,-0.058
2.919,-0.028
2.920,-0.021
2.921,-0.019
2.922,-0.038
2.923,-0.044
2.924,-0.067
2.925,-0.091
2.926,-0.088
2.927,-0.081
2.928,-0.068
2.929,-0.069
2.930,-0.095
2.931,-0.100
2.932,-0.125
2.933,-0.141
2.934,-0.118
2.935,-0.113
2.936,-0.077
2.937,-0.066
2.938,-0.079
2.939,-0.075
2.940,-0.106
2.941,-0.128
2.942,-0.122
2.943,-0.128
2.944,-0.113
2.945,-0.094
2.946,-0.104
2.947,-0.113
2.948,-0.131
2.949,-0.153
2.950,-0.150
2.951,-0.141
2.952,-0.130
2.953,-0.091
2.954,-0.088
2.955,-0.088
2.956,-0.101
2.957,-0.122
2.958,-0.136
2.959,-0.138
2.960,-0.138
2.961,-0.106
2.962,-0.100
2.963,-0.103
2.964,-0.116
2.965,-0.134
2.966,-0.148
2.967,-0.153
2.968,-0.133
2.969,-0.103
2.970,-0.084
2.971,-0.084
2.972,-0.097
2.973,-0.103
2.974,-0.128
2.975,-0.138
2.976,-0.124
2.977,-0.119
2.978,-0.093
2.979,-0.088
2.980,-0.108
2.981,-0.106
2.982,-0.133
2.983,-0.147
2.984,-0.127
2.985,-0.122
2.986,-0.088
2.987,-0.075
2.988,-0.086
2.989,-0.084
2.990,-0.109
2.991,-0.128
2.992,-0.122
2.993,-0.122
2.994,-0.099
2.995,-0.084
2.996,-0.095
2.997,-0.097
2.998,-0.113
2.999,-0.128
3.000,-0.125
3.001,-0.116
3.002,-0.109
3.003,-0.075
3.004,-0.071
3.005,-0.072
3.006,-0.088
3.007,-0.109
3.008,-0.116
3.009,-0.119
3.010,-0.113
3.011,-0.084
3.012,-0.080
3.013,-0.081
3.014,-0.086
3.015,-0.100
3.016,-0.114
3.017,-0.122
3.018,-0.106
3.019,-0.084
3.020,-0.058
3.021,-0.053
3.022,-0.070
3.023,-0.078
3.024,-0.103
3.025,-0.119
3.026,-0.100
3.027,-0.088
3.028,-0.072
3.029,-0.069
3.030,-0.081
3.031,-0.091
3.032,-0.119
3.033,-0.128
3.034,-0.099
3.035,-0.091
3.036,-0.072
3.037,-0.050
3.038,-0.058
3.039,-0.063
3.040,-0.084
3.041,-0.103
3.042,-0.094
3.043,-0.094
3.044,-0.072
3.045,-0.056
3.046,-0.061
3.047,-0.059
3.048,-0.073
3.049,-0.100
3.050,-0.095
3.051,-0.091
3.052,-0.074
3.053,-0.038
3.054,-0.034
3.055,-0.038
3.056,-0.047
3.057,-0.063
3.058,-0.072
3.059,-0.069
3.060,-0.056
3.061,-0.034
3.062,-0.030
3.063,-0.031
3.064,-0.041
3.065,-0.056
3.066,-0.073
3.067,-0.075
3.068,-0.056
3.069,-0.031
3.070,-0.003
3.071,0.006
3.072,-0.019
3.073,-0.019
3.074,-0.042
3.075,-0.059
3.076,-0.041
3.077,-0.025
3.078,-0.003
3.079,0.000
3.080,-0.014
3.081,-0.013
3.082,-0.033
3.083,-0.044
3.084,-0.014
3.085,-0.003
3.086,0.025
3.087,0.047
3.088,0.037
3.089,0.037
3.090,0.014
3.091,-0.003
3.092,0.004
3.093,0.012
3.094,0.037
3.095,0.056
3.096,0.052
3.097,0.053
3.098,0.036
3.099,0.019
3.100,0.028
3.101,0.041
3.102,0.054
3.103,0.094
3.104,0.103
3.105,0.103
3.106,0.091
3.107,0.075
3.108,0.067
3.109,0.072
3.110,0.087
3.111,0.119
3.112,0.122
3.113,0.119
3.114,0.112
3.115,0.094
3.116,0.089
3.117,0.091
3.118,0.112
3.119,0.144
3.120,0.161
3.121,0.166
3.122,0.156
3.123,0.153
3.124,0.131
3.125,0.116
3.126,0.144
3.127,0.156
3.128,0.178
3.129,0.181
3.130,0.175
3.131,0.169
3.132,0.149
3.133,0.144
3.134,0.169
3.135,0.181
3.136,0.211
3.137,0.228
3.138,0.214
3.139,0.222
3.140,0.200
3.141,0.184
3.142,0.187
3.143,0.197
3.144,0.225
3.145,0.241
3.146,0.233
3.147,0.231
3.148,0.214
3.149,0.191
3.150,0.194
3.151,0.200
3.152,0.212
3.153,0.256
3.154,0.250
3.155,0.241
3.156,0.221
3.157,0.194
3.158,0.181
3.159,0.175
3.160,0.173
3.161,0.194
3.162,0.198
3.163,0.194
3.164,0.166
3.165,0.137
3.166,0.128
3.167,0.119
3.168,0.123
3.169,0.141
3.170,0.159
3.171,0.156
3.172,0.124
3.173,0.106
3.174,0.074
3.175,0.053
3.176,0.062
3.177,0.066
3.178,0.079
3.179,0.078
3.180,0.056
3.181,0.041
3.182,0.008
3.183,-0.016
3.184,0.004
3.185,0.009
3.186,0.029
3.187,0.037
3.188,0.021
3.189,0.019
3.190,-0.019
3.191,-0.050
3.192,-0.047
3.193,-0.053
3.194,-0.033
3.195,-0.019
3.196,-0.028
3.197,-0.034
3.198,-0.064
3.199,-0.091
3.200,-0.083
3.201,-0.075
3.202,-0.075
3.203,-0.047
3.204,-0.050
3.205,-0.053
3.206,-0.070
3.207,-0.097
3.208,-0.108
3.209,-0.106
3.210,-0.096
3.211,-0.069
3.212,-0.064
3.213,-0.069
3.214,-0.078
3.215,-0.094
3.216,-0.109
3.217,-0.119
3.218,-0.100
3.219,-0.078
3.220,-0.063
3.221,-0.059
3.222,-0.064
3.223,-0.078
3.224,-0.104
3.225,-0.125
3.226,-0.103
3.227,-0.094
3.228,-0.069
3.229,-0.063
3.230,-0.075
3.231,-0.075
3.232,-0.104
3.233,-0.119
3.234,-0.097
3.235,-0.094
3.236,-0.069
3.237,-0.056
3.238,-0.073
3.239,-0.069
3.240,-0.095
3.241,-0.116
3.242,-0.109
3.243,-0.106
3.244,-0.081
3.245,-0.063
3.246,-0.069
3.247,-0.072
3.248,-0.098
3.249,-0.116
3.250,-0.102
3.251,-0.097
3.252,-0.089
3.253,-0.059
3.254,-0.063
3.255,-0.063
3.256,-0.076
3.257,-0.103
3.258,-0.114
3.259,-0.109
3.260,-0.097
3.261,-0.069
3.262,-0.064
3.263,-0.066
3.264,-0.076
3.265,-0.091
3.266,-0.106
3.267,-0.116
3.268,-0.096
3.269,-0.075
3.270,-0.053
3.271,-0.050
3.272,-0.066
3.273,-0.072
3.274,-0.095
3.275,-0.116
3.276,-0.097
3.277,-0.081
3.278,-0.058
3.279,-0.053
3.280,-0.069
3.281,-0.078
3.282,-0.103
3.283,-0.122
3.284,-0.099
3.285,-0.088
3.286,-0.066
3.287,-0.050
3.288,-0.066
3.289,-0.063
3.290,-0.091
3.291,-0.113
3.292,-0.102
3.293,-0.097
3.294,-0.069
3.295,-0.056
3.296,-0.064
3.297,-0.069
3.298,-0.094
3.299,-0.116
3.300,-0.105
3.301,-0.097
3.302,-0.089
3.303,-0.056
3.304,-0.056
3.305,-0.063
3.306,-0.075
3.307,-0.100
3.308,-0.104
3.309,-0.100
3.310,-0.089
3.311,-0.066
3.312,-0.063
3.313,-0.063
3.314,-0.073
3.315,-0.094
3.316,-0.101
3.317,-0.109
3.318,-0.086
3.319,-0.063
3.320,-0.049
3.321,-0.050
3.322,-0.069
3.323,-0.078
3.324,-0.101
3.325,-0.113
3.326,-0.097
3.327,-0.084
3.328,-0.063
3.329,-0.059
3.330,-0.073
3.331,-0.078
3.332,-0.101
3.333,-0.116
3.334,-0.094
3.335,-0.091
3.336,-0.064
3.337,-0.050
3.338,-0.063
3.339,-0.059
3.340,-0.089
3.341,-0.113
3.342,-0.106
3.343,-0.103
3.344,-0.077
3.345,-0.063
3.346,-0.070
3.347,-0.072
3.348,-0.103
3.349,-0.119
3.350,-0.111
3.351,-0.103
3.352,-0.097
3.353,-0.066
3.354,-0.066
3.355,-0.069
3.356,-0.086
3.357,-0.113
3.358,-0.123
3.359,-0.122
3.360,-0.116
3.361,-0.084
3.362,-0.078
3.363,-0.075
3.364,-0.095
3.365,-0.113
3.366,-0.128
3.367,-0.138
3.368,-0.124
3.369,-0.094
3.370,-0.075
3.371,-0.078
3.372,-0.095
3.373,-0.106
3.374,-0.131
3.375,-0.153
3.376,-0.133
3.377,-0.113
3.378,-0.093
3.379,-0.084
3.380,-0.111
3.381,-0.113
3.382,-0.123
3.383,-0.141
3.384,-0.119
3.385,-0.100
3.386,-0.100
3.387,-0.084
3.388,-0.103
3.389,-0.103
3.390,-0.120
3.391,-0.147
3.392,-0.130
3.393,-0.119
3.394,-0.109
3.395,-0.091
3.396,-0.101
3.397,-0.103
3.398,-0.106
3.399,-0.125
3.400,-0.131
3.401,-0.122
3.402,-0.113
3.403,-0.088
3.404,-0.084
3.405,-0.094
3.406,-0.098
3.407,-0.125
3.408,-0.136
3.409,-0.134
3.410,-0.124
3.411,-0.100
3.412,-0.094
3.413,-0.100
3.414,-0.098
3.415,-0.113
3.416,-0.125
3.417,-0.122
3.418,-0.108
3.419,-0.088
3.420,-0.086
3.421,-0.088
3.422,-0.101
3.423,-0.113
3.424,-0.129
3.425,-0.141
3.426,-0.131
3.427,-0.116
3.428,-0.102
3.429,-0.091
3.430,-0.111
3.431,-0.106
3.432,-0.119
3.433,-0.134
3.434,-0.118
3.435,-0.103
3.436,-0.094
3.437,-0.072
3.438,-0.092
3.439,-0.088
3.440,-0.097
3.441,-0.116
3.442,-0.100
3.443,-0.094
3.444,-0.083
3.445,-0.066
3.446,-0.084
3.447,-0.088
3.448,-0.098
3.449,-0.113
3.450,-0.105
3.451,-0.094
3.452,-0.074
3.453,-0.044
3.454,-0.039
3.455,-0.041
3.456,-0.044
3.457,-0.059
3.458,-0.069
3.459,-0.069
3.460,-0.066
3.461,-0.053
3.462,-0.045
3.463,-0.066
3.464,-0.067
3.465,-0.081
3.466,-0.097
3.467,-0.100
3.468,-0.077
3.469,-0.050
3.470,-0.047
3.471,-0.038
3.472,-0.039
3.473,-0.050
3.474,-0.056
3.475,-0.056
3.476,-0.039
3.477,-0.022
3.478,-0.008
3.479,0.012
3.480,0.000
3.481,-0.016
3.482,-0.039
3.483,-0.063
3.484,-0.046
3.485,-0.041
3.486,-0.049
3.487,-0.034
3.488,-0.058
3.489,-0.063
3.490,-0.079
3.491,-0.103
3.492,-0.093
3.493,-0.084
3.494,-0.074
3.495,-0.056
3.496,-0.083
3.497,-0.091
3.498,-0.095
3.499,-0.116
3.500,-0.125
3.501,-0.116
3.502,-0.103
3.503,-0.078
3.504,-0.083
3.505,-0.084
3.506,-0.103
3.507,-0.131
3.508,-0.138
3.509,-0.141
3.510,-0.138
3.511,-0.119
3.512,-0.118
3.513,-0.125
3.514,-0.125
3.515,-0.141
3.516,-0.151
3.517,-0.150
3.518,-0.133
3.519,-0.113
3.520,-0.113
3.521,-0.116
3.522,-0.125
3.523,-0.144
3.524,-0.159
3.525,-0.169
3.526,-0.152
3.527,-0.138
3.528,-0.131
3.529,-0.116
3.530,-0.138
3.531,-0.138
3.532,-0.158
3.533,-0.175
3.534,-0.161
3.535,-0.147
3.536,-0.133
3.537,-0.116
3.538,-0.139
3.539,-0.134
3.540,-0.151
3.541,-0.175
3.542,-0.166
3.543,-0.159
3.544,-0.149
3.545,-0.128
3.546,-0.141
3.547,-0.150
3.548,-0.145
3.549,-0.166
3.550,-0.168
3.551,-0.163
3.552,-0.150
3.553,-0.128
3.554,-0.119
3.555,-0.131
3.556,-0.136
3.557,-0.163
3.558,-0.158
3.559,-0.156
3.560,-0.144
3.561,-0.128
3.562,-0.120
3.563,-0.128
3.564,-0.128
3.565,-0.141
3.566,-0.156
3.567,-0.159
3.568,-0.147
3.569,-0.122
3.570,-0.122
3.571,-0.116
3.572,-0.122
3.573,-0.141
3.574,-0.158
3.575,-0.172
3.576,-0.158
3.577,-0.138
3.578,-0.131
3.579,-0.119
3.580,-0.151
3.581,-0.159
3.582,-0.170
3.583,-0.188
3.584,-0.181
3.585,-0.175
3.586,-0.171
3.587,-0.163
3.588,-0.198
3.589,-0.209
3.590,-0.216
3.591,-0.231
3.592,-0.221
3.593,-0.197
3.594,-0.163
3.595,-0.122
3.596,-0.108
3.597,-0.091
3.598,-0.053
3.599,-0.022
3.600,0.034
3.601,0.125
3.602,0.226
3.603,0.337
3.604,0.430
3.605,0.522
3.606,0.633
3.607,0.750
3.608,0.871
3.609,1.031
3.610,1.201
3.611,1.341
3.612,1.453
3.613,1.553
3.614,1.642
3.615,1.719
3.616,1.786
3.617,1.859
3.618,1.966
3.619,2.059
3.620,2.117
3.621,2.141
3.622,2.119
3.623,2.041
3.624,1.914
3.625,1.769
3.626,1.623
3.627,1.469
3.628,1.316
3.629,1.153
3.630,0.967
3.631,0.784
3.632,0.617
3.633,0.453
3.634,0.341
3.635,0.259
3.636,0.195
3.637,0.153
3.638,0.092
3.639,0.069
3.640,0.034
3.641,-0.003
3.642,0.003
3.643,0.000
3.644,-0.006
3.645,0.009
3.646,-0.014
3.647,-0.013
3.648,-0.029
3.649,-0.053
3.650,-0.058
3.651,-0.050
3.652,-0.038
3.653,-0.025
3.654,-0.034
3.655,-0.041
3.656,-0.054
3.657,-0.084
3.658,-0.100
3.659,-0.094
3.660,-0.089
3.661,-0.075
3.662,-0.072
3.663,-0.088
3.664,-0.081
3.665,-0.100
3.666,-0.117
3.667,-0.116
3.668,-0.102
3.669,-0.078
3.670,-0.071
3.671,-0.075
3.672,-0.089
3.673,-0.100
3.674,-0.116
3.675,-0.128
3.676,-0.114
3.677,-0.103
3.678,-0.096
3.679,-0.081
3.680,-0.104
3.681,-0.100
3.682,-0.113
3.683,-0.128
3.684,-0.108
3.685,-0.094
3.686,-0.086
3.687,-0.066
3.688,-0.094
3.689,-0.091
3.690,-0.106
3.691,-0.131
3.692,-0.119
3.693,-0.113
3.694,-0.099
3.695,-0.075
3.696,-0.091
3.697,-0.097
3.698,-0.097
3.699,-0.116
3.700,-0.113
3.701,-0.103
3.702,-0.093
3.703,-0.066
3.704,-0.072
3.705,-0.088
3.706,-0.086
3.707,-0.106
3.708,-0.120
3.709,-0.113
3.710,-0.105
3.711,-0.084
3.712,-0.081
3.713,-0.094
3.714,-0.088
3.715,-0.103
3.716,-0.114
3.717,-0.113
3.718,-0.097
3.719,-0.075
3.720,-0.069
3.721,-0.069
3.722,-0.075
3.723,-0.091
3.724,-0.106
3.725,-0.113
3.726,-0.099
3.727,-0.084
3.728,-0.078
3.729,-0.066
3.730,-0.092
3.731,-0.091
3.732,-0.100
3.733,-0.116
3.734,-0.099
3.735,-0.088
3.736,-0.078
3.737,-0.066
3.738,-0.088
3.739,-0.088
3.740,-0.100
3.741,-0.119
3.742,-0.103
3.743,-0.097
3.744,-0.083
3.745,-0.063
3.746,-0.076
3.747,-0.084
3.748,-0.084
3.749,-0.106
3.750,-0.105
3.751,-0.094
3.752,-0.078
3.753,-0.053
3.754,-0.053
3.755,-0.059
3.756,-0.070
3.757,-0.094
3.758,-0.096
3.759,-0.094
3.760,-0.088
3.761,-0.063
3.762,-0.051
3.763,-0.063
3.764,-0.070
3.765,-0.075
3.766,-0.084
3.767,-0.091
3.768,-0.072
3.769,-0.050
3.770,-0.041
3.771,-0.041
3.772,-0.044
3.773,-0.053
3.774,-0.073
3.775,-0.088
3.776,-0.064
3.777,-0.053
3.778,-0.041
3.779,-0.028
3.780,-0.048
3.781,-0.050
3.782,-0.067
3.783,-0.091
3.784,-0.066
3.785,-0.047
3.786,-0.038
3.787,-0.016
3.788,-0.028
3.789,-0.031
3.790,-0.047
3.791,-0.069
3.792,-0.053
3.793,-0.044
3.794,-0.034
3.795,-0.009
3.796,-0.023
3.797,-0.031
3.798,-0.029
3.799,-0.047
3.800,-0.052
3.801,-0.031
3.802,-0.016
3.803,0.006
3.804,0.003
3.805,-0.003
3.806,-0.004
3.807,-0.025
3.808,-0.028
3.809,-0.016
3.810,-0.005
3.811,0.016
3.812,0.027
3.813,0.019
3.814,0.016
3.815,0.006
3.816,-0.003
3.817,-0.003
3.818,0.017
3.819,0.044
3.820,0.050
3.821,0.056
3.822,0.056
3.823,0.050
3.824,0.037
3.825,0.031
3.826,0.047
3.827,0.062
3.828,0.072
3.829,0.084
3.830,0.061
3.831,0.062
3.832,0.056
3.833,0.041
3.834,0.069
3.835,0.094
3.836,0.104
3.837,0.128
3.838,0.112
3.839,0.112
3.840,0.099
3.841,0.078
3.842,0.100
3.843,0.109
3.844,0.126
3.845,0.150
3.846,0.137
3.847,0.134
3.848,0.134
3.849,0.122
3.850,0.125
3.851,0.134
3.852,0.150
3.853,0.172
3.854,0.178
3.855,0.169
3.856,0.168
3.857,0.147
3.858,0.151
3.859,0.156
3.860,0.170
3.861,0.200
3.862,0.209
3.863,0.206
3.864,0.205
3.865,0.191
3.866,0.177
3.867,0.184
3.868,0.207
3.869,0.237
3.870,0.236
3.871,0.241
3.872,0.239
3.873,0.225
3.874,0.209
3.875,0.200
3.876,0.219
3.877,0.231
3.878,0.242
3.879,0.256
3.880,0.224
3.881,0.222
3.882,0.206
3.883,0.187
3.884,0.201
3.885,0.209
3.886,0.214
3.887,0.225
3.888,0.197
3.889,0.191
3.890,0.174
3.891,0.147
3.892,0.150
3.893,0.153
3.894,0.164
3.895,0.175
3.896,0.149
3.897,0.134
3.898,0.128
3.899,0.100
3.900,0.087
3.901,0.091
3.902,0.094
3.903,0.109
3.904,0.099
3.905,0.081
3.906,0.069
3.907,0.041
3.908,0.029
3.909,0.025
3.910,0.028
3.911,0.041
3.912,0.044
3.913,0.031
3.914,0.017
3.915,-0.009
3.916,-0.033
3.917,-0.041
3.918,-0.030
3.919,-0.013
3.920,-0.011
3.921,-0.019
3.922,-0.029
3.923,-0.047
3.924,-0.063
3.925,-0.075
3.926,-0.064
3.927,-0.050
3.928,-0.044
3.929,-0.038
3.930,-0.066
3.931,-0.066
3.932,-0.083
3.933,-0.100
3.934,-0.083
3.935,-0.075
3.936,-0.069
3.937,-0.050
3.938,-0.070
3.939,-0.075
3.940,-0.089
3.941,-0.113
3.942,-0.100
3.943,-0.094
3.944,-0.083
3.945,-0.066
3.946,-0.075
3.947,-0.081
3.948,-0.098
3.949,-0.128
3.950,-0.118
3.951,-0.116
3.952,-0.097
3.953,-0.072
3.954,-0.072
3.955,-0.084
3.956,-0.086
3.957,-0.106
3.958,-0.116
3.959,-0.113
3.960,-0.105
3.961,-0.081
3.962,-0.073
3.963,-0.084
3.964,-0.089
3.965,-0.106
3.966,-0.123
3.967,-0.119
3.968,-0.100
3.969,-0.075
3.970,-0.075
3.971,-0.078
3.972,-0.086
3.973,-0.100
3.974,-0.111
3.975,-0.119
3.976,-0.109
3.977,-0.091
3.978,-0.075
3.979,-0.069
3.980,-0.091
3.981,-0.091
3.982,-0.106
3.983,-0.119
3.984,-0.097
3.985,-0.088
3.986,-0.083
3.987,-0.063
3.988,-0.078
3.989,-0.078
3.990,-0.092
3.991,-0.113
3.992,-0.106
3.993,-0.103
3.994,-0.088
3.995,-0.066
3.996,-0.075
3.997,-0.084
3.998,-0.088
3.999,-0.109
4.000,-0.108
4.001,-0.097
4.002,-0.080
4.003,-0.059
4.004,-0.064
4.005,-0.072
4.006,-0.076
4.007,-0.100
4.008,-0.106
4.009,-0.106
4.010,-0.094
4.011,-0.075
4.012,-0.070
4.013,-0.078
4.014,-0.083
4.015,-0.094
4.016,-0.111
4.017,-0.109
4.018,-0.096
4.019,-0.075
4.020,-0.069
4.021,-0.069
4.022,-0.073
4.023,-0.094
4.024,-0.104
4.025,-0.113
4.026,-0.100
4.027,-0.084
4.028,-0.071
4.029,-0.059
4.030,-0.088
4.031,-0.091
4.032,-0.106
4.033,-0.128
4.034,-0.102
4.035,-0.088
4.036,-0.075
4.037,-0.053
4.038,-0.072
4.039,-0.078
4.040,-0.097
4.041,-0.119
4.042,-0.100
4.043,-0.091
4.044,-0.075
4.045,-0.059
4.046,-0.073
4.047,-0.088
4.048,-0.094
4.049,-0.116
4.050,-0.118
4.051,-0.109
4.052,-0.094
4.053,-0.066
4.054,-0.072
4.055,-0.081
4.056,-0.083
4.057,-0.103
4.058,-0.114
4.059,-0.116
4.060,-0.106
4.061,-0.088
4.062,-0.079
4.063,-0.091
4.064,-0.094
4.065,-0.109
4.066,-0.125
4.067,-0.125
4.068,-0.111
4.069,-0.091
4.070,-0.086
4.071,-0.084
4.072,-0.088
4.073,-0.103
4.074,-0.116
4.075,-0.122
4.076,-0.118
4.077,-0.097
4.078,-0.089
4.079,-0.081
4.080,-0.109
4.081,-0.113
4.082,-0.126
4.083,-0.144
4.084,-0.121
4.085,-0.106
4.086,-0.099
4.087,-0.078
4.088,-0.100
4.089,-0.097
4.090,-0.114
4.091,-0.134
4.092,-0.124
4.093,-0.109
4.094,-0.100
4.095,-0.084
4.096,-0.104
4.097,-0.109
4.098,-0.111
4.099,-0.134
4.100,-0.131
4.101,-0.122
4.102,-0.103
4.103,-0.081
4.104,-0.088
4.105,-0.094
4.106,-0.103
4.107,-0.125
4.108,-0.131
4.109,-0.128
4.110,-0.119
4.111,-0.100
4.112,-0.098
4.113,-0.106
4.114,-0.124
4.115,-0.134
4.116,-0.141
4.117,-0.153
4.118,-0.122
4.119,-0.094
4.120,-0.097
4.121,-0.084
4.122,-0.111
4.123,-0.119
4.124,-0.129
4.125,-0.150
4.126,-0.130
4.127,-0.116
4.128,-0.113
4.129,-0.100
4.130,-0.119
4.131,-0.128
4.132,-0.131
4.133,-0.150
4.134,-0.138
4.135,-0.109
4.136,-0.109
4.137,-0.094
4.138,-0.100
4.139,-0.119
4.140,-0.123
4.141,-0.150
4.142,-0.146
4.143,-0.128
4.144,-0.124
4.145,-0.106
4.146,-0.109
4.147,-0.125
4.148,-0.126
4.149,-0.144
4.150,-0.146
4.151,-0.131
4.152,-0.119
4.153,-0.100
4.154,-0.103
4.155,-0.109
4.156,-0.128
4.157,-0.144
4.158,-0.146
4.159,-0.141
4.160,-0.128
4.161,-0.109
4.162,-0.101
4.163,-0.097
4.164,-0.125
4.165,-0.128
4.166,-0.134
4.167,-0.144
4.168,-0.121
4.169,-0.100
4.170,-0.100
4.171,-0.088
4.172,-0.111
4.173,-0.109
4.174,-0.116
4.175,-0.131
4.176,-0.106
4.177,-0.091
4.178,-0.089
4.179,-0.081
4.180,-0.108
4.181,-0.119
4.182,-0.125
4.183,-0.134
4.184,-0.109
4.185,-0.081
4.186,-0.074
4.187,-0.056
4.188,-0.058
4.189,-0.066
4.190,-0.073
4.191,-0.094
4.192,-0.086
4.193,-0.069
4.194,-0.075
4.195,-0.072
4.196,-0.066
4.197,-0.088
4.198,-0.095
4.199,-0.116
4.200,-0.121
4.201,-0.113
4.202,-0.089
4.203,-0.063
4.204,-0.063
4.205,-0.056
4.206,-0.059
4.207,-0.072
4.208,-0.063
4.209,-0.047
4.210,-0.030
4.211,-0.013
4.212,-0.016
4.213,-0.013
4.214,-0.023
4.215,-0.038
4.216,-0.056
4.217,-0.075
4.218,-0.044
4.219,-0.025
4.220,-0.043
4.221,-0.038
4.222,-0.073
4.223,-0.091
4.224,-0.104
4.225,-0.125
4.226,-0.103
4.227,-0.084
4.228,-0.077
4.229,-0.063
4.230,-0.094
4.231,-0.106
4.232,-0.108
4.233,-0.125
4.234,-0.121
4.235,-0.097
4.236,-0.099
4.237,-0.088
4.238,-0.098
4.239,-0.106
4.240,-0.120
4.241,-0.144
4.242,-0.143
4.243,-0.138
4.244,-0.138
4.245,-0.122
4.246,-0.126
4.247,-0.141
4.248,-0.145
4.249,-0.166
4.250,-0.161
4.251,-0.144
4.252,-0.131
4.253,-0.116
4.254,-0.120
4.255,-0.128
4.256,-0.142
4.257,-0.166
4.258,-0.173
4.259,-0.175
4.260,-0.156
4.261,-0.141
4.262,-0.142
4.263,-0.134
4.264,-0.161
4.265,-0.166
4.266,-0.175
4.267,-0.181
4.268,-0.161
4.269,-0.141
4.270,-0.134
4.271,-0.125
4.272,-0.154
4.273,-0.156
4.274,-0.170
4.275,-0.191
4.276,-0.169
4.277,-0.150
4.278,-0.146
4.279,-0.131
4.280,-0.148
4.281,-0.163
4.282,-0.156
4.283,-0.175
4.284,-0.159
4.285,-0.138
4.286,-0.136
4.287,-0.125
4.288,-0.122
4.289,-0.141
4.290,-0.147
4.291,-0.175
4.292,-0.163
4.293,-0.153
4.294,-0.146
4.295,-0.134
4.296,-0.129
4.297,-0.141
4.298,-0.148
4.299,-0.169
4.300,-0.166
4.301,-0.150
4.302,-0.139
4.303,-0.116
4.304,-0.125
4.305,-0.128
4.306,-0.141
4.307,-0.166
4.308,-0.169
4.309,-0.169
4.310,-0.156
4.311,-0.138
4.312,-0.138
4.313,-0.131
4.314,-0.164
4.315,-0.172
4.316,-0.184
4.317,-0.203
4.318,-0.188
4.319,-0.172
4.320,-0.178
4.321,-0.181
4.322,-0.223
4.323,-0.241
4.324,-0.242
4.325,-0.253
4.326,-0.233
4.327,-0.200
4.328,-0.177
4.329,-0.147
4.330,-0.145
4.331,-0.141
4.332,-0.111
4.333,-0.088
4.334,-0.025
4.335,0.072
4.336,0.156
4.337,0.250
4.338,0.334
4.339,0.419
4.340,0.517
4.341,0.622
4.342,0.748
4.343,0.916
4.344,1.076
4.345,1.206
4.346,1.309
4.347,1.400
4.348,1.497
4.349,1.581
4.350,1.679
4.351,1.784
4.352,1.889
4.353,1.981
4.354,2.025
4.355,2.034
4.356,2.002
4.357,1.912
4.358,1.802
4.359,1.672
4.360,1.544
4.361,1.406
4.362,1.257
4.363,1.100
4.364,0.912
4.365,0.728
4.366,0.553
4.367,0.381
4.368,0.279
4.369,0.209
4.370,0.150
4.371,0.112
4.372,0.059
4.373,0.044
4.374,0.017
4.375,-0.013
4.376,0.001
4.377,0.006
4.378,-0.009
4.379,-0.003
4.380,-0.036
4.381,-0.044
4.382,-0.053
4.383,-0.069
4.384,-0.061
4.385,-0.041
4.386,-0.043
4.387,-0.044
4.388,-0.059
4.389,-0.072
4.390,-0.083
4.391,-0.109
4.392,-0.113
4.393,-0.094
4.394,-0.100
4.395,-0.097
4.396,-0.094
4.397,-0.109
4.398,-0.104
4.399,-0.125
4.400,-0.128
4.401,-0.113
4.402,-0.102
4.403,-0.081
4.404,-0.083
4.405,-0.097
4.406,-0.116
4.407,-0.131
4.408,-0.136
4.409,-0.138
4.410,-0.118
4.411,-0.100
4.412,-0.100
4.413,-0.094
4.414,-0.126
4.415,-0.131
4.416,-0.133
4.417,-0.138
4.418,-0.109
4.419,-0.088
4.420,-0.091
4.421,-0.081
4.422,-0.119
4.423,-0.125
4.424,-0.133
4.425,-0.150
4.426,-0.127
4.427,-0.109
4.428,-0.106
4.429,-0.094
4.430,-0.113
4.431,-0.122
4.432,-0.120
4.433,-0.138
4.434,-0.116
4.435,-0.088
4.436,-0.089
4.437,-0.075
4.438,-0.086
4.439,-0.106
4.440,-0.108
4.441,-0.131
4.442,-0.134
4.443,-0.116
4.444,-0.114
4.445,-0.100
4.446,-0.101
4.447,-0.119
4.448,-0.113
4.449,-0.128
4.450,-0.127
4.451,-0.113
4.452,-0.099
4.453,-0.078
4.454,-0.079
4.455,-0.088
4.456,-0.100
4.457,-0.122
4.458,-0.125
4.459,-0.119
4.460,-0.102
4.461,-0.084
4.462,-0.084
4.463,-0.078
4.464,-0.113
4.465,-0.119
4.466,-0.117
4.467,-0.122
4.468,-0.094
4.469,-0.072
4.470,-0.071
4.471,-0.066
4.472,-0.092
4.473,-0.097
4.474,-0.111
4.475,-0.131
4.476,-0.106
4.477,-0.091
4.478,-0.086
4.479,-0.075
4.480,-0.089
4.481,-0.097
4.482,-0.094
4.483,-0.113
4.484,-0.099
4.485,-0.075
4.486,-0.072
4.487,-0.059
4.488,-0.066
4.489,-0.078
4.490,-0.089
4.491,-0.113
4.492,-0.102
4.493,-0.088
4.494,-0.088
4.495,-0.069
4.496,-0.066
4.497,-0.084
4.498,-0.091
4.499,-0.094
4.500,-0.088
4.501,-0.078
4.502,-0.063
4.503,-0.044
4.504,-0.042
4.505,-0.050
4.506,-0.069
4.507,-0.094
4.508,-0.099
4.509,-0.097
4.510,-0.069
4.511,-0.053
4.512,-0.048
4.513,-0.044
4.514,-0.066
4.515,-0.069
4.516,-0.070
4.517,-0.078
4.518,-0.049
4.519,-0.025
4.520,-0.030
4.521,-0.022
4.522,-0.045
4.523,-0.059
4.524,-0.067
4.525,-0.081
4.526,-0.053
4.527,-0.031
4.528,-0.033
4.529,-0.019
4.530,-0.034
4.531,-0.044
4.532,-0.038
4.533,-0.050
4.534,-0.043
4.535,-0.009
4.536,-0.002
4.537,0.012
4.538,0.002
4.539,-0.013
4.540,-0.017
4.541,-0.041
4.542,-0.034
4.543,-0.013
4.544,-0.003
4.545,0.016
4.546,0.022
4.547,0.009
4.548,0.006
4.549,-0.003
4.550,0.001
4.551,0.016
4.552,0.031
4.553,0.053
4.554,0.052
4.555,0.050
4.556,0.041
4.557,0.025
4.558,0.022
4.559,0.025
4.560,0.045
4.561,0.066
4.562,0.069
4.563,0.075
4.564,0.052
4.565,0.053
4.566,0.058
4.567,0.053
4.568,0.081
4.569,0.106
4.570,0.106
4.571,0.119
4.572,0.099
4.573,0.094
4.574,0.084
4.575,0.069
4.576,0.100
4.577,0.119
4.578,0.128
4.579,0.144
4.580,0.127
4.581,0.119
4.582,0.119
4.583,0.106
4.584,0.128
4.585,0.156
4.586,0.157
4.587,0.166
4.588,0.168
4.589,0.153
4.590,0.156
4.591,0.141
4.592,0.154
4.593,0.169
4.594,0.172
4.595,0.191
4.596,0.194
4.597,0.184
4.598,0.184
4.599,0.172
4.600,0.170
4.601,0.191
4.602,0.207
4.603,0.231
4.604,0.225
4.605,0.225
4.606,0.219
4.607,0.200
4.608,0.196
4.609,0.197
4.610,0.222
4.611,0.241
4.612,0.244
4.613,0.250
4.614,0.216
4.615,0.212
4.616,0.206
4.617,0.197
4.618,0.219
4.619,0.234
4.620,0.231
4.621,0.234
4.622,0.200
4.623,0.187
4.624,0.171
4.625,0.144
4.626,0.156
4.627,0.169
4.628,0.172
4.629,0.175
4.630,0.144
4.631,0.125
4.632,0.119
4.633,0.091
4.634,0.091
4.635,0.106
4.636,0.101
4.637,0.109
4.638,0.096
4.639,0.075
4.640,0.062
4.641,0.034
4.642,0.037
4.643,0.047
4.644,0.042
4.645,0.047
4.646,0.039
4.647,0.016
4.648,0.003
4.649,-0.022
4.650,-0.030
4.651,-0.022
4.652,-0.018
4.653,-0.006
4.654,-0.008
4.655,-0.019
4.656,-0.038
4.657,-0.063
4.658,-0.064
4.659,-0.063
4.660,-0.056
4.661,-0.047
4.662,-0.048
4.663,-0.050
4.664,-0.083
4.665,-0.088
4.666,-0.101
4.667,-0.116
4.668,-0.088
4.669,-0.069
4.670,-0.075
4.671,-0.069
4.672,-0.094
4.673,-0.103
4.674,-0.113
4.675,-0.131
4.676,-0.106
4.677,-0.088
4.678,-0.088
4.679,-0.081
4.680,-0.094
4.681,-0.103
4.682,-0.108
4.683,-0.125
4.684,-0.100
4.685,-0.084
4.686,-0.084
4.687,-0.078
4.688,-0.083
4.689,-0.100
4.690,-0.109
4.691,-0.138
4.692,-0.127
4.693,-0.103
4.694,-0.102
4.695,-0.084
4.696,-0.086
4.697,-0.106
4.698,-0.109
4.699,-0.125
4.700,-0.128
4.701,-0.109
4.702,-0.097
4.703,-0.078
4.704,-0.081
4.705,-0.088
4.706,-0.101
4.707,-0.122
4.708,-0.125
4.709,-0.125
4.710,-0.116
4.711,-0.097
4.712,-0.086
4.713,-0.084
4.714,-0.108
4.715,-0.109
4.716,-0.117
4.717,-0.122
4.718,-0.088
4.719,-0.066
4.720,-0.075
4.721,-0.069
4.722,-0.095
4.723,-0.106
4.724,-0.113
4.725,-0.125
4.726,-0.105
4.727,-0.088
4.728,-0.083
4.729,-0.072
4.730,-0.088
4.731,-0.103
4.732,-0.103
4.733,-0.122
4.734,-0.106
4.735,-0.081
4.736,-0.077
4.737,-0.069
4.738,-0.075
4.739,-0.084
4.740,-0.091
4.741,-0.116
4.742,-0.106
4.743,-0.091
4.744,-0.084
4.745,-0.072
4.746,-0.072
4.747,-0.084
4.748,-0.091
4.749,-0.103
4.750,-0.111
4.751,-0.100
4.752,-0.084
4.753,-0.063
4.754,-0.066
4.755,-0.075
4.756,-0.084
4.757,-0.109
4.758,-0.109
4.759,-0.106
4.760,-0.093
4.761,-0.075
4.762,-0.069
4.763,-0.066
4.764,-0.092
4.765,-0.094
4.766,-0.100
4.767,-0.113
4.768,-0.078
4.769,-0.056
4.770,-0.061
4.771,-0.056
4.772,-0.081
4.773,-0.094
4.774,-0.104
4.775,-0.119
4.776,-0.093
4.777,-0.075
4.778,-0.071
4.779,-0.066
4.780,-0.083
4.781,-0.100
4.782,-0.100
4.783,-0.116
4.784,-0.100
4.785,-0.075
4.786,-0.078
4.787,-0.069
4.788,-0.081
4.789,-0.097
4.790,-0.104
4.791,-0.131
4.792,-0.127
4.793,-0.113
4.794,-0.106
4.795,-0.091
4.796,-0.089
4.797,-0.106
4.798,-0.111
4.799,-0.128
4.800,-0.127
4.801,-0.109
4.802,-0.097
4.803,-0.078
4.804,-0.086
4.805,-0.097
4.806,-0.101
4.807,-0.119
4.808,-0.122
4.809,-0.119
4.810,-0.118
4.811,-0.100
4.812,-0.095
4.813,-0.091
4.814,-0.122
4.815,-0.128
4.816,-0.134
4.817,-0.144
4.818,-0.109
4.819,-0.084
4.820,-0.092
4.821,-0.088
4.822,-0.116
4.823,-0.119
4.824,-0.128
4.825,-0.141
4.826,-0.128
4.827,-0.113
4.828,-0.114
4.829,-0.109
4.830,-0.129
4.831,-0.134
4.832,-0.129
4.833,-0.147
4.834,-0.134
4.835,-0.116
4.836,-0.108
4.837,-0.097
4.838,-0.108
4.839,-0.122
4.840,-0.138
4.841,-0.163
4.842,-0.141
4.843,-0.131
4.844,-0.116
4.845,-0.097
4.846,-0.109
4.847,-0.116
4.848,-0.129
4.849,-0.153
4.850,-0.148
4.851,-0.134
4.852,-0.106
4.853,-0.091
4.854,-0.088
4.855,-0.103
4.856,-0.128
4.857,-0.144
4.858,-0.153
4.859,-0.144
4.860,-0.128
4.861,-0.116
4.862,-0.105
4.863,-0.109
4.864,-0.126
4.865,-0.138
4.866,-0.161
4.867,-0.159
4.868,-0.128
4.869,-0.109
4.870,-0.096
4.871,-0.100
4.872,-0.119
4.873,-0.128
4.874,-0.151
4.875,-0.169
4.876,-0.139
4.877,-0.125
4.878,-0.111
4.879,-0.109
4.880,-0.131
4.881,-0.138
4.882,-0.147
4.883,-0.169
4.884,-0.133
4.885,-0.116
4.886,-0.102
4.887,-0.088
4.888,-0.103
4.889,-0.116
4.890,-0.126
4.891,-0.153
4.892,-0.130
4.893,-0.119
4.894,-0.106
4.895,-0.088
4.896,-0.098
4.897,-0.106
4.898,-0.122
4.899,-0.150
4.900,-0.143
4.901,-0.134
4.902,-0.106
4.903,-0.081
4.904,-0.077
4.905,-0.081
4.906,-0.101
4.907,-0.109
4.908,-0.108
4.909,-0.103
4.910,-0.080
4.911,-0.059
4.912,-0.046
4.913,-0.056
4.914,-0.088
4.915,-0.100
4.916,-0.136
4.917,-0.134
4.918,-0.096
4.919,-0.075
4.920,-0.069
4.921,-0.072
4.922,-0.092
4.923,-0.103
4.924,-0.113
4.925,-0.119
4.926,-0.097
4.927,-0.066
4.928,-0.033
4.929,-0.025
4.930,-0.042
4.931,-0.047
4.932,-0.056
4.933,-0.075
4.934,-0.050
4.935,-0.031
4.936,-0.028
4.937,-0.022
4.938,-0.044
4.939,-0.069
4.940,-0.092
4.941,-0.128
4.942,-0.111
4.943,-0.106
4.944,-0.102
4.945,-0.084
4.946,-0.088
4.947,-0.094
4.948,-0.104
4.949,-0.138
4.950,-0.144
4.951,-0.134
4.952,-0.103
4.953,-0.091
4.954,-0.088
4.955,-0.100
4.956,-0.128
4.957,-0.150
4.958,-0.148
4.959,-0.147
4.960,-0.130
4.961,-0.119
4.962,-0.124
4.963,-0.138
4.964,-0.153
4.965,-0.169
4.966,-0.188
4.967,-0.181
4.968,-0.155
4.969,-0.128
4.970,-0.111
4.971,-0.122
4.972,-0.151
4.973,-0.166
4.974,-0.183
4.975,-0.191
4.976,-0.171
4.977,-0.156
4.978,-0.146
4.979,-0.144
4.980,-0.167
4.981,-0.175
4.982,-0.178
4.983,-0.200
4.984,-0.171
4.985,-0.159
4.986,-0.147
4.987,-0.141
4.988,-0.156
4.989,-0.166
4.990,-0.179
4.991,-0.206
4.992,-0.180
4.993,-0.172
4.994,-0.163
4.995,-0.150
4.996,-0.158
4.997,-0.163
4.998,-0.170
4.999,-0.188
5.000,-0.189
5.001,-0.169
5.002,-0.146
5.003,-0.128
5.004,-0.128
5.005,-0.134
5.006,-0.161
5.007,-0.172
5.008,-0.184
5.009,-0.175
5.010,-0.158
5.011,-0.134
5.012,-0.131
5.013,-0.134
5.014,-0.161
5.015,-0.169
5.016,-0.183
5.017,-0.178
5.018,-0.152
5.019,-0.134
5.020,-0.121
5.021,-0.128
5.022,-0.145
5.023,-0.159
5.024,-0.178
5.025,-0.191
5.026,-0.169
5.027,-0.153
5.028,-0.146
5.029,-0.147
5.030,-0.166
5.031,-0.175
5.032,-0.179
5.033,-0.206
5.034,-0.181
5.035,-0.172
5.036,-0.168
5.037,-0.169
5.038,-0.195
5.039,-0.213
5.040,-0.236
5.041,-0.278
5.042,-0.276
5.043,-0.269
5.044,-0.247
5.045,-0.234
5.046,-0.239
5.047,-0.225
5.048,-0.214
5.049,-0.206
5.050,-0.184
5.051,-0.144
5.052,-0.081
5.053,-0.016
5.054,0.053
5.055,0.112
5.056,0.174
5.057,0.253
5.058,0.341
5.059,0.450
5.060,0.597
5.061,0.741
5.062,0.897
5.063,1.037
5.064,1.141
5.065,1.234
5.066,1.322
5.067,1.422
5.068,1.547
5.069,1.675
5.070,1.791
5.071,1.884
5.072,1.950
5.073,2.012
5.074,2.028
5.075,2.028
5.076,2.000
5.077,1.919
5.078,1.817
5.079,1.678
5.080,1.512
5.081,1.337
5.082,1.166
5.083,0.997
5.084,0.826
5.085,0.669
5.086,0.506
5.087,0.359
5.088,0.241
5.089,0.141
5.090,0.064
5.091,0.009
5.092,0.012
5.093,0.009
5.094,0.006
5.095,0.012
5.096,-0.003
5.097,-0.022
5.098,-0.042
5.099,-0.075
5.100,-0.059
5.101,-0.056
5.102,-0.041
5.103,-0.028
5.104,-0.025
5.105,-0.041
5.106,-0.081
5.107,-0.106
5.108,-0.111
5.109,-0.116
5.110,-0.108
5.111,-0.100
5.112,-0.083
5.113,-0.094
5.114,-0.116
5.115,-0.119
5.116,-0.141
5.117,-0.131
5.118,-0.109
5.119,-0.094
5.120,-0.077
5.121,-0.084
5.122,-0.109
5.123,-0.122
5.124,-0.145
5.125,-0.159
5.126,-0.134
5.127,-0.122
5.128,-0.111
5.129,-0.103
5.130,-0.122
5.131,-0.125
5.132,-0.129
5.133,-0.156
5.134,-0.122
5.135,-0.106
5.136,-0.096
5.137,-0.081
5.138,-0.098
5.139,-0.116
5.140,-0.133
5.141,-0.169
5.142,-0.146
5.143,-0.138
5.144,-0.125
5.145,-0.109
5.146,-0.120
5.147,-0.125
5.148,-0.131
5.149,-0.144
5.150,-0.136
5.151,-0.122
5.152,-0.100
5.153,-0.081
5.154,-0.081
5.155,-0.094
5.156,-0.114
5.157,-0.134
5.158,-0.148
5.159,-0.138
5.160,-0.116
5.161,-0.103
5.162,-0.088
5.163,-0.097
5.164,-0.116
5.165,-0.122
5.166,-0.141
5.167,-0.128
5.168,-0.102
5.169,-0.084
5.170,-0.072
5.171,-0.078
5.172,-0.100
5.173,-0.113
5.174,-0.136
5.175,-0.144
5.176,-0.121
5.177,-0.106
5.178,-0.084
5.179,-0.075
5.180,-0.097
5.181,-0.103
5.182,-0.109
5.183,-0.138
5.184,-0.105
5.185,-0.088
5.186,-0.075
5.187,-0.063
5.188,-0.078
5.189,-0.084
5.190,-0.103
5.191,-0.131
5.192,-0.113
5.193,-0.109
5.194,-0.099
5.195,-0.078
5.196,-0.086
5.197,-0.091
5.198,-0.101
5.199,-0.116
5.200,-0.111
5.201,-0.094
5.202,-0.072
5.203,-0.056
5.204,-0.053
5.205,-0.059
5.206,-0.086
5.207,-0.106
5.208,-0.111
5.209,-0.106
5.210,-0.088
5.211,-0.069
5.212,-0.064
5.213,-0.072
5.214,-0.081
5.215,-0.084
5.216,-0.103
5.217,-0.100
5.218,-0.063
5.219,-0.047
5.220,-0.043
5.221,-0.044
5.222,-0.070
5.223,-0.081
5.224,-0.097
5.225,-0.103
5.226,-0.078
5.227,-0.063
5.228,-0.055
5.229,-0.047
5.230,-0.069
5.231,-0.069
5.232,-0.075
5.233,-0.094
5.234,-0.061
5.235,-0.041
5.236,-0.030
5.237,-0.016
5.238,-0.028
5.239,-0.041
5.240,-0.059
5.241,-0.084
5.242,-0.071
5.243,-0.063
5.244,-0.046
5.245,-0.022
5.246,-0.024
5.247,-0.028
5.248,-0.034
5.249,-0.050
5.250,-0.053
5.251,-0.041
5.252,-0.011
5.253,0.000
5.254,0.012
5.255,0.006
5.256,-0.022
5.257,-0.041
5.258,-0.045
5.259,-0.038
5.260,-0.016
5.261,0.003
5.262,0.022
5.263,0.022
5.264,0.003
5.265,0.000
5.266,-0.016
5.267,-0.013
5.268,0.022
5.269,0.044
5.270,0.057
5.271,0.056
5.272,0.037
5.273,0.028
5.274,0.014
5.275,0.006
5.276,0.034
5.277,0.056
5.278,0.075
5.279,0.081
5.280,0.061
5.281,0.056
5.282,0.055
5.283,0.037
5.284,0.073
5.285,0.094
5.286,0.106
5.287,0.122
5.288,0.105
5.289,0.091
5.290,0.086
5.291,0.066
5.292,0.086
5.293,0.100
5.294,0.116
5.295,0.137
5.296,0.130
5.297,0.131
5.298,0.124
5.299,0.106
5.300,0.112
5.301,0.125
5.302,0.156
5.303,0.181
5.304,0.187
5.305,0.181
5.306,0.147
5.307,0.131
5.308,0.125
5.309,0.137
5.310,0.164
5.311,0.191
5.312,0.197
5.313,0.194
5.314,0.183
5.315,0.178
5.316,0.166
5.317,0.172
5.318,0.201
5.319,0.219
5.320,0.239
5.321,0.234
5.322,0.219
5.323,0.206
5.324,0.191
5.325,0.184
5.326,0.203
5.327,0.216
5.328,0.232
5.329,0.244
5.330,0.224
5.331,0.219
5.332,0.216
5.333,0.191
5.334,0.223
5.335,0.234
5.336,0.242
5.337,0.250
5.338,0.228
5.339,0.212
5.340,0.191
5.341,0.156
5.342,0.172
5.343,0.178
5.344,0.189
5.345,0.197
5.346,0.175
5.347,0.162
5.348,0.146
5.349,0.116
5.350,0.111
5.351,0.122
5.352,0.142
5.353,0.150
5.354,0.144
5.355,0.125
5.356,0.094
5.357,0.066
5.358,0.050
5.359,0.050
5.360,0.066
5.361,0.075
5.362,0.075
5.363,0.066
5.364,0.036
5.365,0.022
5.366,-0.004
5.367,-0.013
5.368,0.009
5.369,0.019
5.370,0.028
5.371,0.016
5.372,-0.014
5.373,-0.025
5.374,-0.048
5.375,-0.059
5.376,-0.041
5.377,-0.031
5.378,-0.027
5.379,-0.028
5.380,-0.048
5.381,-0.056
5.382,-0.069
5.383,-0.097
5.384,-0.061
5.385,-0.047
5.386,-0.039
5.387,-0.028
5.388,-0.050
5.389,-0.066
5.390,-0.079
5.391,-0.106
5.392,-0.093
5.393,-0.084
5.394,-0.072
5.395,-0.056
5.396,-0.070
5.397,-0.078
5.398,-0.091
5.399,-0.106
5.400,-0.103
5.401,-0.094
5.402,-0.075
5.403,-0.050
5.404,-0.053
5.405,-0.063
5.406,-0.095
5.407,-0.113
5.408,-0.123
5.409,-0.116
5.410,-0.091
5.411,-0.072
5.412,-0.066
5.413,-0.075
5.414,-0.091
5.415,-0.100
5.416,-0.119
5.417,-0.113
5.418,-0.084
5.419,-0.069
5.420,-0.050
5.421,-0.059
5.422,-0.084
5.423,-0.097
5.424,-0.117
5.425,-0.125
5.426,-0.100
5.427,-0.088
5.428,-0.077
5.429,-0.072
5.430,-0.089
5.431,-0.097
5.432,-0.111
5.433,-0.131
5.434,-0.094
5.435,-0.075
5.436,-0.063
5.437,-0.047
5.438,-0.063
5.439,-0.078
5.440,-0.095
5.441,-0.119
5.442,-0.097
5.443,-0.088
5.444,-0.074
5.445,-0.063
5.446,-0.076
5.447,-0.081
5.448,-0.088
5.449,-0.100
5.450,-0.100
5.451,-0.088
5.452,-0.072
5.453,-0.053
5.454,-0.043
5.455,-0.047
5.456,-0.079
5.457,-0.100
5.458,-0.109
5.459,-0.106
5.460,-0.084
5.461,-0.069
5.462,-0.068
5.463,-0.069
5.464,-0.083
5.465,-0.091
5.466,-0.108
5.467,-0.106
5.468,-0.074
5.469,-0.056
5.470,-0.041
5.471,-0.047
5.472,-0.069
5.473,-0.081
5.474,-0.106
5.475,-0.113
5.476,-0.091
5.477,-0.072
5.478,-0.058
5.479,-0.053
5.480,-0.075
5.481,-0.081
5.482,-0.086
5.483,-0.106
5.484,-0.078
5.485,-0.066
5.486,-0.056
5.487,-0.038
5.488,-0.059
5.489,-0.075
5.490,-0.092
5.491,-0.119
5.492,-0.099
5.493,-0.088
5.494,-0.074
5.495,-0.056
5.496,-0.070
5.497,-0.075
5.498,-0.089
5.499,-0.100
5.500,-0.100
5.501,-0.091
5.502,-0.066
5.503,-0.047
5.504,-0.048
5.505,-0.063
5.506,-0.091
5.507,-0.113
5.508,-0.116
5.509,-0.109
5.510,-0.089
5.511,-0.072
5.512,-0.069
5.513,-0.075
5.514,-0.089
5.515,-0.094
5.516,-0.113
5.517,-0.106
5.518,-0.081
5.519,-0.066
5.520,-0.049
5.521,-0.056
5.522,-0.081
5.523,-0.094
5.524,-0.114
5.525,-0.122
5.526,-0.100
5.527,-0.081
5.528,-0.064
5.529,-0.069
5.530,-0.088
5.531,-0.097
5.532,-0.104
5.533,-0.128
5.534,-0.096
5.535,-0.078
5.536,-0.071
5.537,-0.059
5.538,-0.079
5.539,-0.097
5.540,-0.114
5.541,-0.144
5.542,-0.116
5.543,-0.106
5.544,-0.088
5.545,-0.075
5.546,-0.086
5.547,-0.094
5.548,-0.108
5.549,-0.131
5.550,-0.125
5.551,-0.113
5.552,-0.097
5.553,-0.081
5.554,-0.077
5.555,-0.081
5.556,-0.114
5.557,-0.134
5.558,-0.128
5.559,-0.128
5.560,-0.113
5.561,-0.094
5.562,-0.094
5.563,-0.097
5.564,-0.104
5.565,-0.122
5.566,-0.116
5.567,-0.122
5.568,-0.102
5.569,-0.078
5.570,-0.086
5.571,-0.088
5.572,-0.100
5.573,-0.122
5.574,-0.136
5.575,-0.141
5.576,-0.118
5.577,-0.106
5.578,-0.088
5.579,-0.088
5.580,-0.106
5.581,-0.116
5.582,-0.138
5.583,-0.141
5.584,-0.122
5.585,-0.106
5.586,-0.086
5.587,-0.081
5.588,-0.094
5.589,-0.100
5.590,-0.138
5.591,-0.150
5.592,-0.131
5.593,-0.125
5.594,-0.100
5.595,-0.094
5.596,-0.104
5.597,-0.106
5.598,-0.126
5.599,-0.141
5.600,-0.124
5.601,-0.122
5.602,-0.093
5.603,-0.075
5.604,-0.094
5.605,-0.097
5.606,-0.116
5.607,-0.147
5.608,-0.131
5.609,-0.134
5.610,-0.109
5.611,-0.084
5.612,-0.091
5.613,-0.094
5.614,-0.098
5.615,-0.119
5.616,-0.108
5.617,-0.109
5.618,-0.086
5.619,-0.056
5.620,-0.061
5.621,-0.063
5.622,-0.079
5.623,-0.109
5.624,-0.114
5.625,-0.119
5.626,-0.094
5.627,-0.072
5.628,-0.056
5.629,-0.050
5.630,-0.059
5.631,-0.056
5.632,-0.063
5.633,-0.066
5.634,-0.049
5.635,-0.034
5.636,-0.013
5.637,-0.016
5.638,-0.047
5.639,-0.059
5.640,-0.109
5.641,-0.122
5.642,-0.097
5.643,-0.091
5.644,-0.068
5.645,-0.053
5.646,-0.063
5.647,-0.063
5.648,-0.069
5.649,-0.072
5.650,-0.070
5.651,-0.059
5.652,-0.013
5.653,0.009
5.654,-0.003
5.655,-0.003
5.656,-0.020
5.657,-0.047
5.658,-0.051
5.659,-0.063
5.660,-0.049
5.661,-0.031
5.662,-0.046
5.663,-0.063
5.664,-0.076
5.665,-0.103
5.666,-0.094
5.667,-0.097
5.668,-0.078
5.669,-0.047
5.670,-0.048
5.671,-0.053
5.672,-0.067
5.673,-0.103
5.674,-0.123
5.675,-0.128
5.676,-0.100
5.677,-0.091
5.678,-0.075
5.679,-0.075
5.680,-0.094
5.681,-0.106
5.682,-0.120
5.683,-0.134
5.684,-0.119
5.685,-0.109
5.686,-0.102
5.687,-0.103
5.688,-0.113
5.689,-0.122
5.690,-0.154
5.691,-0.163
5.692,-0.150
5.693,-0.138
5.694,-0.106
5.695,-0.103
5.696,-0.123
5.697,-0.128
5.698,-0.151
5.699,-0.166
5.700,-0.156
5.701,-0.153
5.702,-0.127
5.703,-0.109
5.704,-0.129
5.705,-0.134
5.706,-0.148
5.707,-0.181
5.708,-0.170
5.709,-0.178
5.710,-0.147
5.711,-0.122
5.712,-0.131
5.713,-0.134
5.714,-0.148
5.715,-0.175
5.716,-0.164
5.717,-0.172
5.718,-0.149
5.719,-0.122
5.720,-0.127
5.721,-0.128
5.722,-0.141
5.723,-0.163
5.724,-0.183
5.725,-0.181
5.726,-0.159
5.727,-0.144
5.728,-0.131
5.729,-0.125
5.730,-0.141
5.731,-0.141
5.732,-0.166
5.733,-0.169
5.734,-0.152
5.735,-0.128
5.736,-0.118
5.737,-0.113
5.738,-0.134
5.739,-0.138
5.740,-0.167
5.741,-0.178
5.742,-0.164
5.743,-0.159
5.744,-0.127
5.745,-0.116
5.746,-0.123
5.747,-0.128
5.748,-0.147
5.749,-0.159
5.750,-0.153
5.751,-0.153
5.752,-0.130
5.753,-0.116
5.754,-0.131
5.755,-0.138
5.756,-0.158
5.757,-0.200
5.758,-0.189
5.759,-0.194
5.760,-0.172
5.761,-0.156
5.762,-0.171
5.763,-0.175
5.764,-0.191
5.765,-0.225
5.766,-0.234
5.767,-0.238
5.768,-0.200
5.769,-0.172
5.770,-0.164
5.771,-0.138
5.772,-0.129
5.773,-0.125
5.774,-0.111
5.775,-0.078
5.776,0.000
5.777,0.081
5.778,0.175
5.779,0.259
5.780,0.328
5.781,0.416
5.782,0.502
5.783,0.609
5.784,0.759
5.785,0.906
5.786,1.072
5.787,1.222
5.788,1.331
5.789,1.431
5.790,1.502
5.791,1.584
5.792,1.674
5.793,1.766
5.794,1.879
5.795,1.972
5.796,2.044
5.797,2.112
5.798,2.117
5.799,2.106
5.800,2.067
5.801,1.975
5.802,1.867
5.803,1.722
5.804,1.547
5.805,1.362
5.806,1.174
5.807,0.988
5.808,0.816
5.809,0.656
5.810,0.520
5.811,0.400
5.812,0.292
5.813,0.203
5.814,0.117
5.815,0.053
5.816,0.031
5.817,0.003
5.818,0.011
5.819,0.028
5.820,0.016
5.821,0.000
5.822,-0.022
5.823,-0.056
5.824,-0.061
5.825,-0.078
5.826,-0.063
5.827,-0.050
5.828,-0.036
5.829,-0.041
5.830,-0.070
5.831,-0.084
5.832,-0.100
5.833,-0.116
5.834,-0.103
5.835,-0.091
5.836,-0.064
5.837,-0.066
5.838,-0.088
5.839,-0.091
5.840,-0.125
5.841,-0.128
5.842,-0.114
5.843,-0.106
5.844,-0.077
5.845,-0.072
5.846,-0.091
5.847,-0.097
5.848,-0.125
5.849,-0.144
5.850,-0.133
5.851,-0.134
5.852,-0.108
5.853,-0.084
5.854,-0.100
5.855,-0.100
5.856,-0.111
5.857,-0.144
5.858,-0.125
5.859,-0.125
5.860,-0.108
5.861,-0.088
5.862,-0.094
5.863,-0.100
5.864,-0.111
5.865,-0.141
5.866,-0.131
5.867,-0.138
5.868,-0.113
5.869,-0.084
5.870,-0.093
5.871,-0.094
5.872,-0.104
5.873,-0.122
5.874,-0.129
5.875,-0.131
5.876,-0.109
5.877,-0.091
5.878,-0.078
5.879,-0.078
5.880,-0.095
5.881,-0.113
5.882,-0.139
5.883,-0.141
5.884,-0.119
5.885,-0.106
5.886,-0.077
5.887,-0.072
5.888,-0.088
5.889,-0.091
5.890,-0.123
5.891,-0.125
5.892,-0.108
5.893,-0.100
5.894,-0.075
5.895,-0.069
5.896,-0.083
5.897,-0.088
5.898,-0.116
5.899,-0.128
5.900,-0.116
5.901,-0.113
5.902,-0.081
5.903,-0.063
5.904,-0.076
5.905,-0.075
5.906,-0.086
5.907,-0.119
5.908,-0.106
5.909,-0.109
5.910,-0.088
5.911,-0.066
5.912,-0.076
5.913,-0.078
5.914,-0.092
5.915,-0.116
5.916,-0.106
5.917,-0.113
5.918,-0.093
5.919,-0.063
5.920,-0.061
5.921,-0.056
5.922,-0.067
5.923,-0.081
5.924,-0.101
5.925,-0.109
5.926,-0.088
5.927,-0.072
5.928,-0.059
5.929,-0.056
5.930,-0.076
5.931,-0.091
5.932,-0.106
5.933,-0.113
5.934,-0.093
5.935,-0.072
5.936,-0.053
5.937,-0.047
5.938,-0.054
5.939,-0.056
5.940,-0.094
5.941,-0.109
5.942,-0.081
5.943,-0.075
5.944,-0.053
5.945,-0.038
5.946,-0.053
5.947,-0.053
5.948,-0.078
5.949,-0.094
5.950,-0.081
5.951,-0.078
5.952,-0.052
5.953,-0.025
5.954,-0.044
5.955,-0.041
5.956,-0.054
5.957,-0.081
5.958,-0.069
5.959,-0.069
5.960,-0.047
5.961,-0.022
5.962,-0.024
5.963,-0.025
5.964,-0.042
5.965,-0.066
5.966,-0.064
5.967,-0.069
5.968,-0.047
5.969,-0.019
5.970,-0.016
5.971,-0.016
5.972,-0.023
5.973,-0.041
5.974,-0.059
5.975,-0.063
5.976,-0.030
5.977,-0.016
5.978,0.003
5.979,0.003
5.980,-0.017
5.981,-0.028
5.982,-0.044
5.983,-0.047
5.984,-0.022
5.985,0.000
5.986,0.025
5.987,0.031
5.988,0.017
5.989,0.019
5.990,-0.009
5.991,-0.019
5.992,0.004
5.993,0.016
5.994,0.042
5.995,0.053
5.996,0.042
5.997,0.041
5.998,0.022
5.999,0.009
6.000,0.025
6.001,0.034
6.002,0.069
6.003,0.091
6.004,0.078
6.005,0.081
6.006,0.075
6.007,0.053
6.008,0.069
6.009,0.069
6.010,0.089
6.011,0.112
6.012,0.108
6.013,0.106
6.014,0.103
6.015,0.084
6.016,0.087
6.017,0.084
6.018,0.114
6.019,0.150
6.020,0.148
6.021,0.156
6.022,0.149
6.023,0.131
6.024,0.119
6.025,0.112
6.026,0.144
6.027,0.169
6.028,0.181
6.029,0.181
6.030,0.162
6.031,0.162
6.032,0.142
6.033,0.141
6.034,0.166
6.035,0.191
6.036,0.207
6.037,0.216
6.038,0.209
6.039,0.209
6.040,0.181
6.041,0.172
6.042,0.194
6.043,0.203
6.044,0.237
6.045,0.247
6.046,0.234
6.047,0.225
6.048,0.209
6.049,0.203
6.050,0.214
6.051,0.219
6.052,0.245
6.053,0.266
6.054,0.250
6.055,0.250
6.056,0.237
6.057,0.203
6.058,0.217
6.059,0.209
6.060,0.228
6.061,0.247
6.062,0.233
6.063,0.225
6.064,0.205
6.065,0.172
6.066,0.169
6.067,0.156
6.068,0.175
6.069,0.191
6.070,0.182
6.071,0.184
6.072,0.169
6.073,0.141
6.074,0.114
6.075,0.103
6.076,0.119
6.077,0.122
6.078,0.126
6.079,0.119
6.080,0.097
6.081,0.078
6.082,0.049
6.083,0.034
6.084,0.050
6.085,0.059
6.086,0.067
6.087,0.066
6.088,0.044
6.089,0.037
6.090,0.000
6.091,-0.019
6.092,-0.008
6.093,-0.009
6.094,0.014
6.095,0.016
6.096,-0.013
6.097,-0.022
6.098,-0.053
6.099,-0.072
6.100,-0.063
6.101,-0.063
6.102,-0.043
6.103,-0.028
6.104,-0.041
6.105,-0.041
6.106,-0.059
6.107,-0.094
6.108,-0.078
6.109,-0.084
6.110,-0.069
6.111,-0.050
6.112,-0.059
6.113,-0.063
6.114,-0.073
6.115,-0.097
6.116,-0.101
6.117,-0.113
6.118,-0.093
6.119,-0.069
6.120,-0.075
6.121,-0.075
6.122,-0.084
6.123,-0.097
6.124,-0.108
6.125,-0.113
6.126,-0.097
6.127,-0.075
6.128,-0.072
6.129,-0.075
6.130,-0.095
6.131,-0.100
6.132,-0.126
6.133,-0.134
6.134,-0.108
6.135,-0.088
6.136,-0.064
6.137,-0.056
6.138,-0.069
6.139,-0.075
6.140,-0.111
6.141,-0.122
6.142,-0.106
6.143,-0.103
6.144,-0.074
6.145,-0.072
6.146,-0.089
6.147,-0.094
6.148,-0.119
6.149,-0.131
6.150,-0.116
6.151,-0.113
6.152,-0.086
6.153,-0.066
6.154,-0.075
6.155,-0.075
6.156,-0.094
6.157,-0.119
6.158,-0.106
6.159,-0.113
6.160,-0.091
6.161,-0.066
6.162,-0.072
6.163,-0.078
6.164,-0.094
6.165,-0.116
6.166,-0.111
6.167,-0.119
6.168,-0.089
6.169,-0.063
6.170,-0.069
6.171,-0.066
6.172,-0.075
6.173,-0.091
6.174,-0.108
6.175,-0.113
6.176,-0.097
6.177,-0.078
6.178,-0.064
6.179,-0.066
6.180,-0.088
6.181,-0.097
6.182,-0.116
6.183,-0.122
6.184,-0.097
6.185,-0.078
6.186,-0.066
6.187,-0.056
6.188,-0.067
6.189,-0.072
6.190,-0.100
6.191,-0.109
6.192,-0.091
6.193,-0.088
6.194,-0.063
6.195,-0.059
6.196,-0.073
6.197,-0.078
6.198,-0.104
6.199,-0.113
6.200,-0.103
6.201,-0.097
6.202,-0.071
6.203,-0.053
6.204,-0.069
6.205,-0.069
6.206,-0.083
6.207,-0.113
6.208,-0.098
6.209,-0.100
6.210,-0.086
6.211,-0.063
6.212,-0.071
6.213,-0.072
6.214,-0.083
6.215,-0.103
6.216,-0.104
6.217,-0.116
6.218,-0.089
6.219,-0.059
6.220,-0.059
6.221,-0.050
6.222,-0.070
6.223,-0.088
6.224,-0.104
6.225,-0.113
6.226,-0.094
6.227,-0.081
6.228,-0.071
6.229,-0.072
6.230,-0.088
6.231,-0.097
6.232,-0.113
6.233,-0.119
6.234,-0.099
6.235,-0.081
6.236,-0.064
6.237,-0.056
6.238,-0.070
6.239,-0.075
6.240,-0.108
6.241,-0.116
6.242,-0.100
6.243,-0.094
6.244,-0.064
6.245,-0.059
6.246,-0.076
6.247,-0.081
6.248,-0.109
6.249,-0.125
6.250,-0.114
6.251,-0.106
6.252,-0.074
6.253,-0.063
6.254,-0.075
6.255,-0.078
6.256,-0.092
6.257,-0.122
6.258,-0.109
6.259,-0.113
6.260,-0.091
6.261,-0.066
6.262,-0.075
6.263,-0.081
6.264,-0.095
6.265,-0.122
6.266,-0.114
6.267,-0.125
6.268,-0.096
6.269,-0.072
6.270,-0.077
6.271,-0.078
6.272,-0.086
6.273,-0.103
6.274,-0.117
6.275,-0.125
6.276,-0.108
6.277,-0.091
6.278,-0.081
6.279,-0.081
6.280,-0.106
6.281,-0.119
6.282,-0.133
6.283,-0.144
6.284,-0.118
6.285,-0.097
6.286,-0.080
6.287,-0.072
6.288,-0.084
6.289,-0.091
6.290,-0.117
6.291,-0.131
6.292,-0.127
6.293,-0.106
6.294,-0.089
6.295,-0.078
6.296,-0.083
6.297,-0.091
6.298,-0.122
6.299,-0.138
6.300,-0.139
6.301,-0.122
6.302,-0.096
6.303,-0.078
6.304,-0.080
6.305,-0.088
6.306,-0.113
6.307,-0.128
6.308,-0.138
6.309,-0.138
6.310,-0.103
6.311,-0.084
6.312,-0.094
6.313,-0.088
6.314,-0.119
6.315,-0.134
6.316,-0.136
6.317,-0.150
6.318,-0.108
6.319,-0.088
6.320,-0.091
6.321,-0.081
6.322,-0.101
6.323,-0.109
6.324,-0.120
6.325,-0.144
6.326,-0.111
6.327,-0.094
6.328,-0.097
6.329,-0.084
6.330,-0.104
6.331,-0.119
6.332,-0.134
6.333,-0.153
6.334,-0.131
6.335,-0.106
6.336,-0.094
6.337,-0.075
6.338,-0.094
6.339,-0.106
6.340,-0.120
6.341,-0.138
6.342,-0.139
6.343,-0.116
6.344,-0.097
6.345,-0.081
6.346,-0.092
6.347,-0.106
6.348,-0.125
6.349,-0.131
6.350,-0.136
6.351,-0.116
6.352,-0.084
6.353,-0.063
6.354,-0.059
6.355,-0.066
6.356,-0.084
6.357,-0.097
6.358,-0.111
6.359,-0.109
6.360,-0.088
6.361,-0.069
6.362,-0.059
6.363,-0.047
6.364,-0.066
6.365,-0.075
6.366,-0.073
6.367,-0.078
6.368,-0.047
6.369,-0.028
6.370,-0.025
6.371,-0.013
6.372,-0.044
6.373,-0.066
6.374,-0.075
6.375,-0.113
6.376,-0.080
6.377,-0.059
6.378,-0.061
6.379,-0.050
6.380,-0.063
6.381,-0.072
6.382,-0.086
6.383,-0.094
6.384,-0.059
6.385,-0.034
6.386,-0.016
6.387,0.009
6.388,0.002
6.389,-0.006
6.390,-0.025
6.391,-0.038
6.392,-0.024
6.393,-0.013
6.394,-0.011
6.395,-0.009
6.396,-0.014
6.397,-0.031
6.398,-0.073
6.399,-0.094
6.400,-0.104
6.401,-0.097
6.402,-0.072
6.403,-0.053
6.404,-0.051
6.405,-0.053
6.406,-0.075
6.407,-0.091
6.408,-0.113
6.409,-0.116
6.410,-0.081
6.411,-0.063
6.412,-0.075
6.413,-0.069
6.414,-0.098
6.415,-0.116
6.416,-0.122
6.417,-0.125
6.418,-0.093
6.419,-0.069
6.420,-0.078
6.421,-0.084
6.422,-0.117
6.423,-0.134
6.424,-0.142
6.425,-0.159
6.426,-0.124
6.427,-0.103
6.428,-0.100
6.429,-0.084
6.430,-0.109
6.431,-0.131
6.432,-0.147
6.433,-0.166
6.434,-0.139
6.435,-0.122
6.436,-0.116
6.437,-0.103
6.438,-0.113
6.439,-0.125
6.440,-0.148
6.441,-0.163
6.442,-0.164
6.443,-0.144
6.444,-0.131
6.445,-0.116
6.446,-0.125
6.447,-0.134
6.448,-0.150
6.449,-0.163
6.450,-0.172
6.451,-0.153
6.452,-0.128
6.453,-0.109
6.454,-0.113
6.455,-0.119
6.456,-0.144
6.457,-0.159
6.458,-0.166
6.459,-0.169
6.460,-0.128
6.461,-0.113
6.462,-0.119
6.463,-0.119
6.464,-0.144
6.465,-0.159
6.466,-0.154
6.467,-0.172
6.468,-0.130
6.469,-0.109
6.470,-0.102
6.471,-0.097
6.472,-0.114
6.473,-0.128
6.474,-0.136
6.475,-0.159
6.476,-0.128
6.477,-0.109
6.478,-0.111
6.479,-0.100
6.480,-0.125
6.481,-0.138
6.482,-0.159
6.483,-0.175
6.484,-0.141
6.485,-0.119
6.486,-0.105
6.487,-0.088
6.488,-0.104
6.489,-0.116
6.490,-0.138
6.491,-0.153
6.492,-0.166
6.493,-0.153
6.494,-0.139
6.495,-0.131
6.496,-0.144
6.497,-0.156
6.498,-0.179
6.499,-0.200
6.500,-0.219
6.501,-0.213
6.502,-0.184
6.503,-0.166
6.504,-0.176
6.505,-0.175
6.506,-0.173
6.507,-0.166
6.508,-0.145
6.509,-0.122
6.510,-0.059
6.511,-0.003
6.512,0.037
6.513,0.112
6.514,0.168
6.515,0.231
6.516,0.317
6.517,0.403
6.518,0.539
6.519,0.681
6.520,0.803
6.521,0.966
6.522,1.119
6.523,1.241
6.524,1.344
6.525,1.434
6.526,1.559
6.527,1.672
6.528,1.759
6.529,1.853
6.530,1.927
6.531,1.987
6.532,2.062
6.533,2.103
6.534,2.169
6.535,2.178
6.536,2.114
6.537,2.031
6.538,1.864
6.539,1.687
6.540,1.502
6.541,1.306
6.542,1.147
6.543,0.991
6.544,0.832
6.545,0.678
6.546,0.508
6.547,0.369
6.548,0.249
6.549,0.150
6.550,0.089
6.551,0.066
6.552,0.067
6.553,0.066
6.554,0.059
6.555,0.044
6.556,0.002
6.557,-0.019
6.558,-0.036
6.559,-0.028
6.560,-0.011
6.561,0.000
6.562,-0.011
6.563,-0.009
6.564,-0.033
6.565,-0.056
6.566,-0.070
6.567,-0.081
6.568,-0.052
6.569,-0.038
6.570,-0.047
6.571,-0.034
6.572,-0.063
6.573,-0.081
6.574,-0.089
6.575,-0.116
6.576,-0.078
6.577,-0.066
6.578,-0.069
6.579,-0.053
6.580,-0.079
6.581,-0.097
6.582,-0.108
6.583,-0.131
6.584,-0.109
6.585,-0.084
6.586,-0.075
6.587,-0.063
6.588,-0.070
6.589,-0.081
6.590,-0.098
6.591,-0.109
6.592,-0.111
6.593,-0.084
6.594,-0.072
6.595,-0.063
6.596,-0.067
6.597,-0.078
6.598,-0.098
6.599,-0.106
6.600,-0.120
6.601,-0.103
6.602,-0.077
6.603,-0.059
6.604,-0.059
6.605,-0.066
6.606,-0.092
6.607,-0.109
6.608,-0.117
6.609,-0.116
6.610,-0.078
6.611,-0.059
6.612,-0.064
6.613,-0.063
6.614,-0.089
6.615,-0.100
6.616,-0.106
6.617,-0.122
6.618,-0.080
6.619,-0.059
6.620,-0.068
6.621,-0.053
6.622,-0.081
6.623,-0.097
6.624,-0.103
6.625,-0.125
6.626,-0.086
6.627,-0.069
6.628,-0.069
6.629,-0.056
6.630,-0.073
6.631,-0.084
6.632,-0.100
6.633,-0.122
6.634,-0.089
6.635,-0.066
6.636,-0.056
6.637,-0.038
6.638,-0.053
6.639,-0.069
6.640,-0.091
6.641,-0.106
6.642,-0.108
6.643,-0.081
6.644,-0.063
6.645,-0.050
6.646,-0.052
6.647,-0.059
6.648,-0.076
6.649,-0.091
6.650,-0.097
6.651,-0.081
6.652,-0.059
6.653,-0.044
6.654,-0.039
6.655,-0.044
6.656,-0.069
6.657,-0.088
6.658,-0.095
6.659,-0.097
6.660,-0.058
6.661,-0.041
6.662,-0.049
6.663,-0.047
6.664,-0.067
6.665,-0.078
6.666,-0.083
6.667,-0.094
6.668,-0.056
6.669,-0.031
6.670,-0.028
6.671,-0.022
6.672,-0.053
6.673,-0.066
6.674,-0.064
6.675,-0.084
6.676,-0.063
6.677,-0.038
6.678,-0.034
6.679,-0.028
6.680,-0.042
6.681,-0.053
6.682,-0.063
6.683,-0.081
6.684,-0.052
6.685,-0.028
6.686,-0.028
6.687,-0.022
6.688,-0.022
6.689,-0.034
6.690,-0.048
6.691,-0.063
6.692,-0.061
6.693,-0.041
6.694,-0.022
6.695,-0.009
6.696,-0.013
6.697,-0.022
6.698,-0.048
6.699,-0.063
6.700,-0.061
6.701,-0.050
6.702,-0.021
6.703,0.003
6.704,0.007
6.705,0.006
6.706,-0.022
6.707,-0.034
6.708,-0.042
6.709,-0.044
6.710,0.000
6.711,0.025
6.712,0.009
6.713,0.019
6.714,-0.004
6.715,-0.022
6.716,-0.028
6.717,-0.038
6.718,0.006
6.719,0.031
6.720,0.031
6.721,0.047
6.722,0.025
6.723,0.012
6.724,0.011
6.725,-0.009
6.726,0.020
6.727,0.044
6.728,0.050
6.729,0.066
6.730,0.046
6.731,0.031
6.732,0.019
6.733,0.006
6.734,0.039
6.735,0.066
6.736,0.076
6.737,0.094
6.738,0.084
6.739,0.075
6.740,0.066
6.741,0.059
6.742,0.059
6.743,0.084
6.744,0.106
6.745,0.119
6.746,0.117
6.747,0.112
6.748,0.091
6.749,0.081
6.750,0.086
6.751,0.106
6.752,0.134
6.753,0.156
6.754,0.166
6.755,0.162
6.756,0.142
6.757,0.128
6.758,0.122
6.759,0.125
6.760,0.164
6.761,0.191
6.762,0.186
6.763,0.187
6.764,0.164
6.765,0.147
6.766,0.153
6.767,0.144
6.768,0.189
6.769,0.216
6.770,0.222
6.771,0.228
6.772,0.200
6.773,0.187
6.774,0.186
6.775,0.172
6.776,0.209
6.777,0.234
6.778,0.231
6.779,0.250
6.780,0.234
6.781,0.225
6.782,0.202
6.783,0.184
6.784,0.223
6.785,0.250
6.786,0.259
6.787,0.275
6.788,0.269
6.789,0.256
6.790,0.241
6.791,0.228
6.792,0.220
6.793,0.244
6.794,0.253
6.795,0.259
6.796,0.256
6.797,0.247
6.798,0.224
6.799,0.206
6.800,0.195
6.801,0.206
6.802,0.229
6.803,0.244
6.804,0.228
6.805,0.212
6.806,0.189
6.807,0.166
6.808,0.146
6.809,0.137
6.810,0.169
6.811,0.178
6.812,0.159
6.813,0.156
6.814,0.119
6.815,0.094
6.816,0.083
6.817,0.066
6.818,0.092
6.819,0.103
6.820,0.100
6.821,0.103
6.822,0.071
6.823,0.047
6.824,0.033
6.825,0.003
6.826,0.032
6.827,0.050
6.828,0.041
6.829,0.047
6.830,0.017
6.831,-0.006
6.832,-0.022
6.833,-0.047
6.834,-0.027
6.835,-0.013
6.836,-0.006
6.837,0.003
6.838,-0.013
6.839,-0.025
6.840,-0.047
6.841,-0.069
6.842,-0.075
6.843,-0.053
6.844,-0.044
6.845,-0.034
6.846,-0.042
6.847,-0.059
6.848,-0.084
6.849,-0.097
6.850,-0.100
6.851,-0.088
6.852,-0.061
6.853,-0.044
6.854,-0.046
6.855,-0.053
6.856,-0.076
6.857,-0.094
6.858,-0.097
6.859,-0.097
6.860,-0.071
6.861,-0.056
6.862,-0.050
6.863,-0.053
6.864,-0.083
6.865,-0.106
6.866,-0.111
6.867,-0.128
6.868,-0.083
6.869,-0.056
6.870,-0.061
6.871,-0.053
6.872,-0.081
6.873,-0.094
6.874,-0.095
6.875,-0.116
6.876,-0.083
6.877,-0.063
6.878,-0.069
6.879,-0.053
6.880,-0.079
6.881,-0.100
6.882,-0.114
6.883,-0.131
6.884,-0.103
6.885,-0.081
6.886,-0.068
6.887,-0.050
6.888,-0.069
6.889,-0.078
6.890,-0.083
6.891,-0.097
6.892,-0.099
6.893,-0.078
6.894,-0.069
6.895,-0.056
6.896,-0.059
6.897,-0.075
6.898,-0.103
6.899,-0.116
6.900,-0.120
6.901,-0.109
6.902,-0.081
6.903,-0.059
6.904,-0.059
6.905,-0.063
6.906,-0.083
6.907,-0.097
6.908,-0.100
6.909,-0.103
6.910,-0.074
6.911,-0.063
6.912,-0.070
6.913,-0.069
6.914,-0.091
6.915,-0.109
6.916,-0.113
6.917,-0.119
6.918,-0.078
6.919,-0.056
6.920,-0.056
6.921,-0.050
6.922,-0.072
6.923,-0.088
6.924,-0.091
6.925,-0.106
6.926,-0.078
6.927,-0.056
6.928,-0.063
6.929,-0.050
6.930,-0.070
6.931,-0.084
6.932,-0.101
6.933,-0.125
6.934,-0.094
6.935,-0.078
6.936,-0.068
6.937,-0.053
6.938,-0.063
6.939,-0.069
6.940,-0.078
6.941,-0.091
6.942,-0.093
6.943,-0.069
6.944,-0.056
6.945,-0.050
6.946,-0.054
6.947,-0.072
6.948,-0.095
6.949,-0.109
6.950,-0.108
6.951,-0.094
6.952,-0.072
6.953,-0.053
6.954,-0.052
6.955,-0.059
6.956,-0.076
6.957,-0.094
6.958,-0.095
6.959,-0.097
6.960,-0.066
6.961,-0.050
6.962,-0.059
6.963,-0.059
6.964,-0.088
6.965,-0.103
6.966,-0.106
6.967,-0.113
6.968,-0.077
6.969,-0.059
6.970,-0.063
6.971,-0.056
6.972,-0.079
6.973,-0.094
6.974,-0.095
6.975,-0.116
6.976,-0.083
6.977,-0.063
6.978,-0.066
6.979,-0.053
6.980,-0.075
6.981,-0.091
6.982,-0.104
6.983,-0.122
6.984,-0.094
6.985,-0.078
6.986,-0.066
6.987,-0.047
6.988,-0.070
6.989,-0.078
6.990,-0.095
6.991,-0.113
6.992,-0.114
6.993,-0.091
6.994,-0.078
6.995,-0.069
6.996,-0.075
6.997,-0.091
6.998,-0.116
6.999,-0.128
7.000,-0.133
7.001,-0.113
7.002,-0.088
7.003,-0.066
7.004,-0.075
7.005,-0.081
7.006,-0.101
7.007,-0.116
7.008,-0.129
7.009,-0.128
7.010,-0.088
7.011,-0.069
7.012,-0.074
7.013,-0.072
7.014,-0.097
7.015,-0.119
7.016,-0.128
7.017,-0.138
7.018,-0.103
7.019,-0.081
7.020,-0.083
7.021,-0.075
7.022,-0.094
7.023,-0.103
7.024,-0.114
7.025,-0.134
7.026,-0.108
7.027,-0.091
7.028,-0.093
7.029,-0.078
7.030,-0.101
7.031,-0.116
7.032,-0.129
7.033,-0.150
7.034,-0.114
7.035,-0.097
7.036,-0.099
7.037,-0.084
7.038,-0.086
7.039,-0.094
7.040,-0.109
7.041,-0.128
7.042,-0.125
7.043,-0.106
7.044,-0.106
7.045,-0.088
7.046,-0.091
7.047,-0.103
7.048,-0.122
7.049,-0.147
7.050,-0.141
7.051,-0.125
7.052,-0.113
7.053,-0.091
7.054,-0.078
7.055,-0.081
7.056,-0.108
7.057,-0.119
7.058,-0.130
7.059,-0.125
7.060,-0.102
7.061,-0.091
7.062,-0.078
7.063,-0.088
7.064,-0.111
7.065,-0.122
7.066,-0.141
7.067,-0.147
7.068,-0.119
7.069,-0.103
7.070,-0.088
7.071,-0.088
7.072,-0.108
7.073,-0.113
7.074,-0.128
7.075,-0.138
7.076,-0.119
7.077,-0.103
7.078,-0.098
7.079,-0.091
7.080,-0.106
7.081,-0.116
7.082,-0.139
7.083,-0.156
7.084,-0.130
7.085,-0.106
7.086,-0.109
7.087,-0.088
7.088,-0.091
7.089,-0.097
7.090,-0.114
7.091,-0.134
7.092,-0.125
7.093,-0.103
7.094,-0.103
7.095,-0.078
7.096,-0.081
7.097,-0.094
7.098,-0.106
7.099,-0.128
7.100,-0.121
7.101,-0.106
7.102,-0.105
7.103,-0.088
7.104,-0.086
7.105,-0.088
7.106,-0.097
7.107,-0.103
7.108,-0.105
7.109,-0.097
7.110,-0.071
7.111,-0.050
7.112,-0.041
7.113,-0.044
7.114,-0.069
7.115,-0.084
7.116,-0.102
7.117,-0.109
7.118,-0.074
7.119,-0.066
7.120,-0.051
7.121,-0.050
7.122,-0.076
7.123,-0.091
7.124,-0.103
7.125,-0.113
7.126,-0.094
7.127,-0.069
7.128,-0.052
7.129,-0.044
7.130,-0.044
7.131,-0.038
7.132,-0.053
7.133,-0.069
7.134,-0.055
7.135,-0.034
7.136,-0.021
7.137,-0.009
7.138,-0.023
7.139,-0.038
7.140,-0.054
7.141,-0.084
7.142,-0.088
7.143,-0.069
7.144,-0.072
7.145,-0.056
7.146,-0.069
7.147,-0.088
7.148,-0.101
7.149,-0.119
7.150,-0.113
7.151,-0.100
7.152,-0.100
7.153,-0.081
7.154,-0.069
7.155,-0.072
7.156,-0.103
7.157,-0.116
7.158,-0.127
7.159,-0.125
7.160,-0.111
7.161,-0.094
7.162,-0.091
7.163,-0.097
7.164,-0.122
7.165,-0.144
7.166,-0.163
7.167,-0.166
7.168,-0.147
7.169,-0.138
7.170,-0.121
7.171,-0.119
7.172,-0.136
7.173,-0.141
7.174,-0.155
7.175,-0.166
7.176,-0.152
7.177,-0.141
7.178,-0.127
7.179,-0.122
7.180,-0.139
7.181,-0.150
7.182,-0.170
7.183,-0.194
7.184,-0.171
7.185,-0.138
7.186,-0.141
7.187,-0.122
7.188,-0.128
7.189,-0.131
7.190,-0.150
7.191,-0.169
7.192,-0.156
7.193,-0.141
7.194,-0.150
7.195,-0.131
7.196,-0.134
7.197,-0.144
7.198,-0.158
7.199,-0.175
7.200,-0.172
7.201,-0.159
7.202,-0.147
7.203,-0.131
7.204,-0.117
7.205,-0.128
7.206,-0.150
7.207,-0.166
7.208,-0.174
7.209,-0.172
7.210,-0.141
7.211,-0.131
7.212,-0.122
7.213,-0.134
7.214,-0.148
7.215,-0.166
7.216,-0.176
7.217,-0.184
7.218,-0.152
7.219,-0.134
7.220,-0.122
7.221,-0.122
7.222,-0.139
7.223,-0.144
7.224,-0.166
7.225,-0.175
7.226,-0.158
7.227,-0.134
7.228,-0.122
7.229,-0.122
7.230,-0.138
7.231,-0.150
7.232,-0.175
7.233,-0.194
7.234,-0.175
7.235,-0.150
7.236,-0.161
7.237,-0.147
7.238,-0.156
7.239,-0.172
7.240,-0.197
7.241,-0.222
7.242,-0.217
7.243,-0.209
7.244,-0.221
7.245,-0.206
7.246,-0.204
7.247,-0.213
7.248,-0.236
7.249,-0.247
7.250,-0.216
7.251,-0.178
7.252,-0.138
7.253,-0.094
7.254,-0.053
7.255,-0.019
7.256,0.005
7.257,0.062
7.258,0.142
7.259,0.231
7.260,0.342
7.261,0.453
7.262,0.572
7.263,0.697
7.264,0.800
7.265,0.944
7.266,1.081
7.267,1.187
7.268,1.319
7.269,1.437
7.270,1.551
7.271,1.653
7.272,1.727
7.273,1.806
7.274,1.878
7.275,1.937
7.276,2.006
7.277,2.041
7.278,2.030
7.279,1.962
7.280,1.844
7.281,1.706
7.282,1.541
7.283,1.366
7.284,1.237
7.285,1.100
7.286,0.934
7.287,0.772
7.288,0.596
7.289,0.422
7.290,0.277
7.291,0.162
7.292,0.117
7.293,0.094
7.294,0.066
7.295,0.075
7.296,0.052
7.297,0.025
7.298,0.000
7.299,-0.034
7.300,-0.046
7.301,-0.034
7.302,-0.033
7.303,-0.006
7.304,-0.008
7.305,-0.016
7.306,-0.048
7.307,-0.069
7.308,-0.075
7.309,-0.081
7.310,-0.071
7.311,-0.056
7.312,-0.052
7.313,-0.063
7.314,-0.095
7.315,-0.106
7.316,-0.121
7.317,-0.125
7.318,-0.093
7.319,-0.078
7.320,-0.058
7.321,-0.063
7.322,-0.088
7.323,-0.094
7.324,-0.119
7.325,-0.134
7.326,-0.111
7.327,-0.100
7.328,-0.098
7.329,-0.094
7.330,-0.111
7.331,-0.125
7.332,-0.138
7.333,-0.153
7.334,-0.130
7.335,-0.100
7.336,-0.106
7.337,-0.084
7.338,-0.091
7.339,-0.100
7.340,-0.114
7.341,-0.134
7.342,-0.125
7.343,-0.103
7.344,-0.111
7.345,-0.088
7.346,-0.095
7.347,-0.113
7.348,-0.125
7.349,-0.144
7.350,-0.136
7.351,-0.119
7.352,-0.108
7.353,-0.088
7.354,-0.078
7.355,-0.088
7.356,-0.103
7.357,-0.113
7.358,-0.124
7.359,-0.119
7.360,-0.102
7.361,-0.094
7.362,-0.079
7.363,-0.088
7.364,-0.117
7.365,-0.125
7.366,-0.138
7.367,-0.138
7.368,-0.103
7.369,-0.084
7.370,-0.061
7.371,-0.059
7.372,-0.079
7.373,-0.088
7.374,-0.108
7.375,-0.122
7.376,-0.103
7.377,-0.091
7.378,-0.078
7.379,-0.075
7.380,-0.095
7.381,-0.106
7.382,-0.123
7.383,-0.141
7.384,-0.116
7.385,-0.084
7.386,-0.088
7.387,-0.063
7.388,-0.067
7.389,-0.078
7.390,-0.092
7.391,-0.113
7.392,-0.102
7.393,-0.088
7.394,-0.091
7.395,-0.072
7.396,-0.079
7.397,-0.094
7.398,-0.100
7.399,-0.116
7.400,-0.109
7.401,-0.097
7.402,-0.083
7.403,-0.063
7.404,-0.045
7.405,-0.050
7.406,-0.079
7.407,-0.100
7.408,-0.106
7.409,-0.103
7.410,-0.083
7.411,-0.069
7.412,-0.061
7.413,-0.066
7.414,-0.081
7.415,-0.094
7.416,-0.113
7.417,-0.113
7.418,-0.075
7.419,-0.059
7.420,-0.048
7.421,-0.034
7.422,-0.050
7.423,-0.063
7.424,-0.083
7.425,-0.100
7.426,-0.075
7.427,-0.059
7.428,-0.051
7.429,-0.050
7.430,-0.069
7.431,-0.081
7.432,-0.088
7.433,-0.106
7.434,-0.078
7.435,-0.050
7.436,-0.047
7.437,-0.025
7.438,-0.025
7.439,-0.031
7.440,-0.045
7.441,-0.066
7.442,-0.059
7.443,-0.041
7.444,-0.036
7.445,-0.022
7.446,-0.028
7.447,-0.041
7.448,-0.050
7.449,-0.066
7.450,-0.064
7.451,-0.047
7.452,-0.034
7.453,-0.016
7.454,0.003
7.455,0.003
7.456,-0.028
7.457,-0.034
7.458,-0.036
7.459,-0.031
7.460,-0.013
7.461,0.003
7.462,0.016
7.463,0.009
7.464,-0.009
7.465,-0.013
7.466,-0.025
7.467,-0.028
7.468,0.012
7.469,0.034
7.470,0.044
7.471,0.047
7.472,0.034
7.473,0.031
7.474,0.014
7.475,0.003
7.476,0.026
7.477,0.050
7.478,0.062
7.479,0.069
7.480,0.055
7.481,0.047
7.482,0.034
7.483,0.022
7.484,0.051
7.485,0.084
7.486,0.082
7.487,0.106
7.488,0.105
7.489,0.094
7.490,0.081
7.491,0.066
7.492,0.076
7.493,0.100
7.494,0.100
7.495,0.116
7.496,0.117
7.497,0.112
7.498,0.109
7.499,0.094
7.500,0.103
7.501,0.119
7.502,0.132
7.503,0.156
7.504,0.168
7.505,0.166
7.506,0.147
7.507,0.134
7.508,0.126
7.509,0.125
7.510,0.156
7.511,0.172
7.512,0.184
7.513,0.178
7.514,0.169
7.515,0.159
7.516,0.146
7.517,0.147
7.518,0.181
7.519,0.203
7.520,0.219
7.521,0.222
7.522,0.199
7.523,0.197
7.524,0.186
7.525,0.181
7.526,0.195
7.527,0.216
7.528,0.232
7.529,0.237
7.530,0.225
7.531,0.219
7.532,0.209
7.533,0.194
7.534,0.216
7.535,0.241
7.536,0.228
7.537,0.247
7.538,0.239
7.539,0.228
7.540,0.208
7.541,0.181
7.542,0.187
7.543,0.200
7.544,0.192
7.545,0.206
7.546,0.202
7.547,0.187
7.548,0.162
7.549,0.137
7.550,0.144
7.551,0.150
7.552,0.150
7.553,0.162
7.554,0.168
7.555,0.150
7.556,0.112
7.557,0.091
7.558,0.078
7.559,0.078
7.560,0.084
7.561,0.084
7.562,0.092
7.563,0.084
7.564,0.061
7.565,0.044
7.566,0.019
7.567,0.003
7.568,0.025
7.569,0.031
7.570,0.037
7.571,0.031
7.572,0.002
7.573,-0.013
7.574,-0.038
7.575,-0.056
7.576,-0.038
7.577,-0.028
7.578,-0.022
7.579,-0.022
7.580,-0.041
7.581,-0.056
7.582,-0.076
7.583,-0.094
7.584,-0.072
7.585,-0.050
7.586,-0.058
7.587,-0.038
7.588,-0.056
7.589,-0.075
7.590,-0.089
7.591,-0.113
7.592,-0.106
7.593,-0.088
7.594,-0.089
7.595,-0.075
7.596,-0.078
7.597,-0.091
7.598,-0.104
7.599,-0.125
7.600,-0.122
7.601,-0.113
7.602,-0.097
7.603,-0.078
7.604,-0.075
7.605,-0.084
7.606,-0.097
7.607,-0.119
7.608,-0.125
7.609,-0.125
7.610,-0.100
7.611,-0.088
7.612,-0.072
7.613,-0.075
7.614,-0.101
7.615,-0.116
7.616,-0.129
7.617,-0.128
7.618,-0.096
7.619,-0.081
7.620,-0.069
7.621,-0.069
7.622,-0.098
7.623,-0.106
7.624,-0.129
7.625,-0.147
7.626,-0.124
7.627,-0.103
7.628,-0.088
7.629,-0.078
7.630,-0.089
7.631,-0.097
7.632,-0.117
7.633,-0.128
7.634,-0.099
7.635,-0.078
7.636,-0.086
7.637,-0.072
7.638,-0.088
7.639,-0.100
7.640,-0.108
7.641,-0.128
7.642,-0.124
7.643,-0.103
7.644,-0.096
7.645,-0.072
7.646,-0.072
7.647,-0.078
7.648,-0.097
7.649,-0.119
7.650,-0.111
7.651,-0.097
7.652,-0.083
7.653,-0.069
7.654,-0.064
7.655,-0.078
7.656,-0.100
7.657,-0.113
7.658,-0.114
7.659,-0.113
7.660,-0.094
7.661,-0.078
7.662,-0.064
7.663,-0.069
7.664,-0.088
7.665,-0.100
7.666,-0.109
7.667,-0.113
7.668,-0.088
7.669,-0.075
7.670,-0.070
7.671,-0.072
7.672,-0.097
7.673,-0.103
7.674,-0.119
7.675,-0.128
7.676,-0.105
7.677,-0.088
7.678,-0.071
7.679,-0.069
7.680,-0.079
7.681,-0.088
7.682,-0.106
7.683,-0.122
7.684,-0.097
7.685,-0.075
7.686,-0.083
7.687,-0.066
7.688,-0.075
7.689,-0.091
7.690,-0.098
7.691,-0.119
7.692,-0.106
7.693,-0.084
7.694,-0.084
7.695,-0.072
7.696,-0.076
7.697,-0.084
7.698,-0.097
7.699,-0.119
7.700,-0.111
7.701,-0.103
7.702,-0.088
7.703,-0.072
7.704,-0.069
7.705,-0.081
7.706,-0.103
7.707,-0.116
7.708,-0.124
7.709,-0.119
7.710,-0.096
7.711,-0.075
7.712,-0.064
7.713,-0.072
7.714,-0.094
7.715,-0.106
7.716,-0.119
7.717,-0.122
7.718,-0.093
7.719,-0.081
7.720,-0.070
7.721,-0.072
7.722,-0.095
7.723,-0.103
7.724,-0.123
7.725,-0.138
7.726,-0.116
7.727,-0.097
7.728,-0.081
7.729,-0.078
7.730,-0.089
7.731,-0.094
7.732,-0.122
7.733,-0.134
7.734,-0.114
7.735,-0.094
7.736,-0.102
7.737,-0.084
7.738,-0.095
7.739,-0.109
7.740,-0.122
7.741,-0.144
7.742,-0.138
7.743,-0.119
7.744,-0.118
7.745,-0.091
7.746,-0.092
7.747,-0.097
7.748,-0.117
7.749,-0.134
7.750,-0.131
7.751,-0.122
7.752,-0.116
7.753,-0.094
7.754,-0.086
7.755,-0.100
7.756,-0.120
7.757,-0.134
7.758,-0.143
7.759,-0.147
7.760,-0.130
7.761,-0.113
7.762,-0.097
7.763,-0.094
7.764,-0.113
7.765,-0.122
7.766,-0.138
7.767,-0.144
7.768,-0.118
7.769,-0.097
7.770,-0.102
7.771,-0.103
7.772,-0.122
7.773,-0.144
7.774,-0.150
7.775,-0.166
7.776,-0.131
7.777,-0.109
7.778,-0.105
7.779,-0.097
7.780,-0.119
7.781,-0.134
7.782,-0.142
7.783,-0.159
7.784,-0.141
7.785,-0.113
7.786,-0.100
7.787,-0.100
7.788,-0.106
7.789,-0.131
7.790,-0.153
7.791,-0.166
7.792,-0.156
7.793,-0.128
7.794,-0.114
7.795,-0.103
7.796,-0.104
7.797,-0.122
7.798,-0.142
7.799,-0.156
7.800,-0.163
7.801,-0.144
7.802,-0.122
7.803,-0.113
7.804,-0.105
7.805,-0.116
7.806,-0.144
7.807,-0.163
7.808,-0.164
7.809,-0.159
7.810,-0.128
7.811,-0.113
7.812,-0.106
7.813,-0.113
7.814,-0.142
7.815,-0.156
7.816,-0.156
7.817,-0.169
7.818,-0.127
7.819,-0.103
7.820,-0.103
7.821,-0.103
7.822,-0.125
7.823,-0.144
7.824,-0.150
7.825,-0.172
7.826,-0.138
7.827,-0.116
7.828,-0.108
7.829,-0.094
7.830,-0.108
7.831,-0.119
7.832,-0.129
7.833,-0.153
7.834,-0.138
7.835,-0.122
7.836,-0.113
7.837,-0.106
7.838,-0.109
7.839,-0.122
7.840,-0.142
7.841,-0.150
7.842,-0.125
7.843,-0.097
7.844,-0.077
7.845,-0.059
7.846,-0.052
7.847,-0.069
7.848,-0.089
7.849,-0.091
7.850,-0.113
7.851,-0.097
7.852,-0.074
7.853,-0.069
7.854,-0.069
7.855,-0.078
7.856,-0.108
7.857,-0.128
7.858,-0.126
7.859,-0.122
7.860,-0.105
7.861,-0.078
7.862,-0.049
7.863,-0.044
7.864,-0.059
7.865,-0.063
7.866,-0.058
7.867,-0.063
7.868,-0.041
7.869,-0.025
7.870,-0.031
7.871,-0.034
7.872,-0.063
7.873,-0.094
7.874,-0.101
7.875,-0.122
7.876,-0.094
7.877,-0.078
7.878,-0.086
7.879,-0.081
7.880,-0.094
7.881,-0.109
7.882,-0.109
7.883,-0.131
7.884,-0.124
7.885,-0.100
7.886,-0.088
7.887,-0.094
7.888,-0.098
7.889,-0.119
7.890,-0.147
7.891,-0.169
7.892,-0.149
7.893,-0.128
7.894,-0.113
7.895,-0.103
7.896,-0.106
7.897,-0.119
7.898,-0.145
7.899,-0.172
7.900,-0.184
7.901,-0.172
7.902,-0.156
7.903,-0.141
7.904,-0.124
7.905,-0.134
7.906,-0.163
7.907,-0.175
7.908,-0.181
7.909,-0.178
7.910,-0.156
7.911,-0.141
7.912,-0.133
7.913,-0.134
7.914,-0.164
7.915,-0.178
7.916,-0.176
7.917,-0.194
7.918,-0.158
7.919,-0.141
7.920,-0.136
7.921,-0.138
7.922,-0.158
7.923,-0.172
7.924,-0.179
7.925,-0.200
7.926,-0.163
7.927,-0.144
7.928,-0.144
7.929,-0.141
7.930,-0.159
7.931,-0.175
7.932,-0.184
7.933,-0.203
7.934,-0.194
7.935,-0.163
7.936,-0.150
7.937,-0.144
7.938,-0.151
7.939,-0.166
7.940,-0.186
7.941,-0.191
7.942,-0.188
7.943,-0.163
7.944,-0.153
7.945,-0.138
7.946,-0.139
7.947,-0.147
7.948,-0.173
7.949,-0.181
7.950,-0.186
7.951,-0.172
7.952,-0.150
7.953,-0.138
7.954,-0.130
7.955,-0.144
7.956,-0.166
7.957,-0.184
7.958,-0.183
7.959,-0.175
7.960,-0.149
7.961,-0.128
7.962,-0.125
7.963,-0.131
7.964,-0.163
7.965,-0.184
7.966,-0.181
7.967,-0.200
7.968,-0.168
7.969,-0.150
7.970,-0.156
7.971,-0.169
7.972,-0.200
7.973,-0.222
7.974,-0.234
7.975,-0.266
7.976,-0.255
7.977,-0.238
7.978,-0.233
7.979,-0.238
7.980,-0.258
7.981,-0.259
7.982,-0.248
7.983,-0.241
7.984,-0.214
7.985,-0.169
7.986,-0.141
7.987,-0.109
7.988,-0.059
7.989,-0.019
7.990,0.027
7.991,0.091
7.992,0.191
7.993,0.312
7.994,0.430
7.995,0.544
7.996,0.691
7.997,0.822
7.998,0.947
7.999,1.062
8.000,1.169
8.001,1.287
8.002,1.397
8.003,1.509
8.004,1.622
8.005,1.712
8.006,1.794
8.007,1.872
8.008,1.961
8.009,2.034
8.010,2.082
8.011,2.078
8.012,2.003
8.013,1.891
8.014,1.736
8.015,1.572
8.016,1.400
8.017,1.231
8.018,1.082
8.019,0.947
8.020,0.749
8.021,0.566
8.022,0.383
8.023,0.219
8.024,0.119
8.025,0.041
8.026,0.047
8.027,0.047
8.028,0.037
8.029,0.037
8.030,0.009
8.031,-0.022
8.032,-0.042
8.033,-0.075
8.034,-0.056
8.035,-0.050
8.036,-0.050
8.037,-0.053
8.038,-0.053
8.039,-0.072
8.040,-0.109
8.041,-0.131
8.042,-0.114
8.043,-0.097
8.044,-0.094
8.045,-0.091
8.046,-0.081
8.047,-0.100
8.048,-0.131
8.049,-0.144
8.050,-0.154
8.051,-0.134
8.052,-0.118
8.053,-0.106
8.054,-0.096
8.055,-0.109
8.056,-0.138
8.057,-0.153
8.058,-0.161
8.059,-0.159
8.060,-0.130
8.061,-0.113
8.062,-0.113
8.063,-0.116
8.064,-0.145
8.065,-0.159
8.066,-0.153
8.067,-0.169
8.068,-0.130
8.069,-0.109
8.070,-0.113
8.071,-0.113
8.072,-0.129
8.073,-0.147
8.074,-0.153
8.075,-0.178
8.076,-0.143
8.077,-0.122
8.078,-0.119
8.079,-0.113
8.080,-0.131
8.081,-0.144
8.082,-0.156
8.083,-0.175
8.084,-0.155
8.085,-0.128
8.086,-0.119
8.087,-0.113
8.088,-0.120
8.089,-0.141
8.090,-0.153
8.091,-0.166
8.092,-0.159
8.093,-0.128
8.094,-0.114
8.095,-0.109
8.096,-0.104
8.097,-0.125
8.098,-0.145
8.099,-0.153
8.100,-0.163
8.101,-0.141
8.102,-0.116
8.103,-0.100
8.104,-0.093
8.105,-0.103
8.106,-0.129
8.107,-0.147
8.108,-0.156
8.109,-0.150
8.110,-0.124
8.111,-0.106
8.112,-0.099
8.113,-0.103
8.114,-0.131
8.115,-0.144
8.116,-0.138
8.117,-0.153
8.118,-0.119
8.119,-0.100
8.120,-0.100
8.121,-0.100
8.122,-0.123
8.123,-0.138
8.124,-0.142
8.125,-0.156
8.126,-0.122
8.127,-0.103
8.128,-0.097
8.129,-0.081
8.130,-0.100
8.131,-0.116
8.132,-0.129
8.133,-0.147
8.134,-0.133
8.135,-0.106
8.136,-0.094
8.137,-0.088
8.138,-0.092
8.139,-0.106
8.140,-0.123
8.141,-0.134
8.142,-0.128
8.143,-0.113
8.144,-0.100
8.145,-0.088
8.146,-0.088
8.147,-0.100
8.148,-0.111
8.149,-0.116
8.150,-0.124
8.151,-0.109
8.152,-0.075
8.153,-0.063
8.154,-0.066
8.155,-0.075
8.156,-0.104
8.157,-0.119
8.158,-0.120
8.159,-0.113
8.160,-0.084
8.161,-0.066
8.162,-0.063
8.163,-0.059
8.164,-0.094
8.165,-0.106
8.166,-0.106
8.167,-0.119
8.168,-0.086
8.169,-0.066
8.170,-0.064
8.171,-0.059
8.172,-0.076
8.173,-0.094
8.174,-0.098
8.175,-0.109
8.176,-0.083
8.177,-0.063
8.178,-0.061
8.179,-0.053
8.180,-0.063
8.181,-0.075
8.182,-0.078
8.183,-0.091
8.184,-0.074
8.185,-0.041
8.186,-0.030
8.187,-0.038
8.188,-0.033
8.189,-0.047
8.190,-0.069
8.191,-0.081
8.192,-0.066
8.193,-0.038
8.194,-0.022
8.195,-0.009
8.196,-0.004
8.197,-0.019
8.198,-0.042
8.199,-0.050
8.200,-0.050
8.201,-0.031
8.202,-0.003
8.203,0.012
8.204,0.020
8.205,0.012
8.206,-0.009
8.207,-0.022
8.208,-0.017
8.209,-0.006
8.210,0.022
8.211,0.044
8.212,0.053
8.213,0.050
8.214,0.024
8.215,0.012
8.216,0.019
8.217,0.009
8.218,0.047
8.219,0.069
8.220,0.072
8.221,0.078
8.222,0.062
8.223,0.050
8.224,0.049
8.225,0.031
8.226,0.067
8.227,0.097
8.228,0.106
8.229,0.122
8.230,0.102
8.231,0.091
8.232,0.086
8.233,0.072
8.234,0.092
8.235,0.119
8.236,0.131
8.237,0.137
8.238,0.137
8.239,0.125
8.240,0.105
8.241,0.103
8.242,0.114
8.243,0.144
8.244,0.157
8.245,0.172
8.246,0.171
8.247,0.159
8.248,0.141
8.249,0.128
8.250,0.129
8.251,0.150
8.252,0.173
8.253,0.184
8.254,0.199
8.255,0.187
8.256,0.168
8.257,0.150
8.258,0.155
8.259,0.169
8.260,0.201
8.261,0.228
8.262,0.231
8.263,0.228
8.264,0.199
8.265,0.184
8.266,0.191
8.267,0.175
8.268,0.211
8.269,0.225
8.270,0.226
8.271,0.228
8.272,0.203
8.273,0.184
8.274,0.175
8.275,0.153
8.276,0.181
8.277,0.200
8.278,0.203
8.279,0.203
8.280,0.178
8.281,0.162
8.282,0.146
8.283,0.116
8.284,0.122
8.285,0.144
8.286,0.150
8.287,0.144
8.288,0.127
8.289,0.097
8.290,0.072
8.291,0.050
8.292,0.051
8.293,0.069
8.294,0.081
8.295,0.087
8.296,0.074
8.297,0.050
8.298,0.017
8.299,0.000
8.300,-0.008
8.301,0.003
8.302,0.019
8.303,0.022
8.304,0.025
8.305,0.006
8.306,-0.028
8.307,-0.044
8.308,-0.053
8.309,-0.050
8.310,-0.031
8.311,-0.022
8.312,-0.024
8.313,-0.031
8.314,-0.063
8.315,-0.081
8.316,-0.084
8.317,-0.103
8.318,-0.068
8.319,-0.053
8.320,-0.056
8.321,-0.056
8.322,-0.083
8.323,-0.103
8.324,-0.106
8.325,-0.122
8.326,-0.096
8.327,-0.075
8.328,-0.074
8.329,-0.069
8.330,-0.089
8.331,-0.103
8.332,-0.120
8.333,-0.141
8.334,-0.125
8.335,-0.103
8.336,-0.097
8.337,-0.084
8.338,-0.089
8.339,-0.100
8.340,-0.126
8.341,-0.138
8.342,-0.128
8.343,-0.100
8.344,-0.086
8.345,-0.078
8.346,-0.081
8.347,-0.100
8.348,-0.117
8.349,-0.128
8.350,-0.138
8.351,-0.122
8.352,-0.099
8.353,-0.088
8.354,-0.075
8.355,-0.091
8.356,-0.117
8.357,-0.131
8.358,-0.133
8.359,-0.122
8.360,-0.094
8.361,-0.078
8.362,-0.077
8.363,-0.081
8.364,-0.103
8.365,-0.116
8.366,-0.125
8.367,-0.141
8.368,-0.105
8.369,-0.088
8.370,-0.088
8.371,-0.084
8.372,-0.101
8.373,-0.119
8.374,-0.123
8.375,-0.134
8.376,-0.103
8.377,-0.084
8.378,-0.077
8.379,-0.072
8.380,-0.094
8.381,-0.106
8.382,-0.117
8.383,-0.134
8.384,-0.122
8.385,-0.097
8.386,-0.089
8.387,-0.078
8.388,-0.076
8.389,-0.091
8.390,-0.119
8.391,-0.134
8.392,-0.119
8.393,-0.091
8.394,-0.071
8.395,-0.056
8.396,-0.064
8.397,-0.075
8.398,-0.100
8.399,-0.119
8.400,-0.124
8.401,-0.109
8.402,-0.086
8.403,-0.078
8.404,-0.068
8.405,-0.078
8.406,-0.101
8.407,-0.116
8.408,-0.122
8.409,-0.109
8.410,-0.083
8.411,-0.059
8.412,-0.053
8.413,-0.056
8.414,-0.088
8.415,-0.103
8.416,-0.108
8.417,-0.128
8.418,-0.091
8.419,-0.069
8.420,-0.074
8.421,-0.069
8.422,-0.089
8.423,-0.103
8.424,-0.108
8.425,-0.122
8.426,-0.093
8.427,-0.072
8.428,-0.066
8.429,-0.056
8.430,-0.079
8.431,-0.094
8.432,-0.114
8.433,-0.131
8.434,-0.111
8.435,-0.081
8.436,-0.071
8.437,-0.066
8.438,-0.070
8.439,-0.088
8.440,-0.108
8.441,-0.122
8.442,-0.109
8.443,-0.088
8.444,-0.074
8.445,-0.063
8.446,-0.072
8.447,-0.091
8.448,-0.111
8.449,-0.122
8.450,-0.133
8.451,-0.119
8.452,-0.099
8.453,-0.088
8.454,-0.075
8.455,-0.088
8.456,-0.114
8.457,-0.128
8.458,-0.129
8.459,-0.119
8.460,-0.099
8.461,-0.081
8.462,-0.072
8.463,-0.084
8.464,-0.108
8.465,-0.122
8.466,-0.126
8.467,-0.147
8.468,-0.111
8.469,-0.091
8.470,-0.091
8.471,-0.088
8.472,-0.106
8.473,-0.122
8.474,-0.126
8.475,-0.144
8.476,-0.108
8.477,-0.091
8.478,-0.084
8.479,-0.084
8.480,-0.104
8.481,-0.122
8.482,-0.133
8.483,-0.153
8.484,-0.133
8.485,-0.106
8.486,-0.105
8.487,-0.103
8.488,-0.103
8.489,-0.113
8.490,-0.139
8.491,-0.153
8.492,-0.136
8.493,-0.116
8.494,-0.100
8.495,-0.091
8.496,-0.099
8.497,-0.109
8.498,-0.129
8.499,-0.147
8.500,-0.141
8.501,-0.138
8.502,-0.116
8.503,-0.103
8.504,-0.097
8.505,-0.103
8.506,-0.126
8.507,-0.147
8.508,-0.147
8.509,-0.141
8.510,-0.113
8.511,-0.094
8.512,-0.100
8.513,-0.097
8.514,-0.111
8.515,-0.138
8.516,-0.133
8.517,-0.147
8.518,-0.131
8.519,-0.106
8.520,-0.116
8.521,-0.106
8.522,-0.117
8.523,-0.131
8.524,-0.129
8.525,-0.144
8.526,-0.127
8.527,-0.103
8.528,-0.114
8.529,-0.100
8.530,-0.111
8.531,-0.134
8.532,-0.139
8.533,-0.163
8.534,-0.147
8.535,-0.122
8.536,-0.121
8.537,-0.113
8.538,-0.113
8.539,-0.128
8.540,-0.139
8.541,-0.163
8.542,-0.153
8.543,-0.128
8.544,-0.111
8.545,-0.106
8.546,-0.101
8.547,-0.116
8.548,-0.133
8.549,-0.150
8.550,-0.147
8.551,-0.141
8.552,-0.116
8.553,-0.106
8.554,-0.095
8.555,-0.097
8.556,-0.116
8.557,-0.128
8.558,-0.127
8.559,-0.122
8.560,-0.100
8.561,-0.091
8.562,-0.094
8.563,-0.097
8.564,-0.113
8.565,-0.131
8.566,-0.128
8.567,-0.134
8.568,-0.108
8.569,-0.069
8.570,-0.066
8.571,-0.059
8.572,-0.070
8.573,-0.084
8.574,-0.078
8.575,-0.097
8.576,-0.086
8.577,-0.056
8.578,-0.083
8.579,-0.072
8.580,-0.078
8.581,-0.103
8.582,-0.113
8.583,-0.131
8.584,-0.119
8.585,-0.097
8.586,-0.084
8.587,-0.069
8.588,-0.076
8.589,-0.075
8.590,-0.063
8.591,-0.075
8.592,-0.064
8.593,-0.041
8.594,-0.022
8.595,-0.013
8.596,-0.022
8.597,-0.038
8.598,-0.064
8.599,-0.088
8.600,-0.086
8.601,-0.088
8.602,-0.071
8.603,-0.066
8.604,-0.069
8.605,-0.084
8.606,-0.114
8.607,-0.131
8.608,-0.122
8.609,-0.116
8.610,-0.089
8.611,-0.084
8.612,-0.098
8.613,-0.097
8.614,-0.103
8.615,-0.128
8.616,-0.128
8.617,-0.144
8.618,-0.131
8.619,-0.113
8.620,-0.111
8.621,-0.109
8.622,-0.123
8.623,-0.144
8.624,-0.149
8.625,-0.163
8.626,-0.146
8.627,-0.128
8.628,-0.142
8.629,-0.131
8.630,-0.145
8.631,-0.159
8.632,-0.153
8.633,-0.175
8.634,-0.169
8.635,-0.147
8.636,-0.143
8.637,-0.128
8.638,-0.139
8.639,-0.156
8.640,-0.166
8.641,-0.184
8.642,-0.184
8.643,-0.169
8.644,-0.147
8.645,-0.144
8.646,-0.138
8.647,-0.150
8.648,-0.161
8.649,-0.178
8.650,-0.178
8.651,-0.172
8.652,-0.152
8.653,-0.144
8.654,-0.136
8.655,-0.147
8.656,-0.169
8.657,-0.188
8.658,-0.189
8.659,-0.188
8.660,-0.158
8.661,-0.138
8.662,-0.147
8.663,-0.134
8.664,-0.151
8.665,-0.175
8.666,-0.178
8.667,-0.188
8.668,-0.171
8.669,-0.138
8.670,-0.148
8.671,-0.138
8.672,-0.158
8.673,-0.172
8.674,-0.174
8.675,-0.181
8.676,-0.171
8.677,-0.141
8.678,-0.144
8.679,-0.128
8.680,-0.136
8.681,-0.153
8.682,-0.154
8.683,-0.178
8.684,-0.164
8.685,-0.147
8.686,-0.142
8.687,-0.131
8.688,-0.138
8.689,-0.150
8.690,-0.163
8.691,-0.184
8.692,-0.177
8.693,-0.159
8.694,-0.139
8.695,-0.141
8.696,-0.144
8.697,-0.163
8.698,-0.184
8.699,-0.213
8.700,-0.217
8.701,-0.213
8.702,-0.199
8.703,-0.203
8.704,-0.214
8.705,-0.219
8.706,-0.231
8.707,-0.253
8.708,-0.243
8.709,-0.213
8.710,-0.166
8.711,-0.122
8.712,-0.103
8.713,-0.066
8.714,-0.036
8.715,-0.003
8.716,0.078
8.717,0.150
8.718,0.250
8.719,0.369
8.720,0.459
8.721,0.572
8.722,0.680
8.723,0.784
8.724,0.934
8.725,1.069
8.726,1.212
8.727,1.347
8.728,1.448
8.729,1.562
8.730,1.636
8.731,1.712
8.732,1.796
8.733,1.856
8.734,1.966
8.735,2.072
8.736,2.128
8.737,2.169
8.738,2.136
8.739,2.050
8.740,1.925
8.741,1.762
8.742,1.611
8.743,1.450
8.744,1.295
8.745,1.144
8.746,0.955
8.747,0.778
8.748,0.592
8.749,0.422
8.750,0.306
8.751,0.209
8.752,0.144
8.753,0.100
8.754,0.074
8.755,0.041
8.756,0.005
8.757,-0.022
8.758,-0.030
8.759,-0.041
8.760,-0.027
8.761,-0.025
8.762,-0.020
8.763,-0.028
8.764,-0.048
8.765,-0.072
8.766,-0.068
8.767,-0.081
8.768,-0.074
8.769,-0.050
8.770,-0.053
8.771,-0.056
8.772,-0.086
8.773,-0.116
8.774,-0.105
8.775,-0.122
8.776,-0.111
8.777,-0.081
8.778,-0.100
8.779,-0.088
8.780,-0.100
8.781,-0.119
8.782,-0.116
8.783,-0.138
8.784,-0.121
8.785,-0.091
8.786,-0.097
8.787,-0.094
8.788,-0.098
8.789,-0.116
8.790,-0.126
8.791,-0.141
8.792,-0.139
8.793,-0.122
8.794,-0.102
8.795,-0.103
8.796,-0.098
8.797,-0.113
8.798,-0.126
8.799,-0.138
8.800,-0.130
8.801,-0.122
8.802,-0.097
8.803,-0.091
8.804,-0.086
8.805,-0.097
8.806,-0.119
8.807,-0.138
8.808,-0.144
8.809,-0.144
8.810,-0.118
8.811,-0.097
8.812,-0.097
8.813,-0.091
8.814,-0.103
8.815,-0.119
8.816,-0.118
8.817,-0.128
8.818,-0.106
8.819,-0.084
8.820,-0.098
8.821,-0.088
8.822,-0.106
8.823,-0.134
8.824,-0.126
8.825,-0.144
8.826,-0.127
8.827,-0.097
8.828,-0.108
8.829,-0.088
8.830,-0.095
8.831,-0.113
8.832,-0.114
8.833,-0.134
8.834,-0.121
8.835,-0.097
8.836,-0.097
8.837,-0.081
8.838,-0.091
8.839,-0.109
8.840,-0.116
8.841,-0.134
8.842,-0.133
8.843,-0.116
8.844,-0.093
8.845,-0.091
8.846,-0.081
8.847,-0.088
8.848,-0.103
8.849,-0.119
8.850,-0.118
8.851,-0.106
8.852,-0.091
8.853,-0.084
8.854,-0.079
8.855,-0.091
8.856,-0.113
8.857,-0.125
8.858,-0.122
8.859,-0.116
8.860,-0.096
8.861,-0.078
8.862,-0.081
8.863,-0.072
8.864,-0.088
8.865,-0.109
8.866,-0.111
8.867,-0.122
8.868,-0.103
8.869,-0.078
8.870,-0.079
8.871,-0.072
8.872,-0.088
8.873,-0.103
8.874,-0.103
8.875,-0.116
8.876,-0.093
8.877,-0.063
8.878,-0.073
8.879,-0.063
8.880,-0.059
8.881,-0.078
8.882,-0.091
8.883,-0.109
8.884,-0.097
8.885,-0.069
8.886,-0.068
8.887,-0.056
8.888,-0.061
8.889,-0.075
8.890,-0.084
8.891,-0.094
8.892,-0.096
8.893,-0.075
8.894,-0.055
8.895,-0.047
8.896,-0.045
8.897,-0.056
8.898,-0.078
8.899,-0.097
8.900,-0.086
8.901,-0.075
8.902,-0.056
8.903,-0.044
8.904,-0.041
8.905,-0.044
8.906,-0.066
8.907,-0.081
8.908,-0.074
8.909,-0.069
8.910,-0.039
8.911,-0.019
8.912,-0.023
8.913,-0.013
8.914,-0.020
8.915,-0.047
8.916,-0.039
8.917,-0.050
8.918,-0.033
8.919,-0.006
8.920,-0.011
8.921,-0.003
8.922,-0.022
8.923,-0.044
8.924,-0.034
8.925,-0.044
8.926,-0.024
8.927,0.012
8.928,0.006
8.929,0.019
8.930,0.016
8.931,0.000
8.932,-0.001
8.933,-0.019
8.934,-0.006
8.935,0.016
8.936,0.025
8.937,0.041
8.938,0.036
8.939,0.025
8.940,0.024
8.941,0.009
8.942,0.017
8.943,0.041
8.944,0.066
8.945,0.075
8.946,0.083
8.947,0.075
8.948,0.058
8.949,0.044
8.950,0.053
8.951,0.066
8.952,0.095
8.953,0.109
8.954,0.111
8.955,0.106
8.956,0.091
8.957,0.081
8.958,0.079
8.959,0.087
8.960,0.116
8.961,0.134
8.962,0.133
8.963,0.137
8.964,0.128
8.965,0.112
8.966,0.117
8.967,0.109
8.968,0.126
8.969,0.162
8.970,0.156
8.971,0.169
8.972,0.159
8.973,0.150
8.974,0.149
8.975,0.137
8.976,0.161
8.977,0.191
8.978,0.187
8.979,0.203
8.980,0.197
8.981,0.178
8.982,0.183
8.983,0.162
8.984,0.186
8.985,0.212
8.986,0.219
8.987,0.234
8.988,0.228
8.989,0.216
8.990,0.206
8.991,0.191
8.992,0.195
8.993,0.216
8.994,0.237
8.995,0.237
8.996,0.244
8.997,0.228
8.998,0.209
8.999,0.191
9.000,0.186
9.001,0.187
9.002,0.204
9.003,0.209
9.004,0.209
9.005,0.200
9.006,0.178
9.007,0.153
9.008,0.144
9.009,0.144
9.010,0.162
9.011,0.169
9.012,0.152
9.013,0.150
9.014,0.127
9.015,0.091
9.016,0.087
9.017,0.072
9.018,0.084
9.019,0.100
9.020,0.086
9.021,0.087
9.022,0.066
9.023,0.037
9.024,0.025
9.025,0.003
9.026,0.011
9.027,0.034
9.028,0.024
9.029,0.031
9.030,0.016
9.031,-0.013
9.032,-0.020
9.033,-0.050
9.034,-0.046
9.035,-0.022
9.036,-0.027
9.037,-0.019
9.038,-0.029
9.039,-0.050
9.040,-0.064
9.041,-0.084
9.042,-0.083
9.043,-0.069
9.044,-0.056
9.045,-0.059
9.046,-0.056
9.047,-0.075
9.048,-0.094
9.049,-0.109
9.050,-0.108
9.051,-0.100
9.052,-0.081
9.053,-0.075
9.054,-0.073
9.055,-0.078
9.056,-0.097
9.057,-0.113
9.058,-0.119
9.059,-0.119
9.060,-0.099
9.061,-0.081
9.062,-0.084
9.063,-0.081
9.064,-0.100
9.065,-0.113
9.066,-0.119
9.067,-0.131
9.068,-0.119
9.069,-0.091
9.070,-0.100
9.071,-0.091
9.072,-0.103
9.073,-0.122
9.074,-0.119
9.075,-0.131
9.076,-0.109
9.077,-0.081
9.078,-0.092
9.079,-0.078
9.080,-0.091
9.081,-0.116
9.082,-0.109
9.083,-0.131
9.084,-0.119
9.085,-0.094
9.086,-0.093
9.087,-0.078
9.088,-0.081
9.089,-0.097
9.090,-0.111
9.091,-0.131
9.092,-0.122
9.093,-0.103
9.094,-0.093
9.095,-0.088
9.096,-0.079
9.097,-0.091
9.098,-0.108
9.099,-0.122
9.100,-0.116
9.101,-0.109
9.102,-0.093
9.103,-0.081
9.104,-0.073
9.105,-0.078
9.106,-0.098
9.107,-0.122
9.108,-0.127
9.109,-0.122
9.110,-0.096
9.111,-0.075
9.112,-0.083
9.113,-0.078
9.114,-0.097
9.115,-0.113
9.116,-0.108
9.117,-0.119
9.118,-0.108
9.119,-0.084
9.120,-0.088
9.121,-0.078
9.122,-0.089
9.123,-0.106
9.124,-0.114
9.125,-0.125
9.126,-0.102
9.127,-0.072
9.128,-0.081
9.129,-0.072
9.130,-0.078
9.131,-0.100
9.132,-0.100
9.133,-0.122
9.134,-0.108
9.135,-0.084
9.136,-0.088
9.137,-0.072
9.138,-0.081
9.139,-0.094
9.140,-0.100
9.141,-0.116
9.142,-0.111
9.143,-0.091
9.144,-0.072
9.145,-0.069
9.146,-0.066
9.147,-0.078
9.148,-0.098
9.149,-0.109
9.150,-0.108
9.151,-0.100
9.152,-0.083
9.153,-0.075
9.154,-0.073
9.155,-0.081
9.156,-0.098
9.157,-0.113
9.158,-0.116
9.159,-0.109
9.160,-0.091
9.161,-0.069
9.162,-0.073
9.163,-0.069
9.164,-0.086
9.165,-0.109
9.166,-0.109
9.167,-0.122
9.168,-0.102
9.169,-0.075
9.170,-0.078
9.171,-0.072
9.172,-0.089
9.173,-0.109
9.174,-0.111
9.175,-0.122
9.176,-0.102
9.177,-0.072
9.178,-0.083
9.179,-0.069
9.180,-0.079
9.181,-0.100
9.182,-0.100
9.183,-0.125
9.184,-0.114
9.185,-0.091
9.186,-0.092
9.187,-0.081
9.188,-0.091
9.189,-0.103
9.190,-0.106
9.191,-0.131
9.192,-0.121
9.193,-0.100
9.194,-0.081
9.195,-0.078
9.196,-0.075
9.197,-0.088
9.198,-0.106
9.199,-0.122
9.200,-0.118
9.201,-0.109
9.202,-0.093
9.203,-0.088
9.204,-0.081
9.205,-0.094
9.206,-0.108
9.207,-0.128
9.208,-0.128
9.209,-0.125
9.210,-0.100
9.211,-0.084
9.212,-0.084
9.213,-0.078
9.214,-0.101
9.215,-0.125
9.216,-0.122
9.217,-0.128
9.218,-0.118
9.219,-0.094
9.220,-0.094
9.221,-0.091
9.222,-0.101
9.223,-0.119
9.224,-0.125
9.225,-0.141
9.226,-0.121
9.227,-0.094
9.228,-0.100
9.229,-0.094
9.230,-0.111
9.231,-0.113
9.232,-0.125
9.233,-0.144
9.234,-0.122
9.235,-0.103
9.236,-0.105
9.237,-0.091
9.238,-0.113
9.239,-0.116
9.240,-0.123
9.241,-0.141
9.242,-0.121
9.243,-0.106
9.244,-0.102
9.245,-0.088
9.246,-0.108
9.247,-0.119
9.248,-0.117
9.249,-0.131
9.250,-0.130
9.251,-0.113
9.252,-0.113
9.253,-0.097
9.254,-0.098
9.255,-0.113
9.256,-0.119
9.257,-0.147
9.258,-0.146
9.259,-0.131
9.260,-0.122
9.261,-0.100
9.262,-0.098
9.263,-0.109
9.264,-0.111
9.265,-0.128
9.266,-0.141
9.267,-0.138
9.268,-0.124
9.269,-0.103
9.270,-0.100
9.271,-0.100
9.272,-0.114
9.273,-0.125
9.274,-0.134
9.275,-0.138
9.276,-0.124
9.277,-0.103
9.278,-0.097
9.279,-0.094
9.280,-0.119
9.281,-0.119
9.282,-0.133
9.283,-0.150
9.284,-0.125
9.285,-0.103
9.286,-0.099
9.287,-0.081
9.288,-0.104
9.289,-0.103
9.290,-0.113
9.291,-0.131
9.292,-0.105
9.293,-0.088
9.294,-0.080
9.295,-0.066
9.296,-0.092
9.297,-0.103
9.298,-0.113
9.299,-0.125
9.300,-0.111
9.301,-0.094
9.302,-0.081
9.303,-0.059
9.304,-0.059
9.305,-0.066
9.306,-0.073
9.307,-0.094
9.308,-0.093
9.309,-0.081
9.310,-0.074
9.311,-0.056
9.312,-0.048
9.313,-0.069
9.314,-0.073
9.315,-0.091
9.316,-0.104
9.317,-0.106
9.318,-0.091
9.319,-0.072
9.320,-0.076
9.321,-0.075
9.322,-0.075
9.323,-0.084
9.324,-0.076
9.325,-0.063
9.326,-0.044
9.327,-0.025
9.328,-0.025
9.329,-0.019
9.330,-0.033
9.331,-0.050
9.332,-0.067
9.333,-0.084
9.334,-0.061
9.335,-0.050
9.336,-0.059
9.337,-0.047
9.338,-0.076
9.339,-0.088
9.340,-0.072
9.341,-0.063
9.342,-0.030
9.343,0.000
9.344,0.000
9.345,0.006
9.346,-0.011
9.347,-0.009
9.348,-0.029
9.349,-0.066
9.350,-0.097
9.351,-0.109
9.352,-0.108
9.353,-0.094
9.354,-0.103
9.355,-0.109
9.356,-0.119
9.357,-0.138
9.358,-0.136
9.359,-0.131
9.360,-0.130
9.361,-0.113
9.362,-0.116
9.363,-0.128
9.364,-0.134
9.365,-0.156
9.366,-0.161
9.367,-0.153
9.368,-0.139
9.369,-0.122
9.370,-0.122
9.371,-0.125
9.372,-0.134
9.373,-0.153
9.374,-0.166
9.375,-0.172
9.376,-0.152
9.377,-0.134
