'Elapsed time','II'
'seconds','mV'
0.000,0.006
0.001,0.009
0.002,0.012
0.003,0.016
0.004,0.022
0.005,0.028
0.006,0.028
0.007,0.028
0.008,0.031
0.009,0.034
0.010,0.034
0.011,0.034
0.012,0.038
0.013,0.041
0.014,0.044
0.015,0.047
0.016,0.050
0.017,0.053
0.018,0.054
0.019,0.056
0.020,0.059
0.021,0.062
0.022,0.067
0.023,0.072
0.024,0.073
0.025,0.075
0.026,0.076
0.027,0.078
0.028,0.081
0.029,0.084
0.030,0.087
0.031,0.091
0.032,0.095
0.033,0.100
0.034,0.100
0.035,0.100
0.036,0.104
0.037,0.109
0.038,0.111
0.039,0.113
0.040,0.116
0.041,0.119
0.042,0.123
0.043,0.128
0.044,0.134
0.045,0.141
0.046,0.141
0.047,0.141
0.048,0.145
0.049,0.150
0.050,0.154
0.051,0.159
0.052,0.166
0.053,0.172
0.054,0.172
0.055,0.172
0.056,0.175
0.057,0.178
0.058,0.179
0.059,0.181
0.060,0.181
0.061,0.181
0.062,0.186
0.063,0.191
0.064,0.194
0.065,0.197
0.066,0.198
0.067,0.200
0.068,0.200
0.069,0.200
0.070,0.204
0.071,0.209
0.072,0.209
0.073,0.209
0.074,0.211
0.075,0.213
0.076,0.213
0.077,0.213
0.078,0.216
0.079,0.219
0.080,0.223
0.081,0.228
0.082,0.228
0.083,0.228
0.084,0.225
0.085,0.222
0.086,0.223
0.087,0.225
0.088,0.229
0.089,0.234
0.090,0.234
0.091,0.234
0.092,0.233
0.093,0.231
0.094,0.231
0.095,0.231
0.096,0.231
0.097,0.231
0.098,0.228
0.099,0.225
0.100,0.222
0.101,0.219
0.102,0.217
0.103,0.216
0.104,0.214
0.105,0.213
0.106,0.208
0.107,0.203
0.108,0.197
0.109,0.191
0.110,0.183
0.111,0.175
0.112,0.174
0.113,0.172
0.114,0.169
0.115,0.166
0.116,0.159
0.117,0.153
0.118,0.149
0.119,0.144
0.120,0.141
0.121,0.137
0.122,0.133
0.123,0.128
0.124,0.125
0.125,0.122
0.126,0.116
0.127,0.109
0.128,0.106
0.129,0.103
0.130,0.099
0.131,0.094
0.132,0.089
0.133,0.084
0.134,0.080
0.135,0.075
0.136,0.072
0.137,0.069
0.138,0.066
0.139,0.062
0.140,0.052
0.141,0.041
0.142,0.036
0.143,0.031
0.144,0.031
0.145,0.031
0.146,0.028
0.147,0.025
0.148,0.025
0.149,0.025
0.150,0.022
0.151,0.019
0.152,0.014
0.153,0.009
0.154,0.008
0.155,0.006
0.156,0.002
0.157,-0.003
0.158,-0.004
0.159,-0.006
0.160,-0.006
0.161,-0.006
0.162,-0.009
0.163,-0.013
0.164,-0.014
0.165,-0.016
0.166,-0.016
0.167,-0.016
0.168,-0.017
0.169,-0.019
0.170,-0.022
0.171,-0.025
0.172,-0.028
0.173,-0.031
0.174,-0.033
0.175,-0.034
0.176,-0.038
0.177,-0.041
0.178,-0.042
0.179,-0.044
0.180,-0.044
0.181,-0.044
0.182,-0.044
0.183,-0.044
0.184,-0.047
0.185,-0.050
0.186,-0.049
0.187,-0.047
0.188,-0.047
0.189,-0.047
0.190,-0.046
0.191,-0.044
0.192,-0.041
0.193,-0.038
0.194,-0.039
0.195,-0.041
0.196,-0.041
0.197,-0.041
0.198,-0.042
0.199,-0.044
0.200,-0.045
0.201,-0.047
0.202,-0.047
0.203,-0.047
0.204,-0.048
0.205,-0.050
0.206,-0.050
0.207,-0.050
0.208,-0.050
0.209,-0.050
0.210,-0.050
0.211,-0.050
0.212,-0.049
0.213,-0.047
0.214,-0.041
0.215,-0.034
0.216,-0.034
0.217,-0.034
0.218,-0.034
0.219,-0.034
0.220,-0.034
0.221,-0.034
0.222,-0.036
0.223,-0.038
0.224,-0.041
0.225,-0.044
0.226,-0.045
0.227,-0.047
0.228,-0.043
0.229,-0.038
0.230,-0.038
0.231,-0.038
0.232,-0.038
0.233,-0.038
0.234,-0.039
0.235,-0.041
0.236,-0.042
0.237,-0.044
0.238,-0.044
0.239,-0.044
0.240,-0.041
0.241,-0.038
0.242,-0.038
0.243,-0.038
0.244,-0.039
0.245,-0.041
0.246,-0.041
0.247,-0.041
0.248,-0.041
0.249,-0.041
0.250,-0.041
0.251,-0.041
0.252,-0.042
0.253,-0.044
0.254,-0.044
0.255,-0.044
0.256,-0.038
0.257,-0.031
0.258,-0.031
0.259,-0.031
0.260,-0.033
0.261,-0.034
0.262,-0.039
0.263,-0.044
0.264,-0.044
0.265,-0.044
0.266,-0.043
0.267,-0.041
0.268,-0.041
0.269,-0.041
0.270,-0.042
0.271,-0.044
0.272,-0.045
0.273,-0.047
0.274,-0.046
0.275,-0.044
0.276,-0.043
0.277,-0.041
0.278,-0.042
0.279,-0.044
0.280,-0.044
0.281,-0.044
0.282,-0.044
0.283,-0.044
0.284,-0.043
0.285,-0.041
0.286,-0.042
0.287,-0.044
0.288,-0.045
0.289,-0.047
0.290,-0.047
0.291,-0.047
0.292,-0.047
0.293,-0.047
0.294,-0.047
0.295,-0.047
0.296,-0.048
0.297,-0.050
0.298,-0.050
0.299,-0.050
0.300,-0.050
0.301,-0.050
0.302,-0.050
0.303,-0.050
0.304,-0.051
0.305,-0.053
0.306,-0.053
0.307,-0.053
0.308,-0.053
0.309,-0.053
0.310,-0.053
0.311,-0.053
0.312,-0.054
0.313,-0.056
0.314,-0.056
0.315,-0.056
0.316,-0.055
0.317,-0.053
0.318,-0.053
0.319,-0.053
0.320,-0.057
0.321,-0.062
0.322,-0.064
0.323,-0.066
0.324,-0.062
0.325,-0.059
0.326,-0.058
0.327,-0.056
0.328,-0.056
0.329,-0.056
0.330,-0.059
0.331,-0.062
0.332,-0.064
0.333,-0.066
0.334,-0.066
0.335,-0.066
0.336,-0.066
0.337,-0.066
0.338,-0.066
0.339,-0.066
0.340,-0.066
0.341,-0.066
0.342,-0.066
0.343,-0.066
0.344,-0.067
0.345,-0.069
0.346,-0.069
0.347,-0.069
0.348,-0.070
0.349,-0.072
0.350,-0.069
0.351,-0.066
0.352,-0.067
0.353,-0.069
0.354,-0.068
0.355,-0.066
0.356,-0.069
0.357,-0.072
0.358,-0.071
0.359,-0.069
0.360,-0.070
0.361,-0.072
0.362,-0.069
0.363,-0.066
0.364,-0.066
0.365,-0.066
0.366,-0.066
0.367,-0.066
0.368,-0.066
0.369,-0.066
0.370,-0.069
0.371,-0.072
0.372,-0.072
0.373,-0.072
0.374,-0.072
0.375,-0.072
0.376,-0.072
0.377,-0.072
0.378,-0.072
0.379,-0.072
0.380,-0.072
0.381,-0.072
0.382,-0.072
0.383,-0.072
0.384,-0.073
0.385,-0.075
0.386,-0.075
0.387,-0.075
0.388,-0.075
0.389,-0.075
0.390,-0.075
0.391,-0.075
0.392,-0.075
0.393,-0.075
0.394,-0.074
0.395,-0.072
0.396,-0.072
0.397,-0.072
0.398,-0.072
0.399,-0.072
0.400,-0.072
0.401,-0.072
0.402,-0.073
0.403,-0.075
0.404,-0.075
0.405,-0.075
0.406,-0.075
0.407,-0.075
0.408,-0.075
0.409,-0.075
0.410,-0.076
0.411,-0.078
0.412,-0.078
0.413,-0.078
0.414,-0.078
0.415,-0.078
0.416,-0.078
0.417,-0.078
0.418,-0.079
0.419,-0.081
0.420,-0.081
0.421,-0.081
0.422,-0.081
0.423,-0.081
0.424,-0.083
0.425,-0.084
0.426,-0.080
0.427,-0.075
0.428,-0.075
0.429,-0.075
0.430,-0.076
0.431,-0.078
0.432,-0.079
0.433,-0.081
0.434,-0.080
0.435,-0.078
0.436,-0.078
0.437,-0.078
0.438,-0.078
0.439,-0.078
0.440,-0.077
0.441,-0.075
0.442,-0.075
0.443,-0.075
0.444,-0.076
0.445,-0.078
0.446,-0.077
0.447,-0.078
0.448,-0.079
0.449,-0.078
0.450,-0.078
0.451,-0.078
0.452,-0.078
0.453,-0.078
0.454,-0.078
0.455,-0.078
0.456,-0.079
0.457,-0.081
0.458,-0.084
0.459,-0.084
0.460,-0.083
0.461,-0.084
0.462,-0.078
0.463,-0.075
0.464,-0.077
0.465,-0.075
0.466,-0.079
0.467,-0.081
0.468,-0.081
0.469,-0.084
0.470,-0.081
0.471,-0.081
0.472,-0.083
0.473,-0.081
0.474,-0.081
0.475,-0.081
0.476,-0.081
0.477,-0.081
0.478,-0.083
0.479,-0.084
0.480,-0.083
0.481,-0.084
0.482,-0.081
0.483,-0.081
0.484,-0.081
0.485,-0.081
0.486,-0.078
0.487,-0.075
0.488,-0.079
0.489,-0.081
0.490,-0.081
0.491,-0.081
0.492,-0.080
0.493,-0.078
0.494,-0.078
0.495,-0.078
0.496,-0.078
0.497,-0.078
0.498,-0.078
0.499,-0.078
0.500,-0.079
0.501,-0.081
0.502,-0.084
0.503,-0.088
0.504,-0.089
0.505,-0.088
0.506,-0.084
0.507,-0.081
0.508,-0.078
0.509,-0.078
0.510,-0.078
0.511,-0.081
0.512,-0.079
0.513,-0.084
0.514,-0.084
0.515,-0.081
0.516,-0.080
0.517,-0.078
0.518,-0.079
0.519,-0.081
0.520,-0.078
0.521,-0.075
0.522,-0.076
0.523,-0.078
0.524,-0.081
0.525,-0.084
0.526,-0.083
0.527,-0.084
0.528,-0.084
0.529,-0.084
0.530,-0.081
0.531,-0.081
0.532,-0.083
0.533,-0.078
0.534,-0.081
0.535,-0.081
0.536,-0.078
0.537,-0.075
0.538,-0.073
0.539,-0.075
0.540,-0.076
0.541,-0.078
0.542,-0.080
0.543,-0.081
0.544,-0.081
0.545,-0.084
0.546,-0.089
0.547,-0.088
0.548,-0.086
0.549,-0.084
0.550,-0.084
0.551,-0.081
0.552,-0.080
0.553,-0.078
0.554,-0.075
0.555,-0.072
0.556,-0.076
0.557,-0.078
0.558,-0.076
0.559,-0.078
0.560,-0.078
0.561,-0.078
0.562,-0.078
0.563,-0.078
0.564,-0.079
0.565,-0.081
0.566,-0.081
0.567,-0.081
0.568,-0.083
0.569,-0.081
0.570,-0.077
0.571,-0.078
0.572,-0.078
0.573,-0.081
0.574,-0.078
0.575,-0.078
0.576,-0.083
0.577,-0.081
0.578,-0.081
0.579,-0.081
0.580,-0.081
0.581,-0.081
0.582,-0.083
0.583,-0.081
0.584,-0.080
0.585,-0.081
0.586,-0.078
0.587,-0.081
0.588,-0.080
0.589,-0.081
0.590,-0.081
0.591,-0.084
0.592,-0.084
0.593,-0.084
0.594,-0.086
0.595,-0.081
0.596,-0.080
0.597,-0.078
0.598,-0.081
0.599,-0.084
0.600,-0.086
0.601,-0.088
0.602,-0.088
0.603,-0.088
0.604,-0.088
0.605,-0.088
0.606,-0.084
0.607,-0.084
0.608,-0.083
0.609,-0.081
0.610,-0.084
0.611,-0.084
0.612,-0.083
0.613,-0.081
0.614,-0.080
0.615,-0.078
0.616,-0.079
0.617,-0.081
0.618,-0.081
0.619,-0.081
0.620,-0.081
0.621,-0.081
0.622,-0.081
0.623,-0.081
0.624,-0.081
0.625,-0.081
0.626,-0.083
0.627,-0.081
0.628,-0.083
0.629,-0.084
0.630,-0.088
0.631,-0.084
0.632,-0.083
0.633,-0.081
0.634,-0.081
0.635,-0.081
0.636,-0.080
0.637,-0.078
0.638,-0.081
0.639,-0.081
0.640,-0.081
0.641,-0.081
0.642,-0.081
0.643,-0.081
0.644,-0.080
0.645,-0.075
0.646,-0.075
0.647,-0.078
0.648,-0.076
0.649,-0.081
0.650,-0.081
0.651,-0.081
0.652,-0.077
0.653,-0.075
0.654,-0.076
0.655,-0.078
0.656,-0.076
0.657,-0.081
0.658,-0.081
0.659,-0.081
0.660,-0.077
0.661,-0.075
0.662,-0.078
0.663,-0.078
0.664,-0.077
0.665,-0.075
0.666,-0.076
0.667,-0.078
0.668,-0.075
0.669,-0.075
0.670,-0.074
0.671,-0.072
0.672,-0.075
0.673,-0.075
0.674,-0.077
0.675,-0.075
0.676,-0.076
0.677,-0.078
0.678,-0.076
0.679,-0.075
0.680,-0.074
0.681,-0.072
0.682,-0.076
0.683,-0.075
0.684,-0.075
0.685,-0.078
0.686,-0.079
0.687,-0.081
0.688,-0.081
0.689,-0.081
0.690,-0.080
0.691,-0.078
0.692,-0.079
0.693,-0.081
0.694,-0.078
0.695,-0.075
0.696,-0.076
0.697,-0.078
0.698,-0.083
0.699,-0.088
0.700,-0.092
0.701,-0.091
0.702,-0.084
0.703,-0.078
0.704,-0.072
0.705,-0.072
0.706,-0.073
0.707,-0.072
0.708,-0.071
0.709,-0.069
0.710,-0.075
0.711,-0.078
0.712,-0.079
0.713,-0.081
0.714,-0.081
0.715,-0.081
0.716,-0.079
0.717,-0.081
0.718,-0.080
0.719,-0.081
0.720,-0.078
0.721,-0.081
0.722,-0.080
0.723,-0.075
0.724,-0.078
0.725,-0.075
0.726,-0.075
0.727,-0.078
0.728,-0.079
0.729,-0.078
0.730,-0.083
0.731,-0.081
0.732,-0.077
0.733,-0.072
0.734,-0.072
0.735,-0.075
0.736,-0.076
0.737,-0.078
0.738,-0.083
0.739,-0.081
0.740,-0.079
0.741,-0.081
0.742,-0.078
0.743,-0.075
0.744,-0.074
0.745,-0.069
0.746,-0.062
0.747,-0.056
0.748,-0.059
0.749,-0.062
0.750,-0.067
0.751,-0.069
0.752,-0.059
0.753,-0.050
0.754,-0.046
0.755,-0.041
0.756,-0.038
0.757,-0.034
0.758,-0.024
0.759,-0.013
0.760,-0.011
0.761,-0.003
0.762,0.002
0.763,0.003
0.764,0.011
0.765,0.016
0.766,0.022
0.767,0.025
0.768,0.027
0.769,0.025
0.770,0.028
0.771,0.028
0.772,0.030
0.773,0.028
0.774,0.024
0.775,0.022
0.776,0.026
0.777,0.034
0.778,0.042
0.779,0.047
0.780,0.051
0.781,0.059
0.782,0.066
0.783,0.069
0.784,0.071
0.785,0.072
0.786,0.075
0.787,0.081
0.788,0.091
0.789,0.100
0.790,0.100
0.791,0.106
0.792,0.111
0.793,0.113
0.794,0.114
0.795,0.116
0.796,0.111
0.797,0.113
0.798,0.117
0.799,0.119
0.800,0.122
0.801,0.125
0.802,0.122
0.803,0.122
0.804,0.122
0.805,0.119
0.806,0.108
0.807,0.094
0.808,0.084
0.809,0.078
0.810,0.073
0.811,0.069
0.812,0.069
0.813,0.066
0.814,0.066
0.815,0.066
0.816,0.062
0.817,0.059
0.818,0.056
0.819,0.050
0.820,0.043
0.821,0.041
0.822,0.038
0.823,0.034
0.824,0.031
0.825,0.028
0.826,0.022
0.827,0.019
0.828,0.009
0.829,0.000
0.830,-0.008
0.831,-0.013
0.832,-0.019
0.833,-0.025
0.834,-0.031
0.835,-0.034
0.836,-0.036
0.837,-0.034
0.838,-0.041
0.839,-0.044
0.840,-0.047
0.841,-0.050
0.842,-0.050
0.843,-0.053
0.844,-0.056
0.845,-0.059
0.846,-0.062
0.847,-0.066
0.848,-0.068
0.849,-0.066
0.850,-0.070
0.851,-0.072
0.852,-0.075
0.853,-0.081
0.854,-0.083
0.855,-0.081
0.856,-0.083
0.857,-0.081
0.858,-0.084
0.859,-0.081
0.860,-0.084
0.861,-0.088
0.862,-0.092
0.863,-0.094
0.864,-0.094
0.865,-0.094
0.866,-0.094
0.867,-0.094
0.868,-0.098
0.869,-0.103
0.870,-0.106
0.871,-0.106
0.872,-0.103
0.873,-0.103
0.874,-0.104
0.875,-0.106
0.876,-0.106
0.877,-0.106
0.878,-0.105
0.879,-0.103
0.880,-0.106
0.881,-0.106
0.882,-0.106
0.883,-0.106
0.884,-0.106
0.885,-0.106
0.886,-0.106
0.887,-0.106
0.888,-0.105
0.889,-0.106
0.890,-0.108
0.891,-0.106
0.892,-0.105
0.893,-0.103
0.894,-0.108
0.895,-0.106
0.896,-0.104
0.897,-0.103
0.898,-0.103
0.899,-0.106
0.900,-0.117
0.901,-0.119
0.902,-0.128
0.903,-0.137
0.904,-0.141
0.905,-0.147
0.906,-0.153
0.907,-0.159
0.908,-0.166
0.909,-0.175
0.910,-0.175
0.911,-0.163
0.912,-0.144
0.913,-0.119
0.914,-0.088
0.915,-0.053
0.916,-0.020
0.917,0.006
0.918,0.033
0.919,0.059
0.920,0.081
0.921,0.119
0.922,0.181
0.923,0.262
0.924,0.367
0.925,0.437
0.926,0.522
0.927,0.606
0.928,0.698
0.929,0.800
0.930,0.888
0.931,0.966
0.932,1.022
0.933,1.103
0.934,1.191
0.935,1.259
0.936,1.323
0.937,1.372
0.938,1.379
0.939,1.341
0.940,1.281
0.941,1.212
0.942,1.150
0.943,1.063
0.944,0.969
0.945,0.862
0.946,0.747
0.947,0.638
0.948,0.534
0.949,0.441
0.950,0.378
0.951,0.331
0.952,0.306
0.953,0.297
0.954,0.288
0.955,0.278
0.956,0.252
0.957,0.222
0.958,0.196
0.959,0.178
0.960,0.170
0.961,0.153
0.962,0.136
0.963,0.125
0.964,0.114
0.965,0.103
0.966,0.096
0.967,0.087
0.968,0.084
0.969,0.075
0.970,0.069
0.971,0.066
0.972,0.059
0.973,0.050
0.974,0.038
0.975,0.028
0.976,0.021
0.977,0.009
0.978,0.000
0.979,-0.009
0.980,-0.019
0.981,-0.031
0.982,-0.034
0.983,-0.038
0.984,-0.039
0.985,-0.041
0.986,-0.044
0.987,-0.044
0.988,-0.046
0.989,-0.044
0.990,-0.044
0.991,-0.044
0.992,-0.047
0.993,-0.050
0.994,-0.053
0.995,-0.056
0.996,-0.062
0.997,-0.062
0.998,-0.066
0.999,-0.066
1.000,-0.069
1.001,-0.069
1.002,-0.070
1.003,-0.072
1.004,-0.073
1.005,-0.075
1.006,-0.072
1.007,-0.072
1.008,-0.072
1.009,-0.072
1.010,-0.072
1.011,-0.072
1.012,-0.068
1.013,-0.066
1.014,-0.067
1.015,-0.072
1.016,-0.076
1.017,-0.081
1.018,-0.081
1.019,-0.081
1.020,-0.077
1.021,-0.069
1.022,-0.069
1.023,-0.066
1.024,-0.066
1.025,-0.066
1.026,-0.064
1.027,-0.066
1.028,-0.066
1.029,-0.066
1.030,-0.062
1.031,-0.059
1.032,-0.061
1.033,-0.066
1.034,-0.062
1.035,-0.066
1.036,-0.067
1.037,-0.069
1.038,-0.067
1.039,-0.069
1.040,-0.064
1.041,-0.062
1.042,-0.061
1.043,-0.059
1.044,-0.057
1.045,-0.059
1.046,-0.058
1.047,-0.053
1.048,-0.053
1.049,-0.053
1.050,-0.054
1.051,-0.056
1.052,-0.052
1.053,-0.050
1.054,-0.052
1.055,-0.050
1.056,-0.048
1.057,-0.050
1.058,-0.051
1.059,-0.050
1.060,-0.050
1.061,-0.047
1.062,-0.043
1.063,-0.038
1.064,-0.039
1.065,-0.038
1.066,-0.036
1.067,-0.038
1.068,-0.038
1.069,-0.041
1.070,-0.039
1.071,-0.041
1.072,-0.039
1.073,-0.034
1.074,-0.034
1.075,-0.034
1.076,-0.033
1.077,-0.034
1.078,-0.033
1.079,-0.028
1.080,-0.028
1.081,-0.028
1.082,-0.024
1.083,-0.022
1.084,-0.023
1.085,-0.025
1.086,-0.025
1.087,-0.022
1.088,-0.019
1.089,-0.019
1.090,-0.019
1.091,-0.019
1.092,-0.014
1.093,-0.013
1.094,-0.013
1.095,-0.013
1.096,-0.014
1.097,-0.016
1.098,-0.013
1.099,-0.006
1.100,-0.005
1.101,-0.003
1.102,-0.001
1.103,-0.003
1.104,-0.003
1.105,-0.003
1.106,-0.003
1.107,-0.006
1.108,-0.003
1.109,-0.003
1.110,-0.001
1.111,0.000
1.112,-0.001
1.113,-0.003
1.114,0.003
1.115,0.006
1.116,0.007
1.117,0.012
1.118,0.019
1.119,0.025
1.120,0.024
1.121,0.022
1.122,0.024
1.123,0.022
1.124,0.026
1.125,0.028
1.126,0.025
1.127,0.028
1.128,0.031
1.129,0.034
1.130,0.034
1.131,0.034
1.132,0.034
1.133,0.038
1.134,0.039
1.135,0.041
1.136,0.048
1.137,0.047
1.138,0.053
1.139,0.059
1.140,0.056
1.141,0.059
1.142,0.059
1.143,0.062
1.144,0.064
1.145,0.066
1.146,0.070
1.147,0.075
1.148,0.077
1.149,0.078
1.150,0.081
1.151,0.081
1.152,0.087
1.153,0.091
1.154,0.097
1.155,0.100
1.156,0.103
1.157,0.106
1.158,0.106
1.159,0.106
1.160,0.109
1.161,0.113
1.162,0.119
1.163,0.122
1.164,0.126
1.165,0.134
1.166,0.137
1.167,0.141
1.168,0.145
1.169,0.150
1.170,0.150
1.171,0.153
1.172,0.156
1.173,0.159
1.174,0.159
1.175,0.159
1.176,0.162
1.177,0.169
1.178,0.174
1.179,0.175
1.180,0.173
1.181,0.178
1.182,0.184
1.183,0.191
1.184,0.191
1.185,0.191
1.186,0.192
1.187,0.194
1.188,0.196
1.189,0.194
1.190,0.203
1.191,0.206
1.192,0.213
1.193,0.216
1.194,0.222
1.195,0.225
1.196,0.227
1.197,0.228
1.198,0.230
1.199,0.228
1.200,0.225
1.201,0.225
1.202,0.225
1.203,0.225
1.204,0.229
1.205,0.231
1.206,0.234
1.207,0.237
1.208,0.239
1.209,0.241
1.210,0.241
1.211,0.241
1.212,0.242
1.213,0.241
1.214,0.242
1.215,0.241
1.216,0.244
1.217,0.241
1.218,0.241
1.219,0.241
1.220,0.245
1.221,0.241
1.222,0.245
1.223,0.244
1.224,0.241
1.225,0.237
1.226,0.236
1.227,0.234
1.228,0.233
1.229,0.228
1.230,0.222
1.231,0.222
1.232,0.216
1.233,0.213
1.234,0.211
1.235,0.206
1.236,0.196
1.237,0.187
1.238,0.178
1.239,0.169
1.240,0.169
1.241,0.166
1.242,0.162
1.243,0.162
1.244,0.162
1.245,0.159
1.246,0.155
1.247,0.150
1.248,0.144
1.249,0.144
1.250,0.141
1.251,0.134
1.252,0.127
1.253,0.119
1.254,0.113
1.255,0.109
1.256,0.103
1.257,0.100
1.258,0.098
1.259,0.097
1.260,0.092
1.261,0.087
1.262,0.081
1.263,0.078
1.264,0.075
1.265,0.072
1.266,0.067
1.267,0.062
1.268,0.056
1.269,0.044
1.270,0.039
1.271,0.038
1.272,0.038
1.273,0.038
1.274,0.034
1.275,0.028
1.276,0.024
1.277,0.016
1.278,0.014
1.279,0.009
1.280,0.011
1.281,0.009
1.282,0.006
1.283,0.003
1.284,-0.001
1.285,-0.006
1.286,-0.008
1.287,-0.009
1.288,-0.011
1.289,-0.013
1.290,-0.020
1.291,-0.025
1.292,-0.027
1.293,-0.025
1.294,-0.021
1.295,-0.019
1.296,-0.025
1.297,-0.031
1.298,-0.030
1.299,-0.031
1.300,-0.034
1.301,-0.034
1.302,-0.036
1.303,-0.038
1.304,-0.041
1.305,-0.044
1.306,-0.038
1.307,-0.034
1.308,-0.038
1.309,-0.038
1.310,-0.039
1.311,-0.041
1.312,-0.042
1.313,-0.044
1.314,-0.039
1.315,-0.038
1.316,-0.038
1.317,-0.041
1.318,-0.042
1.319,-0.047
1.320,-0.045
1.321,-0.050
1.322,-0.050
1.323,-0.050
1.324,-0.050
1.325,-0.050
1.326,-0.053
1.327,-0.053
1.328,-0.053
1.329,-0.053
1.330,-0.052
1.331,-0.050
1.332,-0.048
1.333,-0.050
1.334,-0.046
1.335,-0.047
1.336,-0.050
1.337,-0.050
1.338,-0.047
1.339,-0.044
1.340,-0.044
1.341,-0.044
1.342,-0.045
1.343,-0.044
1.344,-0.044
1.345,-0.047
1.346,-0.050
1.347,-0.050
1.348,-0.051
1.349,-0.050
1.350,-0.049
1.351,-0.047
1.352,-0.049
1.353,-0.044
1.354,-0.041
1.355,-0.044
1.356,-0.048
1.357,-0.050
1.358,-0.053
1.359,-0.053
1.360,-0.050
1.361,-0.047
1.362,-0.043
1.363,-0.047
1.364,-0.043
1.365,-0.041
1.366,-0.042
1.367,-0.044
1.368,-0.044
1.369,-0.047
1.370,-0.046
1.371,-0.047
1.372,-0.047
1.373,-0.047
1.374,-0.044
1.375,-0.041
1.376,-0.039
1.377,-0.041
1.378,-0.039
1.379,-0.041
1.380,-0.039
1.381,-0.041
1.382,-0.042
1.383,-0.047
1.384,-0.043
1.385,-0.041
1.386,-0.038
1.387,-0.038
1.388,-0.042
1.389,-0.047
1.390,-0.043
1.391,-0.044
1.392,-0.044
1.393,-0.041
1.394,-0.038
1.395,-0.038
1.396,-0.039
1.397,-0.038
1.398,-0.041
1.399,-0.041
1.400,-0.038
1.401,-0.034
1.402,-0.041
1.403,-0.041
1.404,-0.044
1.405,-0.047
1.406,-0.045
1.407,-0.047
1.408,-0.048
1.409,-0.050
1.410,-0.050
1.411,-0.050
1.412,-0.050
1.413,-0.050
1.414,-0.049
1.415,-0.047
1.416,-0.044
1.417,-0.038
1.418,-0.039
1.419,-0.041
1.420,-0.042
1.421,-0.047
1.422,-0.048
1.423,-0.050
1.424,-0.051
1.425,-0.053
1.426,-0.053
1.427,-0.053
1.428,-0.052
1.429,-0.053
1.430,-0.054
1.431,-0.056
1.432,-0.061
1.433,-0.059
1.434,-0.056
1.435,-0.053
1.436,-0.052
1.437,-0.050
1.438,-0.053
1.439,-0.053
1.440,-0.056
1.441,-0.056
1.442,-0.057
1.443,-0.059
1.444,-0.061
1.445,-0.062
1.446,-0.062
1.447,-0.062
1.448,-0.062
1.449,-0.062
1.450,-0.064
1.451,-0.066
1.452,-0.070
1.453,-0.072
1.454,-0.071
1.455,-0.069
1.456,-0.069
1.457,-0.069
1.458,-0.070
1.459,-0.072
1.460,-0.071
1.461,-0.072
1.462,-0.072
1.463,-0.072
1.464,-0.072
1.465,-0.072
1.466,-0.073
1.467,-0.072
1.468,-0.069
1.469,-0.069
1.470,-0.072
1.471,-0.069
1.472,-0.072
1.473,-0.072
1.474,-0.069
1.475,-0.069
1.476,-0.071
1.477,-0.069
1.478,-0.069
1.479,-0.069
1.480,-0.069
1.481,-0.069
1.482,-0.070
1.483,-0.069
1.484,-0.075
1.485,-0.072
1.486,-0.075
1.487,-0.075
1.488,-0.075
1.489,-0.075
1.490,-0.075
1.491,-0.078
1.492,-0.079
1.493,-0.084
1.494,-0.081
1.495,-0.081
1.496,-0.081
1.497,-0.078
1.498,-0.077
1.499,-0.078
1.500,-0.078
1.501,-0.081
1.502,-0.084
1.503,-0.091
1.504,-0.088
1.505,-0.088
1.506,-0.088
1.507,-0.084
1.508,-0.084
1.509,-0.084
1.510,-0.084
1.511,-0.084
1.512,-0.089
1.513,-0.088
1.514,-0.089
1.515,-0.091
1.516,-0.088
1.517,-0.088
1.518,-0.088
1.519,-0.088
1.520,-0.089
1.521,-0.088
1.522,-0.083
1.523,-0.084
1.524,-0.081
1.525,-0.081
1.526,-0.084
1.527,-0.084
1.528,-0.084
1.529,-0.088
1.530,-0.089
1.531,-0.088
1.532,-0.088
1.533,-0.088
1.534,-0.088
1.535,-0.088
1.536,-0.084
1.537,-0.081
1.538,-0.081
1.539,-0.081
1.540,-0.086
1.541,-0.084
1.542,-0.078
1.543,-0.075
1.544,-0.075
1.545,-0.075
1.546,-0.079
1.547,-0.081
1.548,-0.081
1.549,-0.081
1.550,-0.084
1.551,-0.088
1.552,-0.088
1.553,-0.088
1.554,-0.088
1.555,-0.088
1.556,-0.091
1.557,-0.091
1.558,-0.089
1.559,-0.088
1.560,-0.092
1.561,-0.091
1.562,-0.091
1.563,-0.094
1.564,-0.092
1.565,-0.091
1.566,-0.093
1.567,-0.091
1.568,-0.086
1.569,-0.088
1.570,-0.089
1.571,-0.091
1.572,-0.091
1.573,-0.091
1.574,-0.089
1.575,-0.088
1.576,-0.084
1.577,-0.088
1.578,-0.088
1.579,-0.088
1.580,-0.091
1.581,-0.088
1.582,-0.088
1.583,-0.088
1.584,-0.089
1.585,-0.091
1.586,-0.091
1.587,-0.091
1.588,-0.089
1.589,-0.084
1.590,-0.088
1.591,-0.088
1.592,-0.089
1.593,-0.091
1.594,-0.091
1.595,-0.088
1.596,-0.089
1.597,-0.091
1.598,-0.091
1.599,-0.091
1.600,-0.092
1.601,-0.091
1.602,-0.091
1.603,-0.088
1.604,-0.091
1.605,-0.088
1.606,-0.088
1.607,-0.088
1.608,-0.091
1.609,-0.094
1.610,-0.095
1.611,-0.097
1.612,-0.094
1.613,-0.094
1.614,-0.096
1.615,-0.091
1.616,-0.094
1.617,-0.094
1.618,-0.094
1.619,-0.094
1.620,-0.095
1.621,-0.094
1.622,-0.093
1.623,-0.091
1.624,-0.089
1.625,-0.091
1.626,-0.089
1.627,-0.084
1.628,-0.086
1.629,-0.088
1.630,-0.088
1.631,-0.088
1.632,-0.091
1.633,-0.091
1.634,-0.091
1.635,-0.088
1.636,-0.091
1.637,-0.091
1.638,-0.089
1.639,-0.091
1.640,-0.091
1.641,-0.088
1.642,-0.089
1.643,-0.091
1.644,-0.088
1.645,-0.088
1.646,-0.091
1.647,-0.094
1.648,-0.094
1.649,-0.094
1.650,-0.091
1.651,-0.091
1.652,-0.094
1.653,-0.091
1.654,-0.093
1.655,-0.091
1.656,-0.094
1.657,-0.091
1.658,-0.091
1.659,-0.091
1.660,-0.089
1.661,-0.091
1.662,-0.089
1.663,-0.091
1.664,-0.091
1.665,-0.091
1.666,-0.091
1.667,-0.091
1.668,-0.089
1.669,-0.088
1.670,-0.089
1.671,-0.091
1.672,-0.092
1.673,-0.091
1.674,-0.089
1.675,-0.088
1.676,-0.088
1.677,-0.091
1.678,-0.091
1.679,-0.091
1.680,-0.091
1.681,-0.091
1.682,-0.091
1.683,-0.091
1.684,-0.091
1.685,-0.091
1.686,-0.091
1.687,-0.091
1.688,-0.092
1.689,-0.094
1.690,-0.093
1.691,-0.091
1.692,-0.089
1.693,-0.088
1.694,-0.086
1.695,-0.088
1.696,-0.086
1.697,-0.088
1.698,-0.084
1.699,-0.084
1.700,-0.086
1.701,-0.088
1.702,-0.088
1.703,-0.088
1.704,-0.088
1.705,-0.091
1.706,-0.092
1.707,-0.094
1.708,-0.094
1.709,-0.094
1.710,-0.094
1.711,-0.094
1.712,-0.089
1.713,-0.088
1.714,-0.091
1.715,-0.088
1.716,-0.089
1.717,-0.088
1.718,-0.089
1.719,-0.088
1.720,-0.086
1.721,-0.084
1.722,-0.086
1.723,-0.084
1.724,-0.088
1.725,-0.088
1.726,-0.089
1.727,-0.091
1.728,-0.095
1.729,-0.097
1.730,-0.091
1.731,-0.088
1.732,-0.088
1.733,-0.088
1.734,-0.089
1.735,-0.088
1.736,-0.088
1.737,-0.088
1.738,-0.086
1.739,-0.088
1.740,-0.086
1.741,-0.088
1.742,-0.088
1.743,-0.088
1.744,-0.089
1.745,-0.088
1.746,-0.086
1.747,-0.088
1.748,-0.086
1.749,-0.088
1.750,-0.084
1.751,-0.084
1.752,-0.088
1.753,-0.088
1.754,-0.088
1.755,-0.088
1.756,-0.088
1.757,-0.088
1.758,-0.088
1.759,-0.088
1.760,-0.088
1.761,-0.088
1.762,-0.088
1.763,-0.088
1.764,-0.088
1.765,-0.088
1.766,-0.088
1.767,-0.091
1.768,-0.089
1.769,-0.091
1.770,-0.091
1.771,-0.088
1.772,-0.089
1.773,-0.088
1.774,-0.086
1.775,-0.088
1.776,-0.086
1.777,-0.088
1.778,-0.088
1.779,-0.088
1.780,-0.088
1.781,-0.088
1.782,-0.088
1.783,-0.084
1.784,-0.084
1.785,-0.084
1.786,-0.089
1.787,-0.088
1.788,-0.088
1.789,-0.084
1.790,-0.083
1.791,-0.088
1.792,-0.086
1.793,-0.088
1.794,-0.091
1.795,-0.091
1.796,-0.086
1.797,-0.088
1.798,-0.086
1.799,-0.088
1.800,-0.088
1.801,-0.088
1.802,-0.091
1.803,-0.091
1.804,-0.089
1.805,-0.091
1.806,-0.088
1.807,-0.084
1.808,-0.084
1.809,-0.084
1.810,-0.086
1.811,-0.088
1.812,-0.088
1.813,-0.088
1.814,-0.083
1.815,-0.081
1.816,-0.080
1.817,-0.078
1.818,-0.076
1.819,-0.072
1.820,-0.062
1.821,-0.056
1.822,-0.054
1.823,-0.050
1.824,-0.044
1.825,-0.038
1.826,-0.028
1.827,-0.022
1.828,-0.016
1.829,-0.013
1.830,-0.006
1.831,0.003
1.832,0.003
1.833,0.006
1.834,0.008
1.835,0.012
1.836,0.016
1.837,0.016
1.838,0.012
1.839,0.016
1.840,0.019
1.841,0.019
1.842,0.017
1.843,0.019
1.844,0.022
1.845,0.025
1.846,0.029
1.847,0.034
1.848,0.042
1.849,0.050
1.850,0.053
1.851,0.059
1.852,0.064
1.853,0.066
1.854,0.072
1.855,0.078
1.856,0.089
1.857,0.097
1.858,0.105
1.859,0.106
1.860,0.108
1.861,0.113
1.862,0.114
1.863,0.109
1.864,0.113
1.865,0.116
1.866,0.117
1.867,0.119
1.868,0.120
1.869,0.119
1.870,0.119
1.871,0.116
1.872,0.106
1.873,0.097
1.874,0.087
1.875,0.078
1.876,0.072
1.877,0.066
1.878,0.056
1.879,0.050
1.880,0.044
1.881,0.041
1.882,0.039
1.883,0.038
1.884,0.038
1.885,0.044
1.886,0.044
1.887,0.038
1.888,0.036
1.889,0.031
1.890,0.027
1.891,0.019
1.892,0.012
1.893,0.003
1.894,-0.003
1.895,-0.009
1.896,-0.016
1.897,-0.025
1.898,-0.031
1.899,-0.038
1.900,-0.044
1.901,-0.050
1.902,-0.052
1.903,-0.053
1.904,-0.052
1.905,-0.053
1.906,-0.053
1.907,-0.056
1.908,-0.058
1.909,-0.056
1.910,-0.059
1.911,-0.062
1.912,-0.064
1.913,-0.066
1.914,-0.072
1.915,-0.078
1.916,-0.081
1.917,-0.088
1.918,-0.086
1.919,-0.084
1.920,-0.086
1.921,-0.088
1.922,-0.088
1.923,-0.091
1.924,-0.091
1.925,-0.094
1.926,-0.092
1.927,-0.097
1.928,-0.101
1.929,-0.106
1.930,-0.103
1.931,-0.103
1.932,-0.105
1.933,-0.103
1.934,-0.104
1.935,-0.109
1.936,-0.113
1.937,-0.116
1.938,-0.116
1.939,-0.113
1.940,-0.113
1.941,-0.113
1.942,-0.111
1.943,-0.109
1.944,-0.113
1.945,-0.116
1.946,-0.116
1.947,-0.119
1.948,-0.119
1.949,-0.119
1.950,-0.120
1.951,-0.122
1.952,-0.122
1.953,-0.122
1.954,-0.122
1.955,-0.122
1.956,-0.125
1.957,-0.125
1.958,-0.123
1.959,-0.125
1.960,-0.122
1.961,-0.125
1.962,-0.128
1.963,-0.128
1.964,-0.122
1.965,-0.122
1.966,-0.124
1.967,-0.128
1.968,-0.127
1.969,-0.134
1.970,-0.147
1.971,-0.153
1.972,-0.167
1.973,-0.184
1.974,-0.191
1.975,-0.188
1.976,-0.189
1.977,-0.184
1.978,-0.172
1.979,-0.153
1.980,-0.126
1.981,-0.097
1.982,-0.056
1.983,-0.016
1.984,0.011
1.985,0.038
1.986,0.062
1.987,0.097
1.988,0.147
1.989,0.209
1.990,0.297
1.991,0.394
1.992,0.463
1.993,0.559
1.994,0.651
1.995,0.747
1.996,0.841
1.997,0.916
1.998,0.974
1.999,1.022
2.000,1.100
2.001,1.172
2.002,1.238
2.003,1.284
2.004,1.313
2.005,1.313
2.006,1.278
2.007,1.231
2.008,1.172
2.009,1.109
2.010,1.006
2.011,0.900
2.012,0.784
2.013,0.669
2.014,0.559
2.015,0.469
2.016,0.392
2.017,0.334
2.018,0.288
2.019,0.253
2.020,0.233
2.021,0.219
2.022,0.209
2.023,0.187
2.024,0.170
2.025,0.156
2.026,0.147
2.027,0.141
2.028,0.123
2.029,0.109
2.030,0.097
2.031,0.087
2.032,0.086
2.033,0.087
2.034,0.089
2.035,0.091
2.036,0.080
2.037,0.069
2.038,0.059
2.039,0.047
2.040,0.034
2.041,0.022
2.042,0.011
2.043,0.003
2.044,-0.003
2.045,-0.009
2.046,-0.020
2.047,-0.028
2.048,-0.034
2.049,-0.034
2.050,-0.036
2.051,-0.038
2.052,-0.042
2.053,-0.047
2.054,-0.047
2.055,-0.050
2.056,-0.051
2.057,-0.053
2.058,-0.056
2.059,-0.062
2.060,-0.062
2.061,-0.062
2.062,-0.066
2.063,-0.069
2.064,-0.066
2.065,-0.069
2.066,-0.069
2.067,-0.072
2.068,-0.072
2.069,-0.072
2.070,-0.072
2.071,-0.072
2.072,-0.073
2.073,-0.072
2.074,-0.072
2.075,-0.072
2.076,-0.075
2.077,-0.078
2.078,-0.081
2.079,-0.084
2.080,-0.086
2.081,-0.084
2.082,-0.084
2.083,-0.081
2.084,-0.083
2.085,-0.084
2.086,-0.086
2.087,-0.088
2.088,-0.086
2.089,-0.088
2.090,-0.083
2.091,-0.081
2.092,-0.080
2.093,-0.078
2.094,-0.078
2.095,-0.075
2.096,-0.075
2.097,-0.075
2.098,-0.075
2.099,-0.072
2.100,-0.073
2.101,-0.072
2.102,-0.078
2.103,-0.081
2.104,-0.080
2.105,-0.075
2.106,-0.075
2.107,-0.072
2.108,-0.072
2.109,-0.072
2.110,-0.073
2.111,-0.072
2.112,-0.071
2.113,-0.069
2.114,-0.066
2.115,-0.066
2.116,-0.066
2.117,-0.066
2.118,-0.062
2.119,-0.056
2.120,-0.057
2.121,-0.062
2.122,-0.066
2.123,-0.066
2.124,-0.066
2.125,-0.066
2.126,-0.061
2.127,-0.059
2.128,-0.057
2.129,-0.059
2.130,-0.056
2.131,-0.053
2.132,-0.051
2.133,-0.050
2.134,-0.049
2.135,-0.047
2.136,-0.051
2.137,-0.050
2.138,-0.050
2.139,-0.050
2.140,-0.047
2.141,-0.047
2.142,-0.048
2.143,-0.047
2.144,-0.047
2.145,-0.047
2.146,-0.044
2.147,-0.044
2.148,-0.045
2.149,-0.044
2.150,-0.041
2.151,-0.038
2.152,-0.038
2.153,-0.038
2.154,-0.034
2.155,-0.031
2.156,-0.031
2.157,-0.031
2.158,-0.031
2.159,-0.028
2.160,-0.027
2.161,-0.022
2.162,-0.018
2.163,-0.016
2.164,-0.017
2.165,-0.019
2.166,-0.014
2.167,-0.013
2.168,-0.016
2.169,-0.016
2.170,-0.016
2.171,-0.016
2.172,-0.013
2.173,-0.006
2.174,-0.008
2.175,-0.006
2.176,-0.009
2.177,-0.009
2.178,-0.006
2.179,-0.006
2.180,-0.003
2.181,0.003
2.182,0.003
2.183,0.003
2.184,0.005
2.185,0.006
2.186,0.008
2.187,0.006
2.188,0.006
2.189,0.009
2.190,0.014
2.191,0.022
2.192,0.022
2.193,0.022
2.194,0.027
2.195,0.028
2.196,0.030
2.197,0.028
2.198,0.028
2.199,0.028
2.200,0.031
2.201,0.034
2.202,0.038
2.203,0.044
2.204,0.041
2.205,0.044
2.206,0.046
2.207,0.044
2.208,0.054
2.209,0.059
2.210,0.061
2.211,0.062
2.212,0.067
2.213,0.072
2.214,0.074
2.215,0.075
2.216,0.077
2.217,0.078
2.218,0.078
2.219,0.084
2.220,0.089
2.221,0.094
2.222,0.092
2.223,0.094
2.224,0.097
2.225,0.100
2.226,0.104
2.227,0.109
2.228,0.109
2.229,0.113
2.230,0.119
2.231,0.125
2.232,0.130
2.233,0.131
2.234,0.131
2.235,0.131
2.236,0.134
2.237,0.137
2.238,0.145
2.239,0.150
2.240,0.153
2.241,0.156
2.242,0.159
2.243,0.159
2.244,0.158
2.245,0.159
2.246,0.166
2.247,0.166
2.248,0.169
2.249,0.172
2.250,0.174
2.251,0.175
2.252,0.179
2.253,0.184
2.254,0.184
2.255,0.184
2.256,0.184
2.257,0.191
2.258,0.189
2.259,0.194
2.260,0.196
2.261,0.197
2.262,0.201
2.263,0.209
2.264,0.211
2.265,0.213
2.266,0.214
2.267,0.216
2.268,0.223
2.269,0.228
2.270,0.225
2.271,0.225
2.272,0.224
2.273,0.225
2.274,0.227
2.275,0.225
2.276,0.226
2.277,0.228
2.278,0.227
2.279,0.228
2.280,0.229
2.281,0.231
2.282,0.228
2.283,0.231
2.284,0.227
2.285,0.225
2.286,0.224
2.287,0.225
2.288,0.219
2.289,0.222
2.290,0.220
2.291,0.219
2.292,0.216
2.293,0.213
2.294,0.211
2.295,0.213
2.296,0.209
2.297,0.203
2.298,0.200
2.299,0.191
2.300,0.187
2.301,0.184
2.302,0.179
2.303,0.175
2.304,0.173
2.305,0.169
2.306,0.164
2.307,0.162
2.308,0.155
2.309,0.147
2.310,0.141
2.311,0.134
2.312,0.129
2.313,0.128
2.314,0.125
2.315,0.116
2.316,0.114
2.317,0.113
2.318,0.108
2.319,0.103
2.320,0.097
2.321,0.091
2.322,0.086
2.323,0.078
2.324,0.076
2.325,0.075
2.326,0.072
2.327,0.069
2.328,0.067
2.329,0.062
2.330,0.058
2.331,0.053
2.332,0.050
2.333,0.044
2.334,0.036
2.335,0.034
2.336,0.033
2.337,0.031
2.338,0.025
2.339,0.019
2.340,0.017
2.341,0.016
2.342,0.009
2.343,0.009
2.344,0.005
2.345,0.000
2.346,-0.008
2.347,-0.009
2.348,-0.009
2.349,-0.009
2.350,-0.011
2.351,-0.013
2.352,-0.016
2.353,-0.019
2.354,-0.025
2.355,-0.028
2.356,-0.028
2.357,-0.031
2.358,-0.031
2.359,-0.038
2.360,-0.042
2.361,-0.044
2.362,-0.047
2.363,-0.047
2.364,-0.046
2.365,-0.044
2.366,-0.046
2.367,-0.047
2.368,-0.047
2.369,-0.047
2.370,-0.047
2.371,-0.047
2.372,-0.044
2.373,-0.041
2.374,-0.044
2.375,-0.047
2.376,-0.048
2.377,-0.050
2.378,-0.051
2.379,-0.053
2.380,-0.052
2.381,-0.050
2.382,-0.053
2.383,-0.053
2.384,-0.056
2.385,-0.053
2.386,-0.054
2.387,-0.053
2.388,-0.056
2.389,-0.056
2.390,-0.056
2.391,-0.056
2.392,-0.055
2.393,-0.056
2.394,-0.057
2.395,-0.059
2.396,-0.059
2.397,-0.059
2.398,-0.061
2.399,-0.059
2.400,-0.059
2.401,-0.056
2.402,-0.058
2.403,-0.059
2.404,-0.059
2.405,-0.059
2.406,-0.061
2.407,-0.062
2.408,-0.062
2.409,-0.062
2.410,-0.058
2.411,-0.056
2.412,-0.058
2.413,-0.059
2.414,-0.059
2.415,-0.059
2.416,-0.057
2.417,-0.059
2.418,-0.058
2.419,-0.059
2.420,-0.061
2.421,-0.062
2.422,-0.064
2.423,-0.062
2.424,-0.056
2.425,-0.056
2.426,-0.057
2.427,-0.059
2.428,-0.059
2.429,-0.056
2.430,-0.062
2.431,-0.059
2.432,-0.061
2.433,-0.062
2.434,-0.066
2.435,-0.066
2.436,-0.066
2.437,-0.066
2.438,-0.068
2.439,-0.066
2.440,-0.066
2.441,-0.066
2.442,-0.066
2.443,-0.062
2.444,-0.061
2.445,-0.059
2.446,-0.061
2.447,-0.056
2.448,-0.055
2.449,-0.053
2.450,-0.057
2.451,-0.059
2.452,-0.064
2.453,-0.062
2.454,-0.064
2.455,-0.066
2.456,-0.062
2.457,-0.056
2.458,-0.056
2.459,-0.053
2.460,-0.053
2.461,-0.056
2.462,-0.062
2.463,-0.066
2.464,-0.064
2.465,-0.069
2.466,-0.069
2.467,-0.069
2.468,-0.068
2.469,-0.069
2.470,-0.064
2.471,-0.066
2.472,-0.070
2.473,-0.069
2.474,-0.069
2.475,-0.069
2.476,-0.070
2.477,-0.072
2.478,-0.071
2.479,-0.069
2.480,-0.069
2.481,-0.069
2.482,-0.069
2.483,-0.072
2.484,-0.072
2.485,-0.072
2.486,-0.072
2.487,-0.072
2.488,-0.075
2.489,-0.075
2.490,-0.072
2.491,-0.069
2.492,-0.069
2.493,-0.069
2.494,-0.069
2.495,-0.069
2.496,-0.072
2.497,-0.072
2.498,-0.072
2.499,-0.075
2.500,-0.073
2.501,-0.075
2.502,-0.076
2.503,-0.078
2.504,-0.075
2.505,-0.075
2.506,-0.074
2.507,-0.075
2.508,-0.076
2.509,-0.078
2.510,-0.078
2.511,-0.078
2.512,-0.078
2.513,-0.078
2.514,-0.077
2.515,-0.075
2.516,-0.076
2.517,-0.078
2.518,-0.075
2.519,-0.075
2.520,-0.076
2.521,-0.078
2.522,-0.078
2.523,-0.078
2.524,-0.078
2.525,-0.078
2.526,-0.079
2.527,-0.081
2.528,-0.084
2.529,-0.084
2.530,-0.084
2.531,-0.084
2.532,-0.084
2.533,-0.084
2.534,-0.083
2.535,-0.084
2.536,-0.088
2.537,-0.091
2.538,-0.088
2.539,-0.091
2.540,-0.091
2.541,-0.088
2.542,-0.086
2.543,-0.088
2.544,-0.088
2.545,-0.088
2.546,-0.088
2.547,-0.088
2.548,-0.088
2.549,-0.088
2.550,-0.083
2.551,-0.088
2.552,-0.084
2.553,-0.088
2.554,-0.089
2.555,-0.091
2.556,-0.091
2.557,-0.088
2.558,-0.086
2.559,-0.084
2.560,-0.089
2.561,-0.088
2.562,-0.086
2.563,-0.088
2.564,-0.086
2.565,-0.084
2.566,-0.088
2.567,-0.084
2.568,-0.086
2.569,-0.088
2.570,-0.092
2.571,-0.091
2.572,-0.088
2.573,-0.088
2.574,-0.088
2.575,-0.088
2.576,-0.092
2.577,-0.097
2.578,-0.097
2.579,-0.100
2.580,-0.094
2.581,-0.091
2.582,-0.089
2.583,-0.084
2.584,-0.084
2.585,-0.084
2.586,-0.084
2.587,-0.088
2.588,-0.089
2.589,-0.088
2.590,-0.092
2.591,-0.091
2.592,-0.089
2.593,-0.091
2.594,-0.091
2.595,-0.091
2.596,-0.094
2.597,-0.094
2.598,-0.092
2.599,-0.094
2.600,-0.094
2.601,-0.094
2.602,-0.094
2.603,-0.094
2.604,-0.094
2.605,-0.094
2.606,-0.093
2.607,-0.094
2.608,-0.092
2.609,-0.091
2.610,-0.091
2.611,-0.091
2.612,-0.091
2.613,-0.094
2.614,-0.093
2.615,-0.091
2.616,-0.091
2.617,-0.091
2.618,-0.094
2.619,-0.097
2.620,-0.096
2.621,-0.094
2.622,-0.093
2.623,-0.094
2.624,-0.094
2.625,-0.094
2.626,-0.091
2.627,-0.091
2.628,-0.088
2.629,-0.088
2.630,-0.092
2.631,-0.091
2.632,-0.088
2.633,-0.091
2.634,-0.091
2.635,-0.088
2.636,-0.092
2.637,-0.094
2.638,-0.097
2.639,-0.100
2.640,-0.099
2.641,-0.097
2.642,-0.097
2.643,-0.094
2.644,-0.096
2.645,-0.094
2.646,-0.093
2.647,-0.094
2.648,-0.092
2.649,-0.094
2.650,-0.094
2.651,-0.094
2.652,-0.094
2.653,-0.094
2.654,-0.093
2.655,-0.091
2.656,-0.088
2.657,-0.091
2.658,-0.092
2.659,-0.094
2.660,-0.093
2.661,-0.091
2.662,-0.088
2.663,-0.091
2.664,-0.097
2.665,-0.100
2.666,-0.099
2.667,-0.097
2.668,-0.093
2.669,-0.091
2.670,-0.086
2.671,-0.088
2.672,-0.086
2.673,-0.088
2.674,-0.089
2.675,-0.094
2.676,-0.100
2.677,-0.103
2.678,-0.104
2.679,-0.103
2.680,-0.102
2.681,-0.103
2.682,-0.100
2.683,-0.103
2.684,-0.100
2.685,-0.097
2.686,-0.096
2.687,-0.094
2.688,-0.091
2.689,-0.091
2.690,-0.092
2.691,-0.094
2.692,-0.098
2.693,-0.100
2.694,-0.098
2.695,-0.100
2.696,-0.101
2.697,-0.103
2.698,-0.102
2.699,-0.103
2.700,-0.103
2.701,-0.103
2.702,-0.096
2.703,-0.094
2.704,-0.097
2.705,-0.097
2.706,-0.101
2.707,-0.106
2.708,-0.101
2.709,-0.100
2.710,-0.097
2.711,-0.091
2.712,-0.091
2.713,-0.091
2.714,-0.092
2.715,-0.097
2.716,-0.098
2.717,-0.100
2.718,-0.100
2.719,-0.100
2.720,-0.100
2.721,-0.100
2.722,-0.096
2.723,-0.091
2.724,-0.091
2.725,-0.091
2.726,-0.092
2.727,-0.094
2.728,-0.095
2.729,-0.097
2.730,-0.098
2.731,-0.100
2.732,-0.094
2.733,-0.091
2.734,-0.091
2.735,-0.094
2.736,-0.094
2.737,-0.097
2.738,-0.098
2.739,-0.100
2.740,-0.100
2.741,-0.100
2.742,-0.099
2.743,-0.100
2.744,-0.097
2.745,-0.094
2.746,-0.095
2.747,-0.097
2.748,-0.098
2.749,-0.100
2.750,-0.097
2.751,-0.097
2.752,-0.097
2.753,-0.091
2.754,-0.093
2.755,-0.091
2.756,-0.094
2.757,-0.094
2.758,-0.094
2.759,-0.094
2.760,-0.094
2.761,-0.091
2.762,-0.093
2.763,-0.091
2.764,-0.092
2.765,-0.094
2.766,-0.098
2.767,-0.100
2.768,-0.097
2.769,-0.097
2.770,-0.097
2.771,-0.097
2.772,-0.100
2.773,-0.100
2.774,-0.100
2.775,-0.100
2.776,-0.096
2.777,-0.094
2.778,-0.093
2.779,-0.094
2.780,-0.095
2.781,-0.097
2.782,-0.100
2.783,-0.100
2.784,-0.094
2.785,-0.091
2.786,-0.089
2.787,-0.091
2.788,-0.091
2.789,-0.094
2.790,-0.098
2.791,-0.100
2.792,-0.100
2.793,-0.100
2.794,-0.100
2.795,-0.100
2.796,-0.100
2.797,-0.100
2.798,-0.097
2.799,-0.094
2.800,-0.095
2.801,-0.097
2.802,-0.098
2.803,-0.100
2.804,-0.099
2.805,-0.100
2.806,-0.097
2.807,-0.097
2.808,-0.096
2.809,-0.091
2.810,-0.094
2.811,-0.094
2.812,-0.089
2.813,-0.088
2.814,-0.086
2.815,-0.088
2.816,-0.089
2.817,-0.091
2.818,-0.091
2.819,-0.091
2.820,-0.092
2.821,-0.091
2.822,-0.089
2.823,-0.088
2.824,-0.094
2.825,-0.094
2.826,-0.097
2.827,-0.097
2.828,-0.097
2.829,-0.103
2.830,-0.100
2.831,-0.100
2.832,-0.097
2.833,-0.091
2.834,-0.086
2.835,-0.088
2.836,-0.086
2.837,-0.088
2.838,-0.086
2.839,-0.084
2.840,-0.088
2.841,-0.088
2.842,-0.086
2.843,-0.088
2.844,-0.088
2.845,-0.088
2.846,-0.089
2.847,-0.091
2.848,-0.091
2.849,-0.091
2.850,-0.088
2.851,-0.084
2.852,-0.078
2.853,-0.075
2.854,-0.074
2.855,-0.072
2.856,-0.073
2.857,-0.072
2.858,-0.066
2.859,-0.062
2.860,-0.058
2.861,-0.050
2.862,-0.044
2.863,-0.038
2.864,-0.031
2.865,-0.028
2.866,-0.022
2.867,-0.019
2.868,-0.014
2.869,-0.006
2.870,-0.003
2.871,0.003
2.872,0.007
2.873,0.016
2.874,0.022
2.875,0.025
2.876,0.021
2.877,0.022
2.878,0.023
2.879,0.022
2.880,0.021
2.881,0.022
2.882,0.028
2.883,0.034
2.884,0.034
2.885,0.034
2.886,0.039
2.887,0.044
2.888,0.046
2.889,0.050
2.890,0.055
2.891,0.056
2.892,0.062
2.893,0.069
2.894,0.079
2.895,0.087
2.896,0.097
2.897,0.100
2.898,0.101
2.899,0.106
2.900,0.113
2.901,0.113
2.902,0.116
2.903,0.119
2.904,0.119
2.905,0.119
2.906,0.120
2.907,0.119
2.908,0.118
2.909,0.113
2.910,0.106
2.911,0.100
2.912,0.089
2.913,0.078
2.914,0.072
2.915,0.066
2.916,0.059
2.917,0.056
2.918,0.049
2.919,0.044
2.920,0.044
2.921,0.044
2.922,0.036
2.923,0.034
2.924,0.038
2.925,0.034
2.926,0.034
2.927,0.031
2.928,0.028
2.929,0.022
2.930,0.016
2.931,0.006
2.932,-0.001
2.933,-0.009
2.934,-0.013
2.935,-0.019
2.936,-0.025
2.937,-0.031
2.938,-0.039
2.939,-0.047
2.940,-0.050
2.941,-0.053
2.942,-0.056
2.943,-0.062
2.944,-0.059
2.945,-0.059
2.946,-0.064
2.947,-0.066
2.948,-0.069
2.949,-0.072
2.950,-0.076
2.951,-0.081
2.952,-0.083
2.953,-0.084
2.954,-0.083
2.955,-0.084
2.956,-0.083
2.957,-0.081
2.958,-0.084
2.959,-0.088
2.960,-0.088
2.961,-0.091
2.962,-0.092
2.963,-0.097
2.964,-0.095
2.965,-0.100
2.966,-0.102
2.967,-0.103
2.968,-0.103
2.969,-0.106
2.970,-0.109
2.971,-0.109
2.972,-0.111
2.973,-0.116
2.974,-0.119
2.975,-0.122
2.976,-0.123
2.977,-0.122
2.978,-0.121
2.979,-0.119
2.980,-0.119
2.981,-0.119
2.982,-0.119
2.983,-0.119
2.984,-0.118
2.985,-0.119
2.986,-0.120
2.987,-0.122
2.988,-0.122
2.989,-0.122
2.990,-0.122
2.991,-0.122
2.992,-0.123
2.993,-0.125
2.994,-0.128
2.995,-0.128
2.996,-0.124
2.997,-0.122
2.998,-0.118
2.999,-0.119
3.000,-0.120
3.001,-0.119
3.002,-0.117
3.003,-0.122
3.004,-0.125
3.005,-0.131
3.006,-0.128
3.007,-0.134
3.008,-0.150
3.009,-0.159
3.010,-0.167
3.011,-0.178
3.012,-0.189
3.013,-0.191
3.014,-0.191
3.015,-0.184
3.016,-0.168
3.017,-0.144
3.018,-0.116
3.019,-0.084
3.020,-0.051
3.021,-0.019
3.022,0.009
3.023,0.038
3.024,0.064
3.025,0.100
3.026,0.150
3.027,0.213
3.028,0.303
3.029,0.403
3.030,0.469
3.031,0.562
3.032,0.650
3.033,0.741
3.034,0.839
3.035,0.919
3.036,0.984
3.037,1.041
3.038,1.127
3.039,1.206
3.040,1.276
3.041,1.328
3.042,1.362
3.043,1.369
3.044,1.322
3.045,1.262
3.046,1.191
3.047,1.116
3.048,1.023
3.049,0.928
3.050,0.817
3.051,0.706
3.052,0.584
3.053,0.481
3.054,0.400
3.055,0.337
3.056,0.289
3.057,0.253
3.058,0.244
3.059,0.241
3.060,0.231
3.061,0.209
3.062,0.186
3.063,0.166
3.064,0.150
3.065,0.137
3.066,0.120
3.067,0.106
3.068,0.101
3.069,0.100
3.070,0.094
3.071,0.091
3.072,0.086
3.073,0.081
3.074,0.073
3.075,0.066
3.076,0.061
3.077,0.053
3.078,0.041
3.079,0.028
3.080,0.016
3.081,0.006
3.082,-0.002
3.083,-0.009
3.084,-0.018
3.085,-0.022
3.086,-0.031
3.087,-0.034
3.088,-0.041
3.089,-0.047
3.090,-0.050
3.091,-0.053
3.092,-0.054
3.093,-0.059
3.094,-0.061
3.095,-0.062
3.096,-0.059
3.097,-0.059
3.098,-0.062
3.099,-0.066
3.100,-0.068
3.101,-0.069
3.102,-0.064
3.103,-0.066
3.104,-0.067
3.105,-0.072
3.106,-0.073
3.107,-0.075
3.108,-0.075
3.109,-0.075
3.110,-0.076
3.111,-0.075
3.112,-0.075
3.113,-0.075
3.114,-0.075
3.115,-0.075
3.116,-0.074
3.117,-0.072
3.118,-0.074
3.119,-0.072
3.120,-0.074
3.121,-0.072
3.122,-0.073
3.123,-0.075
3.124,-0.076
3.125,-0.078
3.126,-0.076
3.127,-0.078
3.128,-0.076
3.129,-0.078
3.130,-0.074
3.131,-0.069
3.132,-0.071
3.133,-0.069
3.134,-0.072
3.135,-0.075
3.136,-0.079
3.137,-0.081
3.138,-0.080
3.139,-0.075
3.140,-0.075
3.141,-0.072
3.142,-0.071
3.143,-0.066
3.144,-0.067
3.145,-0.066
3.146,-0.066
3.147,-0.066
3.148,-0.069
3.149,-0.069
3.150,-0.069
3.151,-0.069
3.152,-0.061
3.153,-0.056
3.154,-0.056
3.155,-0.056
3.156,-0.061
3.157,-0.062
3.158,-0.059
3.159,-0.059
3.160,-0.062
3.161,-0.062
3.162,-0.062
3.163,-0.062
3.164,-0.058
3.165,-0.056
3.166,-0.053
3.167,-0.053
3.168,-0.053
3.169,-0.053
3.170,-0.053
3.171,-0.053
3.172,-0.052
3.173,-0.050
3.174,-0.053
3.175,-0.050
3.176,-0.047
3.177,-0.044
3.178,-0.041
3.179,-0.041
3.180,-0.039
3.181,-0.034
3.182,-0.034
3.183,-0.034
3.184,-0.033
3.185,-0.034
3.186,-0.033
3.187,-0.028
3.188,-0.028
3.189,-0.028
3.190,-0.029
3.191,-0.031
3.192,-0.029
3.193,-0.028
3.194,-0.027
3.195,-0.025
3.196,-0.026
3.197,-0.025
3.198,-0.026
3.199,-0.025
3.200,-0.021
3.201,-0.019
3.202,-0.016
3.203,-0.013
3.204,-0.006
3.205,-0.003
3.206,-0.008
3.207,-0.009
3.208,-0.011
3.209,-0.013
3.210,-0.013
3.211,-0.009
3.212,-0.009
3.213,-0.006
3.214,-0.005
3.215,0.000
3.216,0.003
3.217,0.003
3.218,0.002
3.219,0.003
3.220,0.004
3.221,0.006
3.222,0.011
3.223,0.016
3.224,0.017
3.225,0.016
3.226,0.014
3.227,0.016
3.228,0.014
3.229,0.016
3.230,0.017
3.231,0.019
3.232,0.025
3.233,0.028
3.234,0.030
3.235,0.028
3.236,0.031
3.237,0.034
3.238,0.036
3.239,0.038
3.240,0.041
3.241,0.047
3.242,0.047
3.243,0.053
3.244,0.057
3.245,0.059
3.246,0.064
3.247,0.062
3.248,0.062
3.249,0.062
3.250,0.064
3.251,0.066
3.252,0.070
3.253,0.075
3.254,0.079
3.255,0.084
3.256,0.084
3.257,0.091
3.258,0.092
3.259,0.094
3.260,0.094
3.261,0.097
3.262,0.099
3.263,0.100
3.264,0.104
3.265,0.109
3.266,0.113
3.267,0.119
3.268,0.121
3.269,0.122
3.270,0.128
3.271,0.131
3.272,0.136
3.273,0.141
3.274,0.145
3.275,0.150
3.276,0.155
3.277,0.156
3.278,0.158
3.279,0.159
3.280,0.161
3.281,0.159
3.282,0.164
3.283,0.172
3.284,0.178
3.285,0.178
3.286,0.181
3.287,0.184
3.288,0.187
3.289,0.191
3.290,0.192
3.291,0.194
3.292,0.198
3.293,0.203
3.294,0.206
3.295,0.216
3.296,0.214
3.297,0.219
3.298,0.219
3.299,0.219
3.300,0.219
3.301,0.222
3.302,0.224
3.303,0.225
3.304,0.225
3.305,0.225
3.306,0.228
3.307,0.228
3.308,0.229
3.309,0.234
3.310,0.236
3.311,0.241
3.312,0.244
3.313,0.244
3.314,0.242
3.315,0.241
3.316,0.239
3.317,0.241
3.318,0.241
3.319,0.241
3.320,0.237
3.321,0.241
3.322,0.237
3.323,0.237
3.324,0.237
3.325,0.241
3.326,0.234
3.327,0.237
3.328,0.234
3.329,0.231
3.330,0.227
3.331,0.222
3.332,0.217
3.333,0.216
3.334,0.213
3.335,0.206
3.336,0.209
3.337,0.206
3.338,0.203
3.339,0.200
3.340,0.194
3.341,0.187
3.342,0.181
3.343,0.172
3.344,0.164
3.345,0.159
3.346,0.156
3.347,0.153
3.348,0.151
3.349,0.150
3.350,0.144
3.351,0.141
3.352,0.136
3.353,0.125
3.354,0.121
3.355,0.116
3.356,0.111
3.357,0.106
3.358,0.101
3.359,0.097
3.360,0.092
3.361,0.084
3.362,0.081
3.363,0.078
3.364,0.075
3.365,0.072
3.366,0.070
3.367,0.066
3.368,0.061
3.369,0.056
3.370,0.053
3.371,0.047
3.372,0.042
3.373,0.044
3.374,0.038
3.375,0.031
3.376,0.027
3.377,0.022
3.378,0.020
3.379,0.019
3.380,0.014
3.381,0.016
3.382,0.012
3.383,0.009
3.384,0.003
3.385,0.003
3.386,0.003
3.387,0.003
3.388,-0.004
3.389,-0.013
3.390,-0.014
3.391,-0.016
3.392,-0.019
3.393,-0.019
3.394,-0.019
3.395,-0.022
3.396,-0.022
3.397,-0.028
3.398,-0.033
3.399,-0.034
3.400,-0.041
3.401,-0.044
3.402,-0.044
3.403,-0.044
3.404,-0.044
3.405,-0.044
3.406,-0.047
3.407,-0.050
3.408,-0.051
3.409,-0.053
3.410,-0.049
3.411,-0.044
3.412,-0.044
3.413,-0.044
3.414,-0.045
3.415,-0.047
3.416,-0.047
3.417,-0.047
3.418,-0.047
3.419,-0.047
3.420,-0.053
3.421,-0.056
3.422,-0.059
3.423,-0.056
3.424,-0.057
3.425,-0.056
3.426,-0.059
3.427,-0.059
3.428,-0.056
3.429,-0.053
3.430,-0.052
3.431,-0.053
3.432,-0.053
3.433,-0.053
3.434,-0.053
3.435,-0.053
3.436,-0.054
3.437,-0.053
3.438,-0.056
3.439,-0.056
3.440,-0.055
3.441,-0.053
3.442,-0.052
3.443,-0.050
3.444,-0.050
3.445,-0.050
3.446,-0.050
3.447,-0.050
3.448,-0.047
3.449,-0.047
3.450,-0.049
3.451,-0.050
3.452,-0.050
3.453,-0.050
3.454,-0.048
3.455,-0.050
3.456,-0.050
3.457,-0.053
3.458,-0.051
3.459,-0.050
3.460,-0.052
3.461,-0.050
3.462,-0.047
3.463,-0.050
3.464,-0.050
3.465,-0.050
3.466,-0.049
3.467,-0.044
3.468,-0.051
3.469,-0.050
3.470,-0.051
3.471,-0.053
3.472,-0.053
3.473,-0.050
3.474,-0.050
3.475,-0.050
3.476,-0.050
3.477,-0.047
3.478,-0.047
3.479,-0.047
3.480,-0.050
3.481,-0.050
3.482,-0.050
3.483,-0.050
3.484,-0.054
3.485,-0.053
3.486,-0.052
3.487,-0.050
3.488,-0.052
3.489,-0.050
3.490,-0.054
3.491,-0.053
3.492,-0.053
3.493,-0.053
3.494,-0.053
3.495,-0.050
3.496,-0.052
3.497,-0.050
3.498,-0.047
3.499,-0.047
3.500,-0.051
3.501,-0.053
3.502,-0.049
3.503,-0.050
3.504,-0.050
3.505,-0.050
3.506,-0.049
3.507,-0.050
3.508,-0.047
3.509,-0.050
3.510,-0.054
3.511,-0.053
3.512,-0.052
3.513,-0.050
3.514,-0.051
3.515,-0.053
3.516,-0.053
3.517,-0.053
3.518,-0.054
3.519,-0.056
3.520,-0.055
3.521,-0.056
3.522,-0.056
3.523,-0.056
3.524,-0.056
3.525,-0.056
3.526,-0.059
3.527,-0.059
3.528,-0.056
3.529,-0.053
3.530,-0.053
3.531,-0.053
3.532,-0.054
3.533,-0.056
3.534,-0.061
3.535,-0.062
3.536,-0.059
3.537,-0.059
3.538,-0.061
3.539,-0.066
3.540,-0.067
3.541,-0.069
3.542,-0.068
3.543,-0.069
3.544,-0.064
3.545,-0.062
3.546,-0.062
3.547,-0.062
3.548,-0.062
3.549,-0.062
3.550,-0.062
3.551,-0.062
3.552,-0.064
3.553,-0.066
3.554,-0.067
3.555,-0.069
3.556,-0.068
3.557,-0.069
3.558,-0.066
3.559,-0.062
3.560,-0.064
3.561,-0.066
3.562,-0.067
3.563,-0.069
3.564,-0.068
3.565,-0.066
3.566,-0.069
3.567,-0.069
3.568,-0.070
3.569,-0.072
3.570,-0.073
3.571,-0.075
3.572,-0.073
3.573,-0.075
3.574,-0.075
3.575,-0.075
3.576,-0.071
3.577,-0.072
3.578,-0.073
3.579,-0.072
3.580,-0.072
3.581,-0.075
3.582,-0.075
3.583,-0.075
3.584,-0.075
3.585,-0.075
3.586,-0.075
3.587,-0.075
3.588,-0.073
3.589,-0.081
3.590,-0.078
3.591,-0.081
3.592,-0.080
3.593,-0.078
3.594,-0.079
3.595,-0.078
3.596,-0.077
3.597,-0.075
3.598,-0.077
3.599,-0.072
3.600,-0.071
3.601,-0.072
3.602,-0.075
3.603,-0.078
3.604,-0.083
3.605,-0.081
3.606,-0.078
3.607,-0.075
3.608,-0.079
3.609,-0.078
3.610,-0.078
3.611,-0.081
3.612,-0.083
3.613,-0.084
3.614,-0.084
3.615,-0.084
3.616,-0.081
3.617,-0.081
3.618,-0.079
3.619,-0.081
3.620,-0.084
3.621,-0.084
3.622,-0.083
3.623,-0.081
3.624,-0.080
3.625,-0.081
3.626,-0.083
3.627,-0.081
3.628,-0.084
3.629,-0.081
3.630,-0.078
3.631,-0.078
3.632,-0.081
3.633,-0.084
3.634,-0.088
3.635,-0.088
3.636,-0.086
3.637,-0.088
3.638,-0.084
3.639,-0.081
3.640,-0.080
3.641,-0.078
3.642,-0.079
3.643,-0.081
3.644,-0.083
3.645,-0.088
3.646,-0.088
3.647,-0.088
3.648,-0.088
3.649,-0.088
3.650,-0.086
3.651,-0.088
3.652,-0.088
3.653,-0.088
3.654,-0.088
3.655,-0.088
3.656,-0.088
3.657,-0.088
3.658,-0.088
3.659,-0.088
3.660,-0.086
3.661,-0.088
3.662,-0.088
3.663,-0.088
3.664,-0.086
3.665,-0.088
3.666,-0.086
3.667,-0.088
3.668,-0.089
3.669,-0.084
3.670,-0.080
3.671,-0.081
3.672,-0.083
3.673,-0.081
3.674,-0.088
3.675,-0.091
3.676,-0.091
3.677,-0.091
3.678,-0.089
3.679,-0.088
3.680,-0.088
3.681,-0.084
3.682,-0.088
3.683,-0.088
3.684,-0.086
3.685,-0.088
3.686,-0.086
3.687,-0.088
3.688,-0.088
3.689,-0.088
3.690,-0.088
3.691,-0.088
3.692,-0.089
3.693,-0.091
3.694,-0.086
3.695,-0.088
3.696,-0.088
3.697,-0.088
3.698,-0.088
3.699,-0.088
3.700,-0.083
3.701,-0.084
3.702,-0.088
3.703,-0.088
3.704,-0.088
3.705,-0.088
3.706,-0.086
3.707,-0.088
3.708,-0.084
3.709,-0.088
3.710,-0.086
3.711,-0.088
3.712,-0.086
3.713,-0.088
3.714,-0.089
3.715,-0.088
3.716,-0.089
3.717,-0.088
3.718,-0.086
3.719,-0.088
3.720,-0.084
3.721,-0.088
3.722,-0.088
3.723,-0.088
3.724,-0.088
3.725,-0.088
3.726,-0.086
3.727,-0.088
3.728,-0.086
3.729,-0.084
3.730,-0.086
3.731,-0.084
3.732,-0.083
3.733,-0.084
3.734,-0.086
3.735,-0.088
3.736,-0.086
3.737,-0.088
3.738,-0.089
3.739,-0.091
3.740,-0.088
3.741,-0.091
3.742,-0.091
3.743,-0.088
3.744,-0.086
3.745,-0.084
3.746,-0.083
3.747,-0.084
3.748,-0.086
3.749,-0.088
3.750,-0.088
3.751,-0.084
3.752,-0.084
3.753,-0.088
3.754,-0.084
3.755,-0.088
3.756,-0.088
3.757,-0.091
3.758,-0.088
3.759,-0.088
3.760,-0.084
3.761,-0.081
3.762,-0.086
3.763,-0.084
3.764,-0.086
3.765,-0.088
3.766,-0.086
3.767,-0.084
3.768,-0.084
3.769,-0.084
3.770,-0.086
3.771,-0.088
3.772,-0.088
3.773,-0.088
3.774,-0.086
3.775,-0.088
3.776,-0.088
3.777,-0.088
3.778,-0.089
3.779,-0.088
3.780,-0.088
3.781,-0.088
3.782,-0.088
3.783,-0.088
3.784,-0.088
3.785,-0.088
3.786,-0.088
3.787,-0.088
3.788,-0.088
3.789,-0.088
3.790,-0.088
3.791,-0.088
3.792,-0.086
3.793,-0.084
3.794,-0.086
3.795,-0.084
3.796,-0.084
3.797,-0.084
3.798,-0.089
3.799,-0.088
3.800,-0.088
3.801,-0.088
3.802,-0.088
3.803,-0.088
3.804,-0.088
3.805,-0.088
3.806,-0.088
3.807,-0.084
3.808,-0.084
3.809,-0.084
3.810,-0.084
3.811,-0.084
3.812,-0.088
3.813,-0.088
3.814,-0.088
3.815,-0.091
3.816,-0.084
3.817,-0.084
3.818,-0.086
3.819,-0.088
3.820,-0.086
3.821,-0.088
3.822,-0.088
3.823,-0.088
3.824,-0.084
3.825,-0.088
3.826,-0.088
3.827,-0.088
3.828,-0.083
3.829,-0.081
3.830,-0.083
3.831,-0.081
3.832,-0.081
3.833,-0.081
3.834,-0.081
3.835,-0.081
3.836,-0.077
3.837,-0.075
3.838,-0.076
3.839,-0.078
3.840,-0.081
3.841,-0.081
3.842,-0.086
3.843,-0.088
3.844,-0.088
3.845,-0.088
3.846,-0.086
3.847,-0.084
3.848,-0.080
3.849,-0.075
3.850,-0.079
3.851,-0.078
3.852,-0.078
3.853,-0.081
3.854,-0.083
3.855,-0.084
3.856,-0.083
3.857,-0.081
3.858,-0.077
3.859,-0.072
3.860,-0.072
3.861,-0.072
3.862,-0.078
3.863,-0.084
3.864,-0.086
3.865,-0.088
3.866,-0.088
3.867,-0.088
3.868,-0.092
3.869,-0.091
3.870,-0.088
3.871,-0.084
3.872,-0.081
3.873,-0.084
3.874,-0.086
3.875,-0.084
3.876,-0.083
3.877,-0.081
3.878,-0.084
3.879,-0.084
3.880,-0.083
3.881,-0.081
3.882,-0.081
3.883,-0.081
3.884,-0.079
3.885,-0.081
3.886,-0.080
3.887,-0.081
3.888,-0.078
3.889,-0.081
3.890,-0.081
3.891,-0.078
3.892,-0.083
3.893,-0.081
3.894,-0.080
3.895,-0.081
3.896,-0.081
3.897,-0.078
3.898,-0.083
3.899,-0.081
3.900,-0.081
3.901,-0.081
3.902,-0.081
3.903,-0.084
3.904,-0.084
3.905,-0.084
3.906,-0.089
3.907,-0.088
3.908,-0.083
3.909,-0.081
3.910,-0.080
3.911,-0.078
3.912,-0.077
3.913,-0.072
3.914,-0.070
3.915,-0.069
3.916,-0.069
3.917,-0.069
3.918,-0.068
3.919,-0.062
3.920,-0.056
3.921,-0.050
3.922,-0.046
3.923,-0.041
3.924,-0.036
3.925,-0.031
3.926,-0.024
3.927,-0.016
3.928,-0.020
3.929,-0.019
3.930,-0.013
3.931,-0.009
3.932,0.001
3.933,0.009
3.934,0.014
3.935,0.016
3.936,0.026
3.937,0.034
3.938,0.038
3.939,0.038
3.940,0.038
3.941,0.034
3.942,0.030
3.943,0.028
3.944,0.027
3.945,0.028
3.946,0.036
3.947,0.041
3.948,0.045
3.949,0.053
3.950,0.059
3.951,0.062
3.952,0.069
3.953,0.075
3.954,0.081
3.955,0.091
3.956,0.094
3.957,0.097
3.958,0.100
3.959,0.109
3.960,0.114
3.961,0.116
3.962,0.118
3.963,0.119
3.964,0.116
3.965,0.119
3.966,0.122
3.967,0.122
3.968,0.122
3.969,0.122
3.970,0.119
3.971,0.119
3.972,0.116
3.973,0.109
3.974,0.103
3.975,0.094
3.976,0.084
3.977,0.078
3.978,0.072
3.979,0.066
3.980,0.066
3.981,0.062
3.982,0.056
3.983,0.050
3.984,0.047
3.985,0.044
3.986,0.047
3.987,0.047
3.988,0.042
3.989,0.044
3.990,0.041
3.991,0.038
3.992,0.036
3.993,0.034
3.994,0.022
3.995,0.012
3.996,0.005
3.997,-0.003
3.998,-0.014
3.999,-0.022
4.000,-0.025
4.001,-0.028
4.002,-0.039
4.003,-0.047
4.004,-0.050
4.005,-0.050
4.006,-0.052
4.007,-0.050
4.008,-0.052
4.009,-0.053
4.010,-0.052
4.011,-0.053
4.012,-0.056
4.013,-0.059
4.014,-0.064
4.015,-0.069
4.016,-0.071
4.017,-0.069
4.018,-0.072
4.019,-0.072
4.020,-0.072
4.021,-0.075
4.022,-0.081
4.023,-0.084
4.024,-0.086
4.025,-0.084
4.026,-0.088
4.027,-0.084
4.028,-0.088
4.029,-0.091
4.030,-0.097
4.031,-0.100
4.032,-0.102
4.033,-0.103
4.034,-0.103
4.035,-0.103
4.036,-0.105
4.037,-0.106
4.038,-0.109
4.039,-0.109
4.040,-0.108
4.041,-0.109
4.042,-0.111
4.043,-0.113
4.044,-0.113
4.045,-0.113
4.046,-0.113
4.047,-0.113
4.048,-0.114
4.049,-0.113
4.050,-0.111
4.051,-0.109
4.052,-0.109
4.053,-0.109
4.054,-0.111
4.055,-0.113
4.056,-0.109
4.057,-0.109
4.058,-0.111
4.059,-0.109
4.060,-0.111
4.061,-0.113
4.062,-0.118
4.063,-0.116
4.064,-0.114
4.065,-0.113
4.066,-0.113
4.067,-0.116
4.068,-0.126
4.069,-0.128
4.070,-0.136
4.071,-0.144
4.072,-0.151
4.073,-0.163
4.074,-0.171
4.075,-0.178
4.076,-0.181
4.077,-0.188
4.078,-0.181
4.079,-0.163
4.080,-0.141
4.081,-0.113
4.082,-0.080
4.083,-0.044
4.084,-0.013
4.085,0.012
4.086,0.045
4.087,0.078
4.088,0.116
4.089,0.169
4.090,0.233
4.091,0.316
4.092,0.419
4.093,0.487
4.094,0.575
4.095,0.662
4.096,0.752
4.097,0.850
4.098,0.930
4.099,1.000
4.100,1.059
4.101,1.144
4.102,1.229
4.103,1.297
4.104,1.344
4.105,1.375
4.106,1.369
4.107,1.316
4.108,1.253
4.109,1.181
4.110,1.109
4.111,1.012
4.112,0.912
4.113,0.800
4.114,0.686
4.115,0.578
4.116,0.486
4.117,0.403
4.118,0.347
4.119,0.306
4.120,0.284
4.121,0.278
4.122,0.261
4.123,0.244
4.124,0.222
4.125,0.197
4.126,0.174
4.127,0.159
4.128,0.149
4.129,0.128
4.130,0.116
4.131,0.109
4.132,0.102
4.133,0.094
4.134,0.089
4.135,0.084
4.136,0.080
4.137,0.069
4.138,0.061
4.139,0.056
4.140,0.048
4.141,0.038
4.142,0.028
4.143,0.022
4.144,0.017
4.145,0.009
4.146,-0.004
4.147,-0.019
4.148,-0.025
4.149,-0.034
4.150,-0.041
4.151,-0.047
4.152,-0.047
4.153,-0.047
4.154,-0.050
4.155,-0.050
4.156,-0.053
4.157,-0.053
4.158,-0.053
4.159,-0.053
4.160,-0.053
4.161,-0.053
4.162,-0.057
4.163,-0.062
4.164,-0.067
4.165,-0.066
4.166,-0.068
4.167,-0.066
4.168,-0.069
4.169,-0.069
4.170,-0.069
4.171,-0.069
4.172,-0.069
4.173,-0.069
4.174,-0.067
4.175,-0.069
4.176,-0.069
4.177,-0.069
4.178,-0.069
4.179,-0.069
4.180,-0.069
4.181,-0.072
4.182,-0.069
4.183,-0.069
4.184,-0.070
4.185,-0.072
4.186,-0.072
4.187,-0.072
4.188,-0.073
4.189,-0.072
4.190,-0.073
4.191,-0.072
4.192,-0.072
4.193,-0.072
4.194,-0.071
4.195,-0.072
4.196,-0.072
4.197,-0.072
4.198,-0.071
4.199,-0.069
4.200,-0.067
4.201,-0.069
4.202,-0.066
4.203,-0.069
4.204,-0.066
4.205,-0.062
4.206,-0.062
4.207,-0.066
4.208,-0.064
4.209,-0.066
4.210,-0.061
4.211,-0.056
4.212,-0.053
4.213,-0.053
4.214,-0.054
4.215,-0.053
4.216,-0.052
4.217,-0.050
4.218,-0.050
4.219,-0.050
4.220,-0.047
4.221,-0.047
4.222,-0.050
4.223,-0.050
4.224,-0.048
4.225,-0.050
4.226,-0.050
4.227,-0.047
4.228,-0.048
4.229,-0.047
4.230,-0.048
4.231,-0.050
4.232,-0.050
4.233,-0.047
4.234,-0.045
4.235,-0.047
4.236,-0.041
4.237,-0.038
4.238,-0.036
4.239,-0.038
4.240,-0.039
4.241,-0.038
4.242,-0.038
4.243,-0.038
4.244,-0.036
4.245,-0.038
4.246,-0.038
4.247,-0.034
4.248,-0.034
4.249,-0.034
4.250,-0.031
4.251,-0.031
4.252,-0.031
4.253,-0.031
4.254,-0.030
4.255,-0.025
4.256,-0.022
4.257,-0.022
4.258,-0.022
4.259,-0.022
4.260,-0.020
4.261,-0.022
4.262,-0.020
4.263,-0.019
4.264,-0.016
4.265,-0.013
4.266,-0.014
4.267,-0.013
4.268,-0.013
4.269,-0.013
4.270,-0.009
4.271,-0.009
4.272,-0.011
4.273,-0.013
4.274,-0.005
4.275,0.000
4.276,0.004
4.277,0.006
4.278,0.006
4.279,0.006
4.280,0.006
4.281,0.006
4.282,0.012
4.283,0.016
4.284,0.011
4.285,0.009
4.286,0.011
4.287,0.012
4.288,0.014
4.289,0.016
4.290,0.019
4.291,0.019
4.292,0.023
4.293,0.025
4.294,0.024
4.295,0.028
4.296,0.028
4.297,0.028
4.298,0.031
4.299,0.034
4.300,0.034
4.301,0.038
4.302,0.044
4.303,0.050
4.304,0.057
4.305,0.056
4.306,0.056
4.307,0.056
4.308,0.056
4.309,0.062
4.310,0.062
4.311,0.066
4.312,0.070
4.313,0.075
4.314,0.077
4.315,0.078
4.316,0.080
4.317,0.081
4.318,0.086
4.319,0.087
4.320,0.094
4.321,0.097
4.322,0.100
4.323,0.100
4.324,0.102
4.325,0.103
4.326,0.108
4.327,0.113
4.328,0.116
4.329,0.119
4.330,0.125
4.331,0.128
4.332,0.132
4.333,0.141
4.334,0.145
4.335,0.150
4.336,0.152
4.337,0.153
4.338,0.155
4.339,0.159
4.340,0.166
4.341,0.172
4.342,0.172
4.343,0.172
4.344,0.172
4.345,0.175
4.346,0.178
4.347,0.178
4.348,0.175
4.349,0.178
4.350,0.182
4.351,0.187
4.352,0.191
4.353,0.194
4.354,0.201
4.355,0.209
4.356,0.211
4.357,0.209
4.358,0.216
4.359,0.216
4.360,0.222
4.361,0.225
4.362,0.228
4.363,0.228
4.364,0.230
4.365,0.231
4.366,0.234
4.367,0.234
4.368,0.233
4.369,0.234
4.370,0.234
4.371,0.234
4.372,0.241
4.373,0.244
4.374,0.246
4.375,0.247
4.376,0.247
4.377,0.247
4.378,0.246
4.379,0.244
4.380,0.246
4.381,0.244
4.382,0.247
4.383,0.247
4.384,0.251
4.385,0.250
4.386,0.249
4.387,0.247
4.388,0.251
4.389,0.247
4.390,0.251
4.391,0.250
4.392,0.250
4.393,0.250
4.394,0.246
4.395,0.241
4.396,0.241
4.397,0.237
4.398,0.227
4.399,0.222
4.400,0.214
4.401,0.209
4.402,0.208
4.403,0.203
4.404,0.196
4.405,0.191
4.406,0.184
4.407,0.178
4.408,0.176
4.409,0.172
4.410,0.166
4.411,0.162
4.412,0.159
4.413,0.153
4.414,0.150
4.415,0.147
4.416,0.139
4.417,0.137
4.418,0.134
4.419,0.128
4.420,0.121
4.421,0.113
4.422,0.103
4.423,0.097
4.424,0.094
4.425,0.094
4.426,0.089
4.427,0.084
4.428,0.081
4.429,0.078
4.430,0.072
4.431,0.069
4.432,0.069
4.433,0.069
4.434,0.059
4.435,0.050
4.436,0.047
4.437,0.038
4.438,0.031
4.439,0.028
4.440,0.026
4.441,0.025
4.442,0.025
4.443,0.022
4.444,0.021
4.445,0.016
4.446,0.014
4.447,0.009
4.448,0.009
4.449,0.006
4.450,0.000
4.451,-0.006
4.452,-0.009
4.453,-0.013
4.454,-0.014
4.455,-0.016
4.456,-0.014
4.457,-0.013
4.458,-0.017
4.459,-0.019
4.460,-0.022
4.461,-0.022
4.462,-0.025
4.463,-0.031
4.464,-0.031
4.465,-0.031
4.466,-0.030
4.467,-0.031
4.468,-0.034
4.469,-0.034
4.470,-0.034
4.471,-0.034
4.472,-0.034
4.473,-0.034
4.474,-0.039
4.475,-0.047
4.476,-0.051
4.477,-0.053
4.478,-0.050
4.479,-0.047
4.480,-0.046
4.481,-0.044
4.482,-0.043
4.483,-0.044
4.484,-0.043
4.485,-0.044
4.486,-0.041
4.487,-0.041
4.488,-0.041
4.489,-0.047
4.490,-0.048
4.491,-0.050
4.492,-0.049
4.493,-0.047
4.494,-0.049
4.495,-0.047
4.496,-0.048
4.497,-0.050
4.498,-0.050
4.499,-0.050
4.500,-0.048
4.501,-0.050
4.502,-0.046
4.503,-0.047
4.504,-0.050
4.505,-0.050
4.506,-0.051
4.507,-0.053
4.508,-0.053
4.509,-0.053
4.510,-0.050
4.511,-0.044
4.512,-0.044
4.513,-0.047
4.514,-0.050
4.515,-0.050
4.516,-0.049
4.517,-0.044
4.518,-0.044
4.519,-0.044
4.520,-0.048
4.521,-0.047
4.522,-0.044
4.523,-0.047
4.524,-0.048
4.525,-0.047
4.526,-0.047
4.527,-0.044
4.528,-0.043
4.529,-0.041
4.530,-0.041
4.531,-0.050
4.532,-0.047
4.533,-0.047
4.534,-0.048
4.535,-0.050
4.536,-0.048
4.537,-0.050
4.538,-0.049
4.539,-0.050
4.540,-0.050
4.541,-0.050
4.542,-0.050
4.543,-0.050
4.544,-0.048
4.545,-0.050
4.546,-0.049
4.547,-0.050
4.548,-0.048
4.549,-0.050
4.550,-0.049
4.551,-0.050
4.552,-0.049
4.553,-0.050
4.554,-0.048
4.555,-0.050
4.556,-0.050
4.557,-0.050
4.558,-0.047
4.559,-0.050
4.560,-0.051
4.561,-0.050
4.562,-0.046
4.563,-0.044
4.564,-0.043
4.565,-0.038
4.566,-0.042
4.567,-0.044
4.568,-0.044
4.569,-0.044
4.570,-0.046
4.571,-0.041
4.572,-0.044
4.573,-0.047
4.574,-0.047
4.575,-0.050
4.576,-0.050
4.577,-0.050
4.578,-0.050
4.579,-0.050
4.580,-0.050
4.581,-0.050
4.582,-0.050
4.583,-0.050
4.584,-0.052
4.585,-0.050
4.586,-0.050
4.587,-0.050
4.588,-0.049
4.589,-0.050
4.590,-0.054
4.591,-0.059
4.592,-0.058
4.593,-0.056
4.594,-0.053
4.595,-0.050
4.596,-0.049
4.597,-0.050
4.598,-0.053
4.599,-0.056
4.600,-0.062
4.601,-0.062
4.602,-0.062
4.603,-0.062
4.604,-0.061
4.605,-0.059
4.606,-0.064
4.607,-0.066
4.608,-0.068
4.609,-0.066
4.610,-0.066
4.611,-0.066
4.612,-0.066
4.613,-0.066
4.614,-0.066
4.615,-0.066
4.616,-0.066
4.617,-0.066
4.618,-0.066
4.619,-0.066
4.620,-0.069
4.621,-0.069
4.622,-0.069
4.623,-0.069
4.624,-0.069
4.625,-0.069
4.626,-0.070
4.627,-0.072
4.628,-0.073
4.629,-0.078
4.630,-0.078
4.631,-0.078
4.632,-0.078
4.633,-0.078
4.634,-0.079
4.635,-0.078
4.636,-0.075
4.637,-0.075
4.638,-0.078
4.639,-0.075
4.640,-0.077
4.641,-0.075
4.642,-0.072
4.643,-0.072
4.644,-0.075
4.645,-0.075
4.646,-0.075
4.647,-0.075
4.648,-0.076
4.649,-0.078
4.650,-0.077
4.651,-0.072
4.652,-0.078
4.653,-0.075
4.654,-0.078
4.655,-0.078
4.656,-0.078
4.657,-0.078
4.658,-0.076
4.659,-0.078
4.660,-0.075
4.661,-0.075
4.662,-0.072
4.663,-0.072
4.664,-0.076
4.665,-0.078
4.666,-0.078
4.667,-0.081
4.668,-0.078
4.669,-0.078
4.670,-0.079
4.671,-0.084
4.672,-0.081
4.673,-0.081
4.674,-0.084
4.675,-0.084
4.676,-0.084
4.677,-0.084
4.678,-0.084
4.679,-0.084
4.680,-0.089
4.681,-0.088
4.682,-0.088
4.683,-0.088
4.684,-0.086
4.685,-0.088
4.686,-0.086
4.687,-0.084
4.688,-0.088
4.689,-0.088
4.690,-0.084
4.691,-0.088
4.692,-0.083
4.693,-0.081
4.694,-0.084
4.695,-0.084
4.696,-0.084
4.697,-0.088
4.698,-0.089
4.699,-0.088
4.700,-0.086
4.701,-0.084
4.702,-0.084
4.703,-0.084
4.704,-0.086
4.705,-0.088
4.706,-0.086
4.707,-0.084
4.708,-0.086
4.709,-0.081
4.710,-0.078
4.711,-0.078
4.712,-0.077
4.713,-0.075
4.714,-0.079
4.715,-0.081
4.716,-0.081
4.717,-0.081
4.718,-0.083
4.719,-0.084
4.720,-0.083
4.721,-0.081
4.722,-0.078
4.723,-0.075
4.724,-0.081
4.725,-0.084
4.726,-0.086
4.727,-0.088
4.728,-0.092
4.729,-0.091
4.730,-0.088
4.731,-0.088
4.732,-0.084
4.733,-0.081
4.734,-0.086
4.735,-0.088
4.736,-0.084
4.737,-0.088
4.738,-0.088
4.739,-0.088
4.740,-0.088
4.741,-0.088
4.742,-0.091
4.743,-0.094
4.744,-0.091
4.745,-0.094
4.746,-0.094
4.747,-0.094
4.748,-0.097
4.749,-0.094
4.750,-0.093
4.751,-0.091
4.752,-0.088
4.753,-0.084
4.754,-0.086
4.755,-0.088
4.756,-0.088
4.757,-0.084
4.758,-0.088
4.759,-0.088
4.760,-0.088
4.761,-0.088
4.762,-0.088
4.763,-0.084
4.764,-0.086
4.765,-0.088
4.766,-0.088
4.767,-0.088
4.768,-0.089
4.769,-0.088
4.770,-0.089
4.771,-0.088
4.772,-0.091
4.773,-0.088
4.774,-0.088
4.775,-0.088
4.776,-0.088
4.777,-0.088
4.778,-0.089
4.779,-0.091
4.780,-0.088
4.781,-0.088
4.782,-0.091
4.783,-0.088
4.784,-0.089
4.785,-0.088
4.786,-0.088
4.787,-0.088
4.788,-0.088
4.789,-0.084
4.790,-0.086
4.791,-0.088
4.792,-0.088
4.793,-0.091
4.794,-0.094
4.795,-0.094
4.796,-0.093
4.797,-0.091
4.798,-0.089
4.799,-0.088
4.800,-0.089
4.801,-0.088
4.802,-0.089
4.803,-0.088
4.804,-0.091
4.805,-0.091
4.806,-0.089
4.807,-0.091
4.808,-0.092
4.809,-0.091
4.810,-0.093
4.811,-0.091
4.812,-0.095
4.813,-0.094
4.814,-0.093
4.815,-0.094
4.816,-0.092
4.817,-0.094
4.818,-0.094
4.819,-0.094
4.820,-0.094
4.821,-0.094
4.822,-0.088
4.823,-0.084
4.824,-0.088
4.825,-0.084
4.826,-0.088
4.827,-0.088
4.828,-0.092
4.829,-0.091
4.830,-0.091
4.831,-0.091
4.832,-0.092
4.833,-0.097
4.834,-0.095
4.835,-0.097
4.836,-0.094
4.837,-0.091
4.838,-0.091
4.839,-0.091
4.840,-0.091
4.841,-0.091
4.842,-0.094
4.843,-0.097
4.844,-0.097
4.845,-0.094
4.846,-0.093
4.847,-0.091
4.848,-0.089
4.849,-0.091
4.850,-0.091
4.851,-0.091
4.852,-0.091
4.853,-0.091
4.854,-0.091
4.855,-0.091
4.856,-0.091
4.857,-0.091
4.858,-0.091
4.859,-0.091
4.860,-0.089
4.861,-0.088
4.862,-0.088
4.863,-0.088
4.864,-0.089
4.865,-0.091
4.866,-0.092
4.867,-0.097
4.868,-0.096
4.869,-0.097
4.870,-0.094
4.871,-0.094
4.872,-0.091
4.873,-0.088
4.874,-0.089
4.875,-0.091
4.876,-0.089
4.877,-0.091
4.878,-0.092
4.879,-0.094
4.880,-0.094
4.881,-0.094
4.882,-0.095
4.883,-0.097
4.884,-0.093
4.885,-0.091
4.886,-0.094
4.887,-0.091
4.888,-0.094
4.889,-0.094
4.890,-0.095
4.891,-0.094
4.892,-0.094
4.893,-0.094
4.894,-0.094
4.895,-0.091
4.896,-0.094
4.897,-0.094
4.898,-0.093
4.899,-0.091
4.900,-0.094
4.901,-0.094
4.902,-0.092
4.903,-0.094
4.904,-0.094
4.905,-0.094
4.906,-0.095
4.907,-0.094
4.908,-0.091
4.909,-0.088
4.910,-0.086
4.911,-0.088
4.912,-0.088
4.913,-0.091
4.914,-0.091
4.915,-0.091
4.916,-0.092
4.917,-0.091
4.918,-0.088
4.919,-0.088
4.920,-0.088
4.921,-0.091
4.922,-0.088
4.923,-0.088
4.924,-0.091
4.925,-0.091
4.926,-0.091
4.927,-0.091
4.928,-0.091
4.929,-0.091
4.930,-0.089
4.931,-0.088
4.932,-0.088
4.933,-0.088
4.934,-0.088
4.935,-0.088
4.936,-0.084
4.937,-0.081
4.938,-0.080
4.939,-0.081
4.940,-0.081
4.941,-0.084
4.942,-0.086
4.943,-0.084
4.944,-0.089
4.945,-0.091
4.946,-0.089
4.947,-0.091
4.948,-0.089
4.949,-0.091
4.950,-0.089
4.951,-0.088
4.952,-0.088
4.953,-0.088
4.954,-0.091
4.955,-0.091
4.956,-0.089
4.957,-0.088
4.958,-0.091
4.959,-0.088
4.960,-0.091
4.961,-0.091
4.962,-0.088
4.963,-0.091
4.964,-0.089
4.965,-0.091
4.966,-0.093
4.967,-0.091
4.968,-0.088
4.969,-0.091
4.970,-0.089
4.971,-0.091
4.972,-0.089
4.973,-0.088
4.974,-0.091
4.975,-0.091
4.976,-0.089
4.977,-0.091
4.978,-0.091
4.979,-0.091
4.980,-0.091
4.981,-0.091
4.982,-0.091
4.983,-0.091
4.984,-0.089
4.985,-0.088
4.986,-0.084
4.987,-0.084
4.988,-0.081
4.989,-0.078
4.990,-0.076
4.991,-0.072
4.992,-0.064
4.993,-0.059
4.994,-0.055
4.995,-0.047
4.996,-0.042
4.997,-0.038
4.998,-0.034
4.999,-0.034
5.000,-0.024
5.001,-0.016
5.002,-0.009
5.003,0.000
5.004,0.004
5.005,0.012
5.006,0.016
5.007,0.022
5.008,0.025
5.009,0.025
5.010,0.021
5.011,0.022
5.012,0.021
5.013,0.016
5.014,0.017
5.015,0.022
5.016,0.029
5.017,0.038
5.018,0.041
5.019,0.044
5.020,0.050
5.021,0.056
5.022,0.058
5.023,0.062
5.024,0.066
5.025,0.066
5.026,0.072
5.027,0.078
5.028,0.087
5.029,0.094
5.030,0.103
5.031,0.106
5.032,0.103
5.033,0.103
5.034,0.106
5.035,0.103
5.036,0.103
5.037,0.103
5.038,0.104
5.039,0.106
5.040,0.108
5.041,0.106
5.042,0.109
5.043,0.109
5.044,0.103
5.045,0.097
5.046,0.089
5.047,0.081
5.048,0.075
5.049,0.069
5.050,0.062
5.051,0.059
5.052,0.052
5.053,0.047
5.054,0.044
5.055,0.041
5.056,0.034
5.057,0.034
5.058,0.038
5.059,0.034
5.060,0.034
5.061,0.031
5.062,0.033
5.063,0.031
5.064,0.025
5.065,0.016
5.066,0.005
5.067,-0.006
5.068,-0.013
5.069,-0.022
5.070,-0.029
5.071,-0.038
5.072,-0.044
5.073,-0.050
5.074,-0.054
5.075,-0.059
5.076,-0.058
5.077,-0.059
5.078,-0.058
5.079,-0.059
5.080,-0.064
5.081,-0.066
5.082,-0.069
5.083,-0.072
5.084,-0.072
5.085,-0.072
5.086,-0.079
5.087,-0.088
5.088,-0.089
5.089,-0.094
5.090,-0.093
5.091,-0.091
5.092,-0.093
5.093,-0.094
5.094,-0.093
5.095,-0.094
5.096,-0.093
5.097,-0.094
5.098,-0.094
5.099,-0.100
5.100,-0.103
5.101,-0.106
5.102,-0.106
5.103,-0.109
5.104,-0.113
5.105,-0.113
5.106,-0.116
5.107,-0.122
5.108,-0.125
5.109,-0.128
5.110,-0.129
5.111,-0.128
5.112,-0.127
5.113,-0.125
5.114,-0.125
5.115,-0.125
5.116,-0.125
5.117,-0.125
5.118,-0.124
5.119,-0.125
5.120,-0.125
5.121,-0.125
5.122,-0.125
5.123,-0.125
5.124,-0.125
5.125,-0.125
5.126,-0.125
5.127,-0.125
5.128,-0.125
5.129,-0.122
5.130,-0.120
5.131,-0.122
5.132,-0.122
5.133,-0.128
5.134,-0.131
5.135,-0.131
5.136,-0.127
5.137,-0.128
5.138,-0.136
5.139,-0.147
5.140,-0.146
5.141,-0.153
5.142,-0.166
5.143,-0.172
5.144,-0.178
5.145,-0.188
5.146,-0.197
5.147,-0.197
5.148,-0.196
5.149,-0.188
5.150,-0.172
5.151,-0.150
5.152,-0.122
5.153,-0.091
5.154,-0.055
5.155,-0.019
5.156,0.006
5.157,0.031
5.158,0.058
5.159,0.094
5.160,0.150
5.161,0.219
5.162,0.312
5.163,0.416
5.164,0.479
5.165,0.572
5.166,0.664
5.167,0.759
5.168,0.858
5.169,0.937
5.170,1.006
5.171,1.066
5.172,1.149
5.173,1.225
5.174,1.292
5.175,1.341
5.176,1.358
5.177,1.347
5.178,1.297
5.179,1.234
5.180,1.162
5.181,1.087
5.182,0.991
5.183,0.891
5.184,0.782
5.185,0.675
5.186,0.559
5.187,0.463
5.188,0.391
5.189,0.337
5.190,0.300
5.191,0.275
5.192,0.261
5.193,0.253
5.194,0.237
5.195,0.209
5.196,0.187
5.197,0.169
5.198,0.153
5.199,0.141
5.200,0.123
5.201,0.109
5.202,0.099
5.203,0.091
5.204,0.081
5.205,0.075
5.206,0.072
5.207,0.069
5.208,0.062
5.209,0.056
5.210,0.050
5.211,0.041
5.212,0.027
5.213,0.012
5.214,0.003
5.215,-0.003
5.216,-0.011
5.217,-0.019
5.218,-0.025
5.219,-0.028
5.220,-0.036
5.221,-0.038
5.222,-0.042
5.223,-0.047
5.224,-0.053
5.225,-0.059
5.226,-0.058
5.227,-0.059
5.228,-0.062
5.229,-0.066
5.230,-0.066
5.231,-0.069
5.232,-0.071
5.233,-0.072
5.234,-0.074
5.235,-0.075
5.236,-0.071
5.237,-0.072
5.238,-0.078
5.239,-0.088
5.240,-0.088
5.241,-0.088
5.242,-0.088
5.243,-0.088
5.244,-0.089
5.245,-0.088
5.246,-0.086
5.247,-0.084
5.248,-0.083
5.249,-0.081
5.250,-0.080
5.251,-0.078
5.252,-0.084
5.253,-0.088
5.254,-0.089
5.255,-0.088
5.256,-0.089
5.257,-0.091
5.258,-0.089
5.259,-0.088
5.260,-0.083
5.261,-0.081
5.262,-0.078
5.263,-0.078
5.264,-0.079
5.265,-0.081
5.266,-0.084
5.267,-0.084
5.268,-0.084
5.269,-0.084
5.270,-0.086
5.271,-0.084
5.272,-0.084
5.273,-0.081
5.274,-0.084
5.275,-0.084
5.276,-0.086
5.277,-0.084
5.278,-0.081
5.279,-0.075
5.280,-0.075
5.281,-0.075
5.282,-0.074
5.283,-0.069
5.284,-0.069
5.285,-0.069
5.286,-0.067
5.287,-0.069
5.288,-0.069
5.289,-0.069
5.290,-0.072
5.291,-0.072
5.292,-0.071
5.293,-0.072
5.294,-0.073
5.295,-0.072
5.296,-0.071
5.297,-0.069
5.298,-0.066
5.299,-0.066
5.300,-0.064
5.301,-0.066
5.302,-0.066
5.303,-0.066
5.304,-0.059
5.305,-0.053
5.306,-0.052
5.307,-0.050
5.308,-0.054
5.309,-0.053
5.310,-0.053
5.311,-0.053
5.312,-0.050
5.313,-0.050
5.314,-0.051
5.315,-0.050
5.316,-0.050
5.317,-0.050
5.318,-0.047
5.319,-0.047
5.320,-0.044
5.321,-0.038
5.322,-0.036
5.323,-0.034
5.324,-0.034
5.325,-0.034
5.326,-0.034
5.327,-0.034
5.328,-0.036
5.329,-0.038
5.330,-0.036
5.331,-0.031
5.332,-0.028
5.333,-0.022
5.334,-0.020
5.335,-0.022
5.336,-0.022
5.337,-0.022
5.338,-0.020
5.339,-0.022
5.340,-0.023
5.341,-0.022
5.342,-0.021
5.343,-0.019
5.344,-0.020
5.345,-0.019
5.346,-0.019
5.347,-0.016
5.348,-0.017
5.349,-0.016
5.350,-0.013
5.351,-0.013
5.352,-0.011
5.353,-0.006
5.354,-0.005
5.355,-0.003
5.356,-0.006
5.357,-0.009
5.358,-0.003
5.359,0.000
5.360,0.000
5.361,0.003
5.362,0.002
5.363,0.003
5.364,0.007
5.365,0.012
5.366,0.017
5.367,0.019
5.368,0.023
5.369,0.025
5.370,0.026
5.371,0.028
5.372,0.031
5.373,0.034
5.374,0.034
5.375,0.038
5.376,0.034
5.377,0.038
5.378,0.041
5.379,0.041
5.380,0.048
5.381,0.050
5.382,0.053
5.383,0.056
5.384,0.058
5.385,0.059
5.386,0.064
5.387,0.069
5.388,0.071
5.389,0.072
5.390,0.071
5.391,0.075
5.392,0.077
5.393,0.078
5.394,0.081
5.395,0.087
5.396,0.092
5.397,0.097
5.398,0.100
5.399,0.103
5.400,0.105
5.401,0.109
5.402,0.114
5.403,0.119
5.404,0.125
5.405,0.128
5.406,0.131
5.407,0.134
5.408,0.136
5.409,0.137
5.410,0.145
5.411,0.150
5.412,0.153
5.413,0.156
5.414,0.159
5.415,0.159
5.416,0.164
5.417,0.172
5.418,0.175
5.419,0.172
5.420,0.174
5.421,0.175
5.422,0.179
5.423,0.184
5.424,0.186
5.425,0.187
5.426,0.192
5.427,0.197
5.428,0.200
5.429,0.209
5.430,0.208
5.431,0.213
5.432,0.216
5.433,0.219
5.434,0.217
5.435,0.219
5.436,0.221
5.437,0.222
5.438,0.222
5.439,0.222
5.440,0.226
5.441,0.228
5.442,0.227
5.443,0.228
5.444,0.227
5.445,0.228
5.446,0.230
5.447,0.228
5.448,0.231
5.449,0.234
5.450,0.234
5.451,0.237
5.452,0.237
5.453,0.237
5.454,0.234
5.455,0.237
5.456,0.234
5.457,0.234
5.458,0.241
5.459,0.250
5.460,0.239
5.461,0.237
5.462,0.233
5.463,0.228
5.464,0.225
5.465,0.222
5.466,0.219
5.467,0.219
5.468,0.217
5.469,0.213
5.470,0.211
5.471,0.203
5.472,0.201
5.473,0.200
5.474,0.195
5.475,0.191
5.476,0.189
5.477,0.184
5.478,0.179
5.479,0.178
5.480,0.171
5.481,0.162
5.482,0.158
5.483,0.153
5.484,0.147
5.485,0.144
5.486,0.141
5.487,0.131
5.488,0.128
5.489,0.125
5.490,0.118
5.491,0.109
5.492,0.104
5.493,0.100
5.494,0.097
5.495,0.091
5.496,0.084
5.497,0.078
5.498,0.074
5.499,0.069
5.500,0.067
5.501,0.062
5.502,0.058
5.503,0.053
5.504,0.053
5.505,0.050
5.506,0.043
5.507,0.041
5.508,0.036
5.509,0.031
5.510,0.028
5.511,0.025
5.512,0.019
5.513,0.012
5.514,0.007
5.515,0.009
5.516,0.009
5.517,0.009
5.518,0.003
5.519,0.003
5.520,-0.003
5.521,-0.009
5.522,-0.014
5.523,-0.019
5.524,-0.021
5.525,-0.022
5.526,-0.025
5.527,-0.025
5.528,-0.024
5.529,-0.025
5.530,-0.024
5.531,-0.028
5.532,-0.033
5.533,-0.034
5.534,-0.038
5.535,-0.038
5.536,-0.036
5.537,-0.034
5.538,-0.039
5.539,-0.044
5.540,-0.044
5.541,-0.044
5.542,-0.044
5.543,-0.044
5.544,-0.044
5.545,-0.044
5.546,-0.047
5.547,-0.050
5.548,-0.051
5.549,-0.053
5.550,-0.053
5.551,-0.053
5.552,-0.052
5.553,-0.050
5.554,-0.053
5.555,-0.053
5.556,-0.057
5.557,-0.056
5.558,-0.056
5.559,-0.053
5.560,-0.056
5.561,-0.056
5.562,-0.056
5.563,-0.056
5.564,-0.055
5.565,-0.056
5.566,-0.056
5.567,-0.056
5.568,-0.056
5.569,-0.056
5.570,-0.057
5.571,-0.056
5.572,-0.056
5.573,-0.053
5.574,-0.055
5.575,-0.056
5.576,-0.056
5.577,-0.056
5.578,-0.056
5.579,-0.056
5.580,-0.056
5.581,-0.056
5.582,-0.053
5.583,-0.053
5.584,-0.056
5.585,-0.059
5.586,-0.059
5.587,-0.059
5.588,-0.056
5.589,-0.056
5.590,-0.055
5.591,-0.056
5.592,-0.053
5.593,-0.050
5.594,-0.052
5.595,-0.050
5.596,-0.047
5.597,-0.050
5.598,-0.051
5.599,-0.053
5.600,-0.056
5.601,-0.056
5.602,-0.061
5.603,-0.056
5.604,-0.056
5.605,-0.056
5.606,-0.056
5.607,-0.053
5.608,-0.054
5.609,-0.056
5.610,-0.056
5.611,-0.053
5.612,-0.054
5.613,-0.056
5.614,-0.056
5.615,-0.053
5.616,-0.052
5.617,-0.050
5.618,-0.054
5.619,-0.053
5.620,-0.053
5.621,-0.053
5.622,-0.055
5.623,-0.053
5.624,-0.057
5.625,-0.056
5.626,-0.056
5.627,-0.056
5.628,-0.056
5.629,-0.053
5.630,-0.056
5.631,-0.056
5.632,-0.053
5.633,-0.053
5.634,-0.056
5.635,-0.056
5.636,-0.053
5.637,-0.056
5.638,-0.056
5.639,-0.056
5.640,-0.055
5.641,-0.056
5.642,-0.052
5.643,-0.053
5.644,-0.057
5.645,-0.056
5.646,-0.056
5.647,-0.056
5.648,-0.057
5.649,-0.059
5.650,-0.061
5.651,-0.062
5.652,-0.059
5.653,-0.056
5.654,-0.059
5.655,-0.066
5.656,-0.066
5.657,-0.066
5.658,-0.064
5.659,-0.062
5.660,-0.067
5.661,-0.069
5.662,-0.069
5.663,-0.069
5.664,-0.068
5.665,-0.066
5.666,-0.064
5.667,-0.062
5.668,-0.066
5.669,-0.066
5.670,-0.066
5.671,-0.069
5.672,-0.067
5.673,-0.069
5.674,-0.069
5.675,-0.069
5.676,-0.068
5.677,-0.069
5.678,-0.069
5.679,-0.072
5.680,-0.075
5.681,-0.078
5.682,-0.078
5.683,-0.078
5.684,-0.078
5.685,-0.078
5.686,-0.074
5.687,-0.069
5.688,-0.070
5.689,-0.072
5.690,-0.072
5.691,-0.075
5.692,-0.075
5.693,-0.075
5.694,-0.075
5.695,-0.075
5.696,-0.075
5.697,-0.075
5.698,-0.078
5.699,-0.081
5.700,-0.084
5.701,-0.084
5.702,-0.084
5.703,-0.084
5.704,-0.083
5.705,-0.081
5.706,-0.077
5.707,-0.075
5.708,-0.081
5.709,-0.088
5.710,-0.083
5.711,-0.084
5.712,-0.084
5.713,-0.081
5.714,-0.080
5.715,-0.081
5.716,-0.083
5.717,-0.084
5.718,-0.084
5.719,-0.084
5.720,-0.088
5.721,-0.091
5.722,-0.086
5.723,-0.091
5.724,-0.086
5.725,-0.088
5.726,-0.088
5.727,-0.088
5.728,-0.089
5.729,-0.088
5.730,-0.086
5.731,-0.084
5.732,-0.089
5.733,-0.088
5.734,-0.086
5.735,-0.088
5.736,-0.088
5.737,-0.088
5.738,-0.092
5.739,-0.091
5.740,-0.088
5.741,-0.084
5.742,-0.089
5.743,-0.088
5.744,-0.089
5.745,-0.094
5.746,-0.094
5.747,-0.094
5.748,-0.094
5.749,-0.094
5.750,-0.091
5.751,-0.091
5.752,-0.088
5.753,-0.088
5.754,-0.089
5.755,-0.088
5.756,-0.088
5.757,-0.088
5.758,-0.088
5.759,-0.091
5.760,-0.091
5.761,-0.088
5.762,-0.092
5.763,-0.091
5.764,-0.089
5.765,-0.091
5.766,-0.091
5.767,-0.091
5.768,-0.097
5.769,-0.100
5.770,-0.098
5.771,-0.100
5.772,-0.097
5.773,-0.094
5.774,-0.094
5.775,-0.094
5.776,-0.094
5.777,-0.094
5.778,-0.093
5.779,-0.094
5.780,-0.094
5.781,-0.094
5.782,-0.094
5.783,-0.094
5.784,-0.094
5.785,-0.097
5.786,-0.098
5.787,-0.100
5.788,-0.097
5.789,-0.094
5.790,-0.094
5.791,-0.094
5.792,-0.094
5.793,-0.094
5.794,-0.093
5.795,-0.094
5.796,-0.097
5.797,-0.100
5.798,-0.099
5.799,-0.100
5.800,-0.097
5.801,-0.097
5.802,-0.101
5.803,-0.100
5.804,-0.097
5.805,-0.100
5.806,-0.100
5.807,-0.097
5.808,-0.100
5.809,-0.100
5.810,-0.097
5.811,-0.094
5.812,-0.094
5.813,-0.094
5.814,-0.095
5.815,-0.094
5.816,-0.097
5.817,-0.097
5.818,-0.094
5.819,-0.094
5.820,-0.094
5.821,-0.097
5.822,-0.098
5.823,-0.100
5.824,-0.100
5.825,-0.100
5.826,-0.101
5.827,-0.103
5.828,-0.099
5.829,-0.100
5.830,-0.100
5.831,-0.100
5.832,-0.099
5.833,-0.097
5.834,-0.093
5.835,-0.094
5.836,-0.098
5.837,-0.100
5.838,-0.101
5.839,-0.103
5.840,-0.100
5.841,-0.100
5.842,-0.096
5.843,-0.097
5.844,-0.094
5.845,-0.094
5.846,-0.095
5.847,-0.100
5.848,-0.102
5.849,-0.100
5.850,-0.100
5.851,-0.097
5.852,-0.096
5.853,-0.097
5.854,-0.098
5.855,-0.106
5.856,-0.108
5.857,-0.109
5.858,-0.109
5.859,-0.109
5.860,-0.105
5.861,-0.103
5.862,-0.102
5.863,-0.100
5.864,-0.100
5.865,-0.097
5.866,-0.095
5.867,-0.097
5.868,-0.097
5.869,-0.097
5.870,-0.096
5.871,-0.097
5.872,-0.097
5.873,-0.097
5.874,-0.095
5.875,-0.100
5.876,-0.103
5.877,-0.103
5.878,-0.104
5.879,-0.106
5.880,-0.103
5.881,-0.103
5.882,-0.100
5.883,-0.103
5.884,-0.102
5.885,-0.103
5.886,-0.101
5.887,-0.103
5.888,-0.106
5.889,-0.103
5.890,-0.103
5.891,-0.103
5.892,-0.099
5.893,-0.094
5.894,-0.097
5.895,-0.097
5.896,-0.096
5.897,-0.097
5.898,-0.094
5.899,-0.097
5.900,-0.097
5.901,-0.100
5.902,-0.098
5.903,-0.100
5.904,-0.099
5.905,-0.097
5.906,-0.103
5.907,-0.103
5.908,-0.103
5.909,-0.103
5.910,-0.103
5.911,-0.103
5.912,-0.103
5.913,-0.103
5.914,-0.103
5.915,-0.103
5.916,-0.103
5.917,-0.103
5.918,-0.101
5.919,-0.103
5.920,-0.102
5.921,-0.100
5.922,-0.103
5.923,-0.103
5.924,-0.103
5.925,-0.103
5.926,-0.103
5.927,-0.103
5.928,-0.103
5.929,-0.103
5.930,-0.103
5.931,-0.103
5.932,-0.103
5.933,-0.103
5.934,-0.099
5.935,-0.094
5.936,-0.094
5.937,-0.094
5.938,-0.095
5.939,-0.094
5.940,-0.094
5.941,-0.094
5.942,-0.097
5.943,-0.094
5.944,-0.094
5.945,-0.094
5.946,-0.094
5.947,-0.094
5.948,-0.093
5.949,-0.091
5.950,-0.094
5.951,-0.094
5.952,-0.095
5.953,-0.097
5.954,-0.098
5.955,-0.100
5.956,-0.099
5.957,-0.094
5.958,-0.094
5.959,-0.097
5.960,-0.095
5.961,-0.100
5.962,-0.100
5.963,-0.100
5.964,-0.100
5.965,-0.103
5.966,-0.102
5.967,-0.100
5.968,-0.094
5.969,-0.094
5.970,-0.094
5.971,-0.094
5.972,-0.093
5.973,-0.094
5.974,-0.097
5.975,-0.097
5.976,-0.097
5.977,-0.097
5.978,-0.096
5.979,-0.094
5.980,-0.089
5.981,-0.088
5.982,-0.088
5.983,-0.088
5.984,-0.092
5.985,-0.094
5.986,-0.098
5.987,-0.100
5.988,-0.100
5.989,-0.100
5.990,-0.097
5.991,-0.094
5.992,-0.094
5.993,-0.094
5.994,-0.098
5.995,-0.097
5.996,-0.094
5.997,-0.094
5.998,-0.094
5.999,-0.094
6.000,-0.094
6.001,-0.094
6.002,-0.098
6.003,-0.103
6.004,-0.102
6.005,-0.100
6.006,-0.100
6.007,-0.100
6.008,-0.096
6.009,-0.091
6.010,-0.092
6.011,-0.094
6.012,-0.097
6.013,-0.094
6.014,-0.094
6.015,-0.094
6.016,-0.091
6.017,-0.094
6.018,-0.098
6.019,-0.100
6.020,-0.100
6.021,-0.100
6.022,-0.103
6.023,-0.103
6.024,-0.099
6.025,-0.094
6.026,-0.094
6.027,-0.094
6.028,-0.091
6.029,-0.091
6.030,-0.089
6.031,-0.091
6.032,-0.091
6.033,-0.097
6.034,-0.098
6.035,-0.097
6.036,-0.097
6.037,-0.091
6.038,-0.089
6.039,-0.091
6.040,-0.094
6.041,-0.094
6.042,-0.096
6.043,-0.091
6.044,-0.091
6.045,-0.091
6.046,-0.091
6.047,-0.094
6.048,-0.094
6.049,-0.094
6.050,-0.096
6.051,-0.091
6.052,-0.089
6.053,-0.091
6.054,-0.091
6.055,-0.091
6.056,-0.094
6.057,-0.094
6.058,-0.094
6.059,-0.094
6.060,-0.091
6.061,-0.088
6.062,-0.088
6.063,-0.084
6.064,-0.079
6.065,-0.075
6.066,-0.072
6.067,-0.069
6.068,-0.064
6.069,-0.059
6.070,-0.053
6.071,-0.047
6.072,-0.045
6.073,-0.038
6.074,-0.030
6.075,-0.025
6.076,-0.016
6.077,-0.009
6.078,-0.003
6.079,0.000
6.080,0.005
6.081,0.006
6.082,0.007
6.083,0.006
6.084,0.009
6.085,0.009
6.086,0.006
6.087,0.006
6.088,0.005
6.089,0.006
6.090,0.016
6.091,0.022
6.092,0.026
6.093,0.034
6.094,0.044
6.095,0.050
6.096,0.053
6.097,0.056
6.098,0.058
6.099,0.062
6.100,0.072
6.101,0.081
6.102,0.086
6.103,0.097
6.104,0.099
6.105,0.097
6.106,0.100
6.107,0.103
6.108,0.100
6.109,0.103
6.110,0.106
6.111,0.106
6.112,0.106
6.113,0.106
6.114,0.104
6.115,0.106
6.116,0.103
6.117,0.097
6.118,0.091
6.119,0.081
6.120,0.071
6.121,0.062
6.122,0.056
6.123,0.050
6.124,0.050
6.125,0.047
6.126,0.041
6.127,0.034
6.128,0.034
6.129,0.034
6.130,0.038
6.131,0.038
6.132,0.031
6.133,0.031
6.134,0.031
6.135,0.031
6.136,0.026
6.137,0.022
6.138,0.011
6.139,0.003
6.140,-0.008
6.141,-0.019
6.142,-0.029
6.143,-0.038
6.144,-0.043
6.145,-0.047
6.146,-0.053
6.147,-0.056
6.148,-0.062
6.149,-0.066
6.150,-0.068
6.151,-0.066
6.152,-0.068
6.153,-0.069
6.154,-0.069
6.155,-0.072
6.156,-0.076
6.157,-0.081
6.158,-0.084
6.159,-0.088
6.160,-0.089
6.161,-0.088
6.162,-0.091
6.163,-0.091
6.164,-0.091
6.165,-0.094
6.166,-0.100
6.167,-0.103
6.168,-0.108
6.169,-0.109
6.170,-0.113
6.171,-0.109
6.172,-0.109
6.173,-0.109
6.174,-0.111
6.175,-0.109
6.176,-0.111
6.177,-0.113
6.178,-0.113
6.179,-0.113
6.180,-0.116
6.181,-0.119
6.182,-0.122
6.183,-0.122
6.184,-0.122
6.185,-0.125
6.186,-0.125
6.187,-0.125
6.188,-0.125
6.189,-0.125
6.190,-0.125
6.191,-0.125
6.192,-0.125
6.193,-0.122
6.194,-0.122
6.195,-0.122
6.196,-0.123
6.197,-0.125
6.198,-0.125
6.199,-0.125
6.200,-0.124
6.201,-0.125
6.202,-0.126
6.203,-0.125
6.204,-0.124
6.205,-0.122
6.206,-0.128
6.207,-0.128
6.208,-0.126
6.209,-0.125
6.210,-0.125
6.211,-0.128
6.212,-0.136
6.213,-0.134
6.214,-0.144
6.215,-0.153
6.216,-0.163
6.217,-0.175
6.218,-0.188
6.219,-0.200
6.220,-0.200
6.221,-0.203
6.222,-0.197
6.223,-0.178
6.224,-0.152
6.225,-0.119
6.226,-0.091
6.227,-0.059
6.228,-0.025
6.229,0.003
6.230,0.031
6.231,0.059
6.232,0.097
6.233,0.150
6.234,0.213
6.235,0.294
6.236,0.395
6.237,0.463
6.238,0.556
6.239,0.650
6.240,0.739
6.241,0.837
6.242,0.905
6.243,0.963
6.244,1.016
6.245,1.094
6.246,1.174
6.247,1.234
6.248,1.277
6.249,1.303
6.250,1.314
6.251,1.278
6.252,1.228
6.253,1.169
6.254,1.097
6.255,1.000
6.256,0.896
6.257,0.778
6.258,0.664
6.259,0.556
6.260,0.470
6.261,0.394
6.262,0.331
6.263,0.284
6.264,0.247
6.265,0.225
6.266,0.213
6.267,0.200
6.268,0.182
6.269,0.162
6.270,0.150
6.271,0.147
6.272,0.139
6.273,0.122
6.274,0.103
6.275,0.091
6.276,0.089
6.277,0.087
6.278,0.086
6.279,0.084
6.280,0.081
6.281,0.072
6.282,0.061
6.283,0.053
6.284,0.043
6.285,0.028
6.286,0.017
6.287,0.009
6.288,-0.001
6.289,-0.016
6.290,-0.026
6.291,-0.038
6.292,-0.043
6.293,-0.050
6.294,-0.052
6.295,-0.053
6.296,-0.057
6.297,-0.062
6.298,-0.064
6.299,-0.062
6.300,-0.069
6.301,-0.072
6.302,-0.072
6.303,-0.072
6.304,-0.078
6.305,-0.084
6.306,-0.084
6.307,-0.084
6.308,-0.084
6.309,-0.078
6.310,-0.081
6.311,-0.081
6.312,-0.084
6.313,-0.084
6.314,-0.084
6.315,-0.084
6.316,-0.083
6.317,-0.081
6.318,-0.077
6.319,-0.075
6.320,-0.078
6.321,-0.081
6.322,-0.084
6.323,-0.088
6.324,-0.088
6.325,-0.091
6.326,-0.089
6.327,-0.091
6.328,-0.091
6.329,-0.091
6.330,-0.088
6.331,-0.084
6.332,-0.088
6.333,-0.088
6.334,-0.089
6.335,-0.088
6.336,-0.088
6.337,-0.088
6.338,-0.086
6.339,-0.088
6.340,-0.088
6.341,-0.088
6.342,-0.088
6.343,-0.088
6.344,-0.086
6.345,-0.088
6.346,-0.078
6.347,-0.075
6.348,-0.076
6.349,-0.078
6.350,-0.078
6.351,-0.081
6.352,-0.079
6.353,-0.081
6.354,-0.080
6.355,-0.078
6.356,-0.078
6.357,-0.081
6.358,-0.083
6.359,-0.081
6.360,-0.078
6.361,-0.075
6.362,-0.074
6.363,-0.072
6.364,-0.069
6.365,-0.069
6.366,-0.072
6.367,-0.072
6.368,-0.069
6.369,-0.069
6.370,-0.069
6.371,-0.066
6.372,-0.069
6.373,-0.069
6.374,-0.069
6.375,-0.069
6.376,-0.070
6.377,-0.069
6.378,-0.061
6.379,-0.056
6.380,-0.056
6.381,-0.059
6.382,-0.056
6.383,-0.056
6.384,-0.056
6.385,-0.053
6.386,-0.053
6.387,-0.053
6.388,-0.049
6.389,-0.047
6.390,-0.048
6.391,-0.047
6.392,-0.046
6.393,-0.044
6.394,-0.041
6.395,-0.041
6.396,-0.041
6.397,-0.041
6.398,-0.042
6.399,-0.041
6.400,-0.038
6.401,-0.038
6.402,-0.036
6.403,-0.034
6.404,-0.033
6.405,-0.034
6.406,-0.034
6.407,-0.034
6.408,-0.031
6.409,-0.028
6.410,-0.029
6.411,-0.028
6.412,-0.025
6.413,-0.022
6.414,-0.019
6.415,-0.019
6.416,-0.018
6.417,-0.016
6.418,-0.014
6.419,-0.016
6.420,-0.013
6.421,-0.013
6.422,-0.008
6.423,-0.003
6.424,-0.003
6.425,-0.003
6.426,-0.001
6.427,-0.003
6.428,-0.004
6.429,-0.003
6.430,0.001
6.431,0.006
6.432,0.006
6.433,0.006
6.434,0.008
6.435,0.006
6.436,0.009
6.437,0.009
6.438,0.009
6.439,0.016
6.440,0.019
6.441,0.022
6.442,0.025
6.443,0.028
6.444,0.027
6.445,0.028
6.446,0.028
6.447,0.028
6.448,0.039
6.449,0.041
6.450,0.043
6.451,0.044
6.452,0.043
6.453,0.047
6.454,0.046
6.455,0.047
6.456,0.051
6.457,0.056
6.458,0.058
6.459,0.059
6.460,0.062
6.461,0.066
6.462,0.072
6.463,0.075
6.464,0.081
6.465,0.084
6.466,0.086
6.467,0.084
6.468,0.087
6.469,0.091
6.470,0.094
6.471,0.097
6.472,0.101
6.473,0.106
6.474,0.109
6.475,0.109
6.476,0.114
6.477,0.122
6.478,0.126
6.479,0.131
6.480,0.134
6.481,0.137
6.482,0.139
6.483,0.144
6.484,0.147
6.485,0.150
6.486,0.153
6.487,0.156
6.488,0.156
6.489,0.159
6.490,0.162
6.491,0.162
6.492,0.162
6.493,0.169
6.494,0.173
6.495,0.178
6.496,0.180
6.497,0.181
6.498,0.181
6.499,0.181
6.500,0.186
6.501,0.187
6.502,0.192
6.503,0.191
6.504,0.194
6.505,0.194
6.506,0.197
6.507,0.197
6.508,0.203
6.509,0.209
6.510,0.216
6.511,0.219
6.512,0.217
6.513,0.219
6.514,0.222
6.515,0.225
6.516,0.224
6.517,0.219
6.518,0.223
6.519,0.228
6.520,0.229
6.521,0.231
6.522,0.230
6.523,0.228
6.524,0.231
6.525,0.231
6.526,0.231
6.527,0.228
6.528,0.232
6.529,0.231
6.530,0.232
6.531,0.234
6.532,0.237
6.533,0.231
6.534,0.236
6.535,0.234
6.536,0.230
6.537,0.225
6.538,0.221
6.539,0.216
6.540,0.214
6.541,0.209
6.542,0.206
6.543,0.209
6.544,0.208
6.545,0.209
6.546,0.206
6.547,0.200
6.548,0.191
6.549,0.184
6.550,0.178
6.551,0.172
6.552,0.166
6.553,0.156
6.554,0.151
6.555,0.150
6.556,0.150
6.557,0.147
6.558,0.145
6.559,0.144
6.560,0.133
6.561,0.128
6.562,0.124
6.563,0.116
6.564,0.113
6.565,0.109
6.566,0.099
6.567,0.091
6.568,0.087
6.569,0.087
6.570,0.086
6.571,0.084
6.572,0.081
6.573,0.078
6.574,0.072
6.575,0.069
6.576,0.064
6.577,0.059
6.578,0.054
6.579,0.050
6.580,0.050
6.581,0.044
6.582,0.036
6.583,0.031
6.584,0.024
6.585,0.016
6.586,0.016
6.587,0.012
6.588,0.012
6.589,0.009
6.590,0.007
6.591,0.003
6.592,0.000
6.593,-0.006
6.594,-0.008
6.595,-0.009
6.596,-0.009
6.597,-0.009
6.598,-0.011
6.599,-0.013
6.600,-0.017
6.601,-0.022
6.602,-0.025
6.603,-0.025
6.604,-0.031
6.605,-0.034
6.606,-0.033
6.607,-0.034
6.608,-0.034
6.609,-0.034
6.610,-0.036
6.611,-0.041
6.612,-0.044
6.613,-0.044
6.614,-0.045
6.615,-0.047
6.616,-0.047
6.617,-0.047
6.618,-0.046
6.619,-0.047
6.620,-0.050
6.621,-0.050
6.622,-0.050
6.623,-0.050
6.624,-0.050
6.625,-0.050
6.626,-0.051
6.627,-0.056
6.628,-0.056
6.629,-0.059
6.630,-0.055
6.631,-0.053
6.632,-0.049
6.633,-0.050
6.634,-0.050
6.635,-0.050
6.636,-0.050
6.637,-0.050
6.638,-0.052
6.639,-0.050
6.640,-0.050
6.641,-0.050
6.642,-0.053
6.643,-0.056
6.644,-0.054
6.645,-0.056
6.646,-0.053
6.647,-0.056
6.648,-0.058
6.649,-0.056
6.650,-0.057
6.651,-0.059
6.652,-0.061
6.653,-0.062
6.654,-0.064
6.655,-0.062
6.656,-0.058
6.657,-0.056
6.658,-0.061
6.659,-0.062
6.660,-0.064
6.661,-0.062
6.662,-0.064
6.663,-0.066
6.664,-0.070
6.665,-0.069
6.666,-0.064
6.667,-0.066
6.668,-0.062
6.669,-0.056
6.670,-0.061
6.671,-0.062
6.672,-0.062
6.673,-0.062
6.674,-0.058
6.675,-0.062
6.676,-0.061
6.677,-0.062
6.678,-0.061
6.679,-0.059
6.680,-0.056
6.681,-0.056
6.682,-0.055
6.683,-0.056
6.684,-0.056
6.685,-0.056
6.686,-0.059
6.687,-0.062
6.688,-0.058
6.689,-0.056
6.690,-0.055
6.691,-0.056
6.692,-0.054
6.693,-0.056
6.694,-0.055
6.695,-0.056
6.696,-0.059
6.697,-0.066
6.698,-0.062
6.699,-0.062
6.700,-0.061
6.701,-0.059
6.702,-0.056
6.703,-0.059
6.704,-0.064
6.705,-0.066
6.706,-0.064
6.707,-0.066
6.708,-0.064
6.709,-0.059
6.710,-0.066
6.711,-0.069
6.712,-0.069
6.713,-0.069
6.714,-0.071
6.715,-0.066
6.716,-0.068
6.717,-0.069
6.718,-0.067
6.719,-0.069
6.720,-0.069
6.721,-0.069
6.722,-0.070
6.723,-0.072
6.724,-0.071
6.725,-0.069
6.726,-0.069
6.727,-0.069
6.728,-0.072
6.729,-0.072
6.730,-0.072
6.731,-0.072
6.732,-0.071
6.733,-0.072
6.734,-0.072
6.735,-0.072
6.736,-0.072
6.737,-0.072
6.738,-0.072
6.739,-0.072
6.740,-0.071
6.741,-0.072
6.742,-0.076
6.743,-0.081
6.744,-0.080
6.745,-0.072
6.746,-0.072
6.747,-0.072
6.748,-0.072
6.749,-0.072
6.750,-0.074
6.751,-0.072
6.752,-0.075
6.753,-0.075
6.754,-0.075
6.755,-0.075
6.756,-0.075
6.757,-0.075
6.758,-0.075
6.759,-0.075
6.760,-0.075
6.761,-0.075
6.762,-0.074
6.763,-0.072
6.764,-0.074
6.765,-0.072
6.766,-0.073
6.767,-0.075
6.768,-0.075
6.769,-0.075
6.770,-0.075
6.771,-0.075
6.772,-0.074
6.773,-0.075
6.774,-0.075
6.775,-0.075
6.776,-0.075
6.777,-0.075
6.778,-0.076
6.779,-0.075
6.780,-0.076
6.781,-0.081
6.782,-0.088
6.783,-0.088
6.784,-0.091
6.785,-0.091
6.786,-0.088
6.787,-0.088
6.788,-0.091
6.789,-0.091
6.790,-0.091
6.791,-0.091
6.792,-0.091
6.793,-0.091
6.794,-0.092
6.795,-0.091
6.796,-0.096
6.797,-0.091
6.798,-0.091
6.799,-0.088
6.800,-0.088
6.801,-0.088
6.802,-0.083
6.803,-0.081
6.804,-0.080
6.805,-0.081
6.806,-0.081
6.807,-0.084
6.808,-0.092
6.809,-0.097
6.810,-0.094
6.811,-0.094
6.812,-0.089
6.813,-0.088
6.814,-0.086
6.815,-0.088
6.816,-0.084
6.817,-0.084
6.818,-0.088
6.819,-0.088
6.820,-0.088
6.821,-0.088
6.822,-0.089
6.823,-0.091
6.824,-0.094
6.825,-0.091
6.826,-0.091
6.827,-0.091
6.828,-0.089
6.829,-0.091
6.830,-0.091
6.831,-0.091
6.832,-0.093
6.833,-0.091
6.834,-0.088
6.835,-0.091
6.836,-0.089
6.837,-0.091
6.838,-0.093
6.839,-0.091
6.840,-0.089
6.841,-0.091
6.842,-0.094
6.843,-0.094
6.844,-0.094
6.845,-0.094
6.846,-0.093
6.847,-0.091
6.848,-0.091
6.849,-0.091
6.850,-0.092
6.851,-0.094
6.852,-0.098
6.853,-0.097
6.854,-0.094
6.855,-0.094
6.856,-0.093
6.857,-0.091
6.858,-0.094
6.859,-0.094
6.860,-0.094
6.861,-0.094
6.862,-0.094
6.863,-0.094
6.864,-0.095
6.865,-0.097
6.866,-0.096
6.867,-0.094
6.868,-0.096
6.869,-0.094
6.870,-0.094
6.871,-0.094
6.872,-0.100
6.873,-0.100
6.874,-0.099
6.875,-0.100
6.876,-0.096
6.877,-0.091
6.878,-0.093
6.879,-0.091
6.880,-0.088
6.881,-0.091
6.882,-0.089
6.883,-0.088
6.884,-0.088
6.885,-0.088
6.886,-0.092
6.887,-0.097
6.888,-0.094
6.889,-0.097
6.890,-0.096
6.891,-0.094
6.892,-0.096
6.893,-0.091
6.894,-0.092
6.895,-0.094
6.896,-0.094
6.897,-0.094
6.898,-0.094
6.899,-0.094
6.900,-0.097
6.901,-0.097
6.902,-0.100
6.903,-0.100
6.904,-0.097
6.905,-0.094
6.906,-0.093
6.907,-0.088
6.908,-0.089
6.909,-0.091
6.910,-0.092
6.911,-0.094
6.912,-0.095
6.913,-0.094
6.914,-0.094
6.915,-0.091
6.916,-0.095
6.917,-0.094
6.918,-0.091
6.919,-0.088
6.920,-0.088
6.921,-0.088
6.922,-0.091
6.923,-0.094
6.924,-0.092
6.925,-0.094
6.926,-0.096
6.927,-0.091
6.928,-0.094
6.929,-0.094
6.930,-0.094
6.931,-0.094
6.932,-0.095
6.933,-0.094
6.934,-0.094
6.935,-0.094
6.936,-0.093
6.937,-0.094
6.938,-0.095
6.939,-0.094
6.940,-0.094
6.941,-0.094
6.942,-0.093
6.943,-0.091
6.944,-0.094
6.945,-0.094
6.946,-0.094
6.947,-0.091
6.948,-0.094
6.949,-0.094
6.950,-0.089
6.951,-0.088
6.952,-0.088
6.953,-0.084
6.954,-0.089
6.955,-0.088
6.956,-0.088
6.957,-0.088
6.958,-0.088
6.959,-0.088
6.960,-0.086
6.961,-0.084
6.962,-0.088
6.963,-0.088
6.964,-0.088
6.965,-0.088
6.966,-0.086
6.967,-0.084
6.968,-0.086
6.969,-0.084
6.970,-0.084
6.971,-0.088
6.972,-0.084
6.973,-0.088
6.974,-0.089
6.975,-0.091
6.976,-0.089
6.977,-0.091
6.978,-0.091
6.979,-0.091
6.980,-0.088
6.981,-0.091
6.982,-0.088
6.983,-0.084
6.984,-0.083
6.985,-0.084
6.986,-0.088
6.987,-0.088
6.988,-0.088
6.989,-0.088
6.990,-0.089
6.991,-0.091
6.992,-0.089
6.993,-0.091
6.994,-0.089
6.995,-0.088
6.996,-0.089
6.997,-0.088
6.998,-0.091
6.999,-0.091
7.000,-0.091
7.001,-0.091
7.002,-0.091
7.003,-0.091
7.004,-0.089
7.005,-0.088
7.006,-0.089
7.007,-0.084
7.008,-0.083
7.009,-0.084
7.010,-0.086
7.011,-0.088
7.012,-0.086
7.013,-0.084
7.014,-0.083
7.015,-0.081
7.016,-0.081
7.017,-0.081
7.018,-0.083
7.019,-0.084
7.020,-0.084
7.021,-0.084
7.022,-0.086
7.023,-0.088
7.024,-0.091
7.025,-0.088
7.026,-0.088
7.027,-0.088
7.028,-0.084
7.029,-0.088
7.030,-0.089
7.031,-0.088
7.032,-0.088
7.033,-0.088
7.034,-0.086
7.035,-0.081
7.036,-0.080
7.037,-0.078
7.038,-0.078
7.039,-0.078
7.040,-0.079
7.041,-0.084
7.042,-0.084
7.043,-0.088
7.044,-0.081
7.045,-0.081
7.046,-0.081
7.047,-0.078
7.048,-0.084
7.049,-0.084
7.050,-0.084
7.051,-0.088
7.052,-0.088
7.053,-0.084
7.054,-0.089
7.055,-0.088
7.056,-0.089
7.057,-0.091
7.058,-0.089
7.059,-0.091
7.060,-0.089
7.061,-0.088
7.062,-0.091
7.063,-0.088
7.064,-0.084
7.065,-0.084
7.066,-0.084
7.067,-0.084
7.068,-0.083
7.069,-0.078
7.070,-0.075
7.071,-0.072
7.072,-0.073
7.073,-0.075
7.074,-0.075
7.075,-0.072
7.076,-0.067
7.077,-0.062
7.078,-0.059
7.079,-0.056
7.080,-0.050
7.081,-0.044
7.082,-0.039
7.083,-0.034
7.084,-0.033
7.085,-0.025
7.086,-0.016
7.087,-0.009
7.088,-0.002
7.089,0.003
7.090,0.008
7.091,0.009
7.092,0.014
7.093,0.016
7.094,0.019
7.095,0.019
7.096,0.023
7.097,0.025
7.098,0.022
7.099,0.022
7.100,0.021
7.101,0.022
7.102,0.028
7.103,0.031
7.104,0.034
7.105,0.041
7.106,0.047
7.107,0.050
7.108,0.059
7.109,0.069
7.110,0.069
7.111,0.072
7.112,0.079
7.113,0.087
7.114,0.089
7.115,0.097
7.116,0.101
7.117,0.103
7.118,0.111
7.119,0.119
7.120,0.117
7.121,0.122
7.122,0.128
7.123,0.131
7.124,0.134
7.125,0.137
7.126,0.131
7.127,0.128
7.128,0.128
7.129,0.125
7.130,0.114
7.131,0.100
7.132,0.092
7.133,0.087
7.134,0.077
7.135,0.066
7.136,0.061
7.137,0.053
7.138,0.053
7.139,0.053
7.140,0.047
7.141,0.041
7.142,0.045
7.143,0.047
7.144,0.042
7.145,0.044
7.146,0.045
7.147,0.047
7.148,0.042
7.149,0.038
7.150,0.028
7.151,0.022
7.152,0.016
7.153,0.009
7.154,-0.003
7.155,-0.013
7.156,-0.020
7.157,-0.028
7.158,-0.031
7.159,-0.031
7.160,-0.036
7.161,-0.038
7.162,-0.042
7.163,-0.044
7.164,-0.048
7.165,-0.053
7.166,-0.052
7.167,-0.053
7.168,-0.059
7.169,-0.066
7.170,-0.069
7.171,-0.072
7.172,-0.074
7.173,-0.072
7.174,-0.079
7.175,-0.084
7.176,-0.083
7.177,-0.084
7.178,-0.086
7.179,-0.084
7.180,-0.086
7.181,-0.084
7.182,-0.091
7.183,-0.091
7.184,-0.093
7.185,-0.094
7.186,-0.096
7.187,-0.094
7.188,-0.097
7.189,-0.100
7.190,-0.103
7.191,-0.106
7.192,-0.106
7.193,-0.106
7.194,-0.109
7.195,-0.109
7.196,-0.108
7.197,-0.109
7.198,-0.109
7.199,-0.109
7.200,-0.111
7.201,-0.113
7.202,-0.111
7.203,-0.109
7.204,-0.114
7.205,-0.116
7.206,-0.114
7.207,-0.113
7.208,-0.113
7.209,-0.113
7.210,-0.113
7.211,-0.113
7.212,-0.111
7.213,-0.113
7.214,-0.116
7.215,-0.116
7.216,-0.113
7.217,-0.109
7.218,-0.116
7.219,-0.116
7.220,-0.116
7.221,-0.116
7.222,-0.116
7.223,-0.119
7.224,-0.129
7.225,-0.131
7.226,-0.137
7.227,-0.144
7.228,-0.151
7.229,-0.163
7.230,-0.171
7.231,-0.178
7.232,-0.181
7.233,-0.188
7.234,-0.186
7.235,-0.172
7.236,-0.154
7.237,-0.131
7.238,-0.099
7.239,-0.062
7.240,-0.028
7.241,0.000
7.242,0.027
7.243,0.053
7.244,0.083
7.245,0.128
7.246,0.189
7.247,0.269
7.248,0.375
7.249,0.447
7.250,0.536
7.251,0.625
7.252,0.719
7.253,0.822
7.254,0.900
7.255,0.969
7.256,1.017
7.257,1.091
7.258,1.178
7.259,1.247
7.260,1.309
7.261,1.356
7.262,1.379
7.263,1.356
7.264,1.303
7.265,1.241
7.266,1.176
7.267,1.087
7.268,0.981
7.269,0.862
7.270,0.742
7.271,0.628
7.272,0.524
7.273,0.428
7.274,0.362
7.275,0.312
7.276,0.272
7.277,0.247
7.278,0.239
7.279,0.231
7.280,0.216
7.281,0.197
7.282,0.176
7.283,0.166
7.284,0.159
7.285,0.144
7.286,0.121
7.287,0.103
7.288,0.097
7.289,0.091
7.290,0.087
7.291,0.084
7.292,0.089
7.293,0.087
7.294,0.075
7.295,0.066
7.296,0.056
7.297,0.044
7.298,0.031
7.299,0.022
7.300,0.017
7.301,0.009
7.302,-0.003
7.303,-0.016
7.304,-0.022
7.305,-0.031
7.306,-0.039
7.307,-0.047
7.308,-0.049
7.309,-0.050
7.310,-0.052
7.311,-0.050
7.312,-0.052
7.313,-0.050
7.314,-0.050
7.315,-0.050
7.316,-0.050
7.317,-0.050
7.318,-0.056
7.319,-0.062
7.320,-0.069
7.321,-0.069
7.322,-0.075
7.323,-0.078
7.324,-0.078
7.325,-0.075
7.326,-0.076
7.327,-0.078
7.328,-0.075
7.329,-0.072
7.330,-0.070
7.331,-0.072
7.332,-0.072
7.333,-0.072
7.334,-0.072
7.335,-0.072
7.336,-0.071
7.337,-0.072
7.338,-0.072
7.339,-0.075
7.340,-0.075
7.341,-0.075
7.342,-0.075
7.343,-0.075
7.344,-0.076
7.345,-0.075
7.346,-0.074
7.347,-0.069
7.348,-0.069
7.349,-0.069
7.350,-0.069
7.351,-0.072
7.352,-0.072
7.353,-0.072
7.354,-0.072
7.355,-0.072
7.356,-0.069
7.357,-0.069
7.358,-0.066
7.359,-0.069
7.360,-0.069
7.361,-0.069
7.362,-0.062
7.363,-0.059
7.364,-0.056
7.365,-0.056
7.366,-0.056
7.367,-0.056
7.368,-0.054
7.369,-0.056
7.370,-0.056
7.371,-0.053
7.372,-0.052
7.373,-0.050
7.374,-0.051
7.375,-0.053
7.376,-0.051
7.377,-0.053
7.378,-0.056
7.379,-0.056
7.380,-0.052
7.381,-0.050
7.382,-0.051
7.383,-0.050
7.384,-0.046
7.385,-0.038
7.386,-0.041
7.387,-0.044
7.388,-0.045
7.389,-0.044
7.390,-0.041
7.391,-0.041
7.392,-0.039
7.393,-0.041
7.394,-0.036
7.395,-0.034
7.396,-0.036
7.397,-0.034
7.398,-0.034
7.399,-0.034
7.400,-0.030
7.401,-0.028
7.402,-0.029
7.403,-0.028
7.404,-0.029
7.405,-0.031
7.406,-0.029
7.407,-0.031
7.408,-0.030
7.409,-0.028
7.410,-0.029
7.411,-0.028
7.412,-0.022
7.413,-0.019
7.414,-0.019
7.415,-0.019
7.416,-0.017
7.417,-0.019
7.418,-0.019
7.419,-0.019
7.420,-0.016
7.421,-0.013
7.422,-0.014
7.423,-0.013
7.424,-0.009
7.425,-0.006
7.426,-0.003
7.427,-0.003
7.428,-0.003
7.429,-0.003
7.430,0.000
7.431,0.000
7.432,0.003
7.433,0.003
7.434,0.006
7.435,0.009
7.436,0.009
7.437,0.009
7.438,0.011
7.439,0.009
7.440,0.011
7.441,0.016
7.442,0.017
7.443,0.019
7.444,0.020
7.445,0.022
7.446,0.025
7.447,0.025
7.448,0.027
7.449,0.025
7.450,0.024
7.451,0.028
7.452,0.030
7.453,0.031
7.454,0.031
7.455,0.031
7.456,0.036
7.457,0.044
7.458,0.047
7.459,0.050
7.460,0.056
7.461,0.053
7.462,0.053
7.463,0.053
7.464,0.052
7.465,0.056
7.466,0.059
7.467,0.066
7.468,0.070
7.469,0.075
7.470,0.078
7.471,0.081
7.472,0.081
7.473,0.081
7.474,0.086
7.475,0.087
7.476,0.097
7.477,0.103
7.478,0.106
7.479,0.106
7.480,0.106
7.481,0.106
7.482,0.109
7.483,0.113
7.484,0.116
7.485,0.119
7.486,0.125
7.487,0.128
7.488,0.128
7.489,0.131
7.490,0.134
7.491,0.137
7.492,0.142
7.493,0.147
7.494,0.150
7.495,0.156
7.496,0.158
7.497,0.159
7.498,0.166
7.499,0.172
7.500,0.173
7.501,0.178
7.502,0.183
7.503,0.184
7.504,0.180
7.505,0.181
7.506,0.187
7.507,0.194
7.508,0.198
7.509,0.203
7.510,0.206
7.511,0.209
7.512,0.209
7.513,0.206
7.514,0.211
7.515,0.209
7.516,0.214
7.517,0.216
7.518,0.222
7.519,0.225
7.520,0.227
7.521,0.228
7.522,0.232
7.523,0.234
7.524,0.233
7.525,0.234
7.526,0.237
7.527,0.241
7.528,0.245
7.529,0.247
7.530,0.249
7.531,0.250
7.532,0.250
7.533,0.250
7.534,0.250
7.535,0.250
7.536,0.252
7.537,0.250
7.538,0.250
7.539,0.247
7.540,0.251
7.541,0.250
7.542,0.251
7.543,0.253
7.544,0.257
7.545,0.253
7.546,0.256
7.547,0.253
7.548,0.247
7.549,0.241
7.550,0.239
7.551,0.237
7.552,0.241
7.553,0.241
7.554,0.233
7.555,0.231
7.556,0.224
7.557,0.219
7.558,0.216
7.559,0.209
7.560,0.203
7.561,0.200
7.562,0.195
7.563,0.191
7.564,0.189
7.565,0.184
7.566,0.178
7.567,0.175
7.568,0.171
7.569,0.162
7.570,0.156
7.571,0.150
7.572,0.141
7.573,0.137
7.574,0.136
7.575,0.131
7.576,0.125
7.577,0.119
7.578,0.114
7.579,0.113
7.580,0.106
7.581,0.103
7.582,0.097
7.583,0.091
7.584,0.089
7.585,0.087
7.586,0.081
7.587,0.078
7.588,0.075
7.589,0.072
7.590,0.067
7.591,0.062
7.592,0.062
7.593,0.056
7.594,0.050
7.595,0.047
7.596,0.041
7.597,0.034
7.598,0.031
7.599,0.025
7.600,0.026
7.601,0.025
7.602,0.022
7.603,0.016
7.604,0.014
7.605,0.009
7.606,0.009
7.607,0.009
7.608,0.006
7.609,0.003
7.610,-0.001
7.611,-0.006
7.612,-0.006
7.613,-0.006
7.614,-0.009
7.615,-0.009
7.616,-0.014
7.617,-0.016
7.618,-0.014
7.619,-0.016
7.620,-0.017
7.621,-0.019
7.622,-0.020
7.623,-0.025
7.624,-0.027
7.625,-0.025
7.626,-0.026
7.627,-0.028
7.628,-0.025
7.629,-0.022
7.630,-0.022
7.631,-0.025
7.632,-0.029
7.633,-0.031
7.634,-0.031
7.635,-0.031
7.636,-0.033
7.637,-0.034
7.638,-0.033
7.639,-0.034
7.640,-0.033
7.641,-0.034
7.642,-0.034
7.643,-0.038
7.644,-0.033
7.645,-0.034
7.646,-0.034
7.647,-0.034
7.648,-0.034
7.649,-0.034
7.650,-0.038
7.651,-0.038
7.652,-0.038
7.653,-0.038
7.654,-0.038
7.655,-0.038
7.656,-0.036
7.657,-0.038
7.658,-0.034
7.659,-0.038
7.660,-0.039
7.661,-0.038
7.662,-0.038
7.663,-0.038
7.664,-0.038
7.665,-0.038
7.666,-0.039
7.667,-0.038
7.668,-0.038
7.669,-0.041
7.670,-0.044
7.671,-0.044
7.672,-0.047
7.673,-0.047
7.674,-0.046
7.675,-0.044
7.676,-0.048
7.677,-0.047
7.678,-0.039
7.679,-0.038
7.680,-0.039
7.681,-0.038
7.682,-0.044
7.683,-0.047
7.684,-0.048
7.685,-0.050
7.686,-0.044
7.687,-0.047
7.688,-0.045
7.689,-0.047
7.690,-0.048
7.691,-0.050
7.692,-0.047
7.693,-0.047
7.694,-0.046
7.695,-0.047
7.696,-0.047
7.697,-0.047
7.698,-0.046
7.699,-0.044
7.700,-0.041
7.701,-0.041
7.702,-0.041
7.703,-0.044
7.704,-0.042
7.705,-0.044
7.706,-0.043
7.707,-0.044
7.708,-0.043
7.709,-0.044
7.710,-0.039
7.711,-0.038
7.712,-0.039
7.713,-0.041
7.714,-0.039
7.715,-0.044
7.716,-0.045
7.717,-0.044
7.718,-0.044
7.719,-0.047
7.720,-0.048
7.721,-0.047
7.722,-0.049
7.723,-0.047
7.724,-0.048
7.725,-0.050
7.726,-0.053
7.727,-0.050
7.728,-0.050
7.729,-0.050
7.730,-0.047
7.731,-0.047
7.732,-0.047
7.733,-0.047
7.734,-0.047
7.735,-0.047
7.736,-0.047
7.737,-0.047
7.738,-0.046
7.739,-0.044
7.740,-0.047
7.741,-0.047
7.742,-0.048
7.743,-0.050
7.744,-0.049
7.745,-0.050
7.746,-0.050
7.747,-0.050
7.748,-0.050
7.749,-0.050
7.750,-0.051
7.751,-0.053
7.752,-0.052
7.753,-0.053
7.754,-0.053
7.755,-0.053
7.756,-0.057
7.757,-0.056
7.758,-0.056
7.759,-0.056
7.760,-0.056
7.761,-0.056
7.762,-0.058
7.763,-0.056
7.764,-0.059
7.765,-0.059
7.766,-0.061
7.767,-0.062
7.768,-0.062
7.769,-0.062
7.770,-0.064
7.771,-0.066
7.772,-0.066
7.773,-0.066
7.774,-0.064
7.775,-0.062
7.776,-0.066
7.777,-0.066
7.778,-0.067
7.779,-0.069
7.780,-0.069
7.781,-0.069
7.782,-0.069
7.783,-0.069
7.784,-0.068
7.785,-0.069
7.786,-0.069
7.787,-0.069
7.788,-0.069
7.789,-0.069
7.790,-0.069
7.791,-0.066
7.792,-0.062
7.793,-0.062
7.794,-0.066
7.795,-0.062
7.796,-0.066
7.797,-0.066
7.798,-0.062
7.799,-0.062
7.800,-0.066
7.801,-0.066
7.802,-0.067
7.803,-0.069
7.804,-0.069
7.805,-0.069
7.806,-0.068
7.807,-0.062
7.808,-0.070
7.809,-0.069
7.810,-0.075
7.811,-0.078
7.812,-0.077
7.813,-0.075
7.814,-0.073
7.815,-0.075
7.816,-0.072
7.817,-0.072
7.818,-0.069
7.819,-0.069
7.820,-0.072
7.821,-0.072
7.822,-0.072
7.823,-0.075
7.824,-0.072
7.825,-0.072
7.826,-0.072
7.827,-0.075
7.828,-0.073
7.829,-0.075
7.830,-0.078
7.831,-0.078
7.832,-0.079
7.833,-0.081
7.834,-0.081
7.835,-0.081
7.836,-0.086
7.837,-0.084
7.838,-0.081
7.839,-0.078
7.840,-0.076
7.841,-0.078
7.842,-0.078
7.843,-0.078
7.844,-0.081
7.845,-0.081
7.846,-0.077
7.847,-0.078
7.848,-0.076
7.849,-0.078
7.850,-0.081
7.851,-0.081
7.852,-0.080
7.853,-0.081
7.854,-0.083
7.855,-0.081
7.856,-0.078
7.857,-0.075
7.858,-0.076
7.859,-0.078
7.860,-0.079
7.861,-0.081
7.862,-0.080
7.863,-0.078
7.864,-0.081
7.865,-0.078
7.866,-0.076
7.867,-0.078
7.868,-0.078
7.869,-0.078
7.870,-0.081
7.871,-0.081
7.872,-0.081
7.873,-0.081
7.874,-0.081
7.875,-0.081
7.876,-0.081
7.877,-0.081
7.878,-0.080
7.879,-0.078
7.880,-0.081
7.881,-0.081
7.882,-0.083
7.883,-0.084
7.884,-0.086
7.885,-0.081
7.886,-0.078
7.887,-0.078
7.888,-0.076
7.889,-0.075
7.890,-0.081
7.891,-0.084
7.892,-0.081
7.893,-0.084
7.894,-0.084
7.895,-0.084
7.896,-0.084
7.897,-0.084
7.898,-0.083
7.899,-0.081
7.900,-0.078
7.901,-0.081
7.902,-0.083
7.903,-0.084
7.904,-0.088
7.905,-0.084
7.906,-0.084
7.907,-0.084
7.908,-0.084
7.909,-0.084
7.910,-0.084
7.911,-0.084
7.912,-0.081
7.913,-0.075
7.914,-0.078
7.915,-0.078
7.916,-0.083
7.917,-0.088
7.918,-0.089
7.919,-0.088
7.920,-0.088
7.921,-0.088
7.922,-0.088
7.923,-0.088
7.924,-0.083
7.925,-0.075
7.926,-0.078
7.927,-0.078
7.928,-0.084
7.929,-0.084
7.930,-0.083
7.931,-0.081
7.932,-0.083
7.933,-0.084
7.934,-0.084
7.935,-0.084
7.936,-0.084
7.937,-0.088
7.938,-0.091
7.939,-0.088
7.940,-0.089
7.941,-0.088
7.942,-0.088
7.943,-0.088
7.944,-0.089
7.945,-0.088
7.946,-0.088
7.947,-0.088
7.948,-0.086
7.949,-0.088
7.950,-0.091
7.951,-0.091
7.952,-0.089
7.953,-0.088
7.954,-0.088
7.955,-0.088
7.956,-0.091
7.957,-0.091
7.958,-0.091
7.959,-0.088
7.960,-0.086
7.961,-0.081
7.962,-0.079
7.963,-0.081
7.964,-0.083
7.965,-0.081
7.966,-0.084
7.967,-0.084
7.968,-0.078
7.969,-0.075
7.970,-0.076
7.971,-0.078
7.972,-0.083
7.973,-0.084
7.974,-0.084
7.975,-0.084
7.976,-0.084
7.977,-0.084
7.978,-0.084
7.979,-0.084
7.980,-0.084
7.981,-0.084
7.982,-0.086
7.983,-0.088
7.984,-0.089
7.985,-0.091
7.986,-0.091
7.987,-0.091
7.988,-0.089
7.989,-0.084
7.990,-0.084
7.991,-0.084
7.992,-0.089
7.993,-0.088
7.994,-0.088
7.995,-0.088
7.996,-0.088
7.997,-0.088
7.998,-0.088
7.999,-0.088
8.000,-0.091
8.001,-0.091
8.002,-0.091
8.003,-0.091
8.004,-0.089
8.005,-0.088
8.006,-0.089
8.007,-0.088
8.008,-0.086
8.009,-0.088
8.010,-0.086
8.011,-0.091
8.012,-0.091
8.013,-0.091
8.014,-0.088
8.015,-0.088
8.016,-0.084
8.017,-0.081
8.018,-0.077
8.019,-0.078
8.020,-0.079
8.021,-0.081
8.022,-0.083
8.023,-0.088
8.024,-0.091
8.025,-0.091
8.026,-0.091
8.027,-0.091
8.028,-0.088
8.029,-0.084
8.030,-0.080
8.031,-0.078
8.032,-0.079
8.033,-0.081
8.034,-0.084
8.035,-0.084
8.036,-0.088
8.037,-0.088
8.038,-0.089
8.039,-0.091
8.040,-0.091
8.041,-0.091
8.042,-0.089
8.043,-0.088
8.044,-0.089
8.045,-0.084
8.046,-0.083
8.047,-0.084
8.048,-0.088
8.049,-0.091
8.050,-0.091
8.051,-0.091
8.052,-0.089
8.053,-0.088
8.054,-0.089
8.055,-0.091
8.056,-0.091
8.057,-0.091
8.058,-0.091
8.059,-0.091
8.060,-0.089
8.061,-0.088
8.062,-0.092
8.063,-0.091
8.064,-0.092
8.065,-0.094
8.066,-0.089
8.067,-0.091
8.068,-0.091
8.069,-0.088
8.070,-0.088
8.071,-0.088
8.072,-0.091
8.073,-0.091
8.074,-0.091
8.075,-0.091
8.076,-0.091
8.077,-0.091
8.078,-0.088
8.079,-0.088
8.080,-0.086
8.081,-0.088
8.082,-0.084
8.083,-0.088
8.084,-0.088
8.085,-0.084
8.086,-0.089
8.087,-0.088
8.088,-0.086
8.089,-0.088
8.090,-0.089
8.091,-0.088
8.092,-0.091
8.093,-0.088
8.094,-0.088
8.095,-0.088
8.096,-0.086
8.097,-0.088
8.098,-0.086
8.099,-0.084
8.100,-0.089
8.101,-0.088
8.102,-0.086
8.103,-0.088
8.104,-0.088
8.105,-0.088
8.106,-0.086
8.107,-0.081
8.108,-0.078
8.109,-0.075
8.110,-0.075
8.111,-0.075
8.112,-0.075
8.113,-0.072
8.114,-0.069
8.115,-0.066
8.116,-0.062
8.117,-0.059
8.118,-0.053
8.119,-0.047
8.120,-0.042
8.121,-0.038
8.122,-0.033
8.123,-0.022
8.124,-0.017
8.125,-0.016
8.126,-0.008
8.127,-0.003
8.128,0.004
8.129,0.009
8.130,0.016
8.131,0.019
8.132,0.020
8.133,0.019
8.134,0.023
8.135,0.025
8.136,0.023
8.137,0.025
8.138,0.022
8.139,0.022
8.140,0.028
8.141,0.031
8.142,0.036
8.143,0.044
8.144,0.049
8.145,0.050
8.146,0.057
8.147,0.066
8.148,0.064
8.149,0.066
8.150,0.072
8.151,0.078
8.152,0.081
8.153,0.091
8.154,0.097
8.155,0.100
8.156,0.106
8.157,0.113
8.158,0.108
8.159,0.109
8.160,0.111
8.161,0.109
8.162,0.113
8.163,0.116
8.164,0.114
8.165,0.116
8.166,0.114
8.167,0.109
8.168,0.104
8.169,0.097
8.170,0.089
8.171,0.084
8.172,0.078
8.173,0.072
8.174,0.066
8.175,0.056
8.176,0.050
8.177,0.044
8.178,0.041
8.179,0.038
8.180,0.039
8.181,0.038
8.182,0.033
8.183,0.034
8.184,0.034
8.185,0.034
8.186,0.028
8.187,0.022
8.188,0.016
8.189,0.012
8.190,0.003
8.191,-0.006
8.192,-0.017
8.193,-0.025
8.194,-0.031
8.195,-0.038
8.196,-0.045
8.197,-0.050
8.198,-0.052
8.199,-0.050
8.200,-0.054
8.201,-0.056
8.202,-0.059
8.203,-0.062
8.204,-0.062
8.205,-0.066
8.206,-0.069
8.207,-0.072
8.208,-0.078
8.209,-0.084
8.210,-0.084
8.211,-0.081
8.212,-0.083
8.213,-0.081
8.214,-0.084
8.215,-0.091
8.216,-0.093
8.217,-0.091
8.218,-0.097
8.219,-0.100
8.220,-0.104
8.221,-0.103
8.222,-0.103
8.223,-0.103
8.224,-0.106
8.225,-0.106
8.226,-0.108
8.227,-0.109
8.228,-0.109
8.229,-0.109
8.230,-0.113
8.231,-0.116
8.232,-0.120
8.233,-0.122
8.234,-0.122
8.235,-0.125
8.236,-0.125
8.237,-0.125
8.238,-0.124
8.239,-0.122
8.240,-0.121
8.241,-0.119
8.242,-0.122
8.243,-0.122
8.244,-0.123
8.245,-0.125
8.246,-0.122
8.247,-0.119
8.248,-0.118
8.249,-0.116
8.250,-0.117
8.251,-0.122
8.252,-0.125
8.253,-0.125
8.254,-0.122
8.255,-0.119
8.256,-0.124
8.257,-0.122
8.258,-0.122
8.259,-0.122
8.260,-0.122
8.261,-0.125
8.262,-0.136
8.263,-0.137
8.264,-0.146
8.265,-0.153
8.266,-0.158
8.267,-0.166
8.268,-0.175
8.269,-0.184
8.270,-0.184
8.271,-0.188
8.272,-0.186
8.273,-0.172
8.274,-0.147
8.275,-0.116
8.276,-0.084
8.277,-0.050
8.278,-0.017
8.279,0.009
8.280,0.038
8.281,0.066
8.282,0.099
8.283,0.147
8.284,0.213
8.285,0.297
8.286,0.400
8.287,0.469
8.288,0.555
8.289,0.641
8.290,0.734
8.291,0.837
8.292,0.919
8.293,0.991
8.294,1.050
8.295,1.134
8.296,1.220
8.297,1.287
8.298,1.341
8.299,1.378
8.300,1.377
8.301,1.328
8.302,1.269
8.303,1.200
8.304,1.127
8.305,1.028
8.306,0.929
8.307,0.819
8.308,0.705
8.309,0.597
8.310,0.496
8.311,0.403
8.312,0.350
8.313,0.312
8.314,0.284
8.315,0.272
8.316,0.258
8.317,0.244
8.318,0.219
8.319,0.191
8.320,0.169
8.321,0.156
8.322,0.147
8.323,0.128
8.324,0.113
8.325,0.103
8.326,0.097
8.327,0.091
8.328,0.087
8.329,0.084
8.330,0.082
8.331,0.075
8.332,0.059
8.333,0.047
8.334,0.039
8.335,0.028
8.336,0.016
8.337,0.006
8.338,0.001
8.339,-0.006
8.340,-0.016
8.341,-0.025
8.342,-0.031
8.343,-0.041
8.344,-0.048
8.345,-0.056
8.346,-0.056
8.347,-0.056
8.348,-0.061
8.349,-0.062
8.350,-0.066
8.351,-0.066
8.352,-0.066
8.353,-0.066
8.354,-0.066
8.355,-0.066
8.356,-0.069
8.357,-0.072
8.358,-0.075
8.359,-0.072
8.360,-0.079
8.361,-0.084
8.362,-0.086
8.363,-0.084
8.364,-0.086
8.365,-0.088
8.366,-0.083
8.367,-0.078
8.368,-0.076
8.369,-0.078
8.370,-0.078
8.371,-0.078
8.372,-0.079
8.373,-0.081
8.374,-0.080
8.375,-0.081
8.376,-0.083
8.377,-0.088
8.378,-0.088
8.379,-0.088
8.380,-0.088
8.381,-0.088
8.382,-0.089
8.383,-0.088
8.384,-0.088
8.385,-0.084
8.386,-0.084
8.387,-0.084
8.388,-0.083
8.389,-0.084
8.390,-0.084
8.391,-0.084
8.392,-0.083
8.393,-0.081
8.394,-0.077
8.395,-0.075
8.396,-0.071
8.397,-0.072
8.398,-0.072
8.399,-0.072
8.400,-0.072
8.401,-0.075
8.402,-0.075
8.403,-0.078
8.404,-0.077
8.405,-0.075
8.406,-0.069
8.407,-0.066
8.408,-0.067
8.409,-0.066
8.410,-0.069
8.411,-0.072
8.412,-0.072
8.413,-0.072
8.414,-0.068
8.415,-0.066
8.416,-0.068
8.417,-0.066
8.418,-0.064
8.419,-0.066
8.420,-0.064
8.421,-0.059
8.422,-0.059
8.423,-0.056
8.424,-0.056
8.425,-0.056
8.426,-0.056
8.427,-0.053
8.428,-0.050
8.429,-0.050
8.430,-0.050
8.431,-0.053
8.432,-0.054
8.433,-0.059
8.434,-0.058
8.435,-0.053
8.436,-0.052
8.437,-0.050
8.438,-0.047
8.439,-0.047
8.440,-0.046
8.441,-0.041
8.442,-0.041
8.443,-0.041
8.444,-0.038
8.445,-0.038
8.446,-0.039
8.447,-0.041
8.448,-0.041
8.449,-0.038
8.450,-0.034
8.451,-0.034
8.452,-0.033
8.453,-0.031
8.454,-0.025
8.455,-0.022
8.456,-0.023
8.457,-0.025
8.458,-0.026
8.459,-0.028
8.460,-0.027
8.461,-0.022
8.462,-0.021
8.463,-0.019
8.464,-0.014
8.465,-0.013
8.466,-0.014
8.467,-0.016
8.468,-0.014
8.469,-0.016
8.470,-0.013
8.471,-0.013
8.472,-0.009
8.473,-0.006
8.474,-0.005
8.475,-0.003
8.476,-0.001
8.477,-0.003
8.478,-0.003
8.479,0.000
8.480,0.002
8.481,0.003
8.482,0.004
8.483,0.006
8.484,0.009
8.485,0.009
8.486,0.011
8.487,0.009
8.488,0.009
8.489,0.016
8.490,0.022
8.491,0.028
8.492,0.028
8.493,0.028
8.494,0.027
8.495,0.028
8.496,0.031
8.497,0.034
8.498,0.041
8.499,0.038
8.500,0.039
8.501,0.041
8.502,0.042
8.503,0.050
8.504,0.047
8.505,0.047
8.506,0.050
8.507,0.053
8.508,0.056
8.509,0.059
8.510,0.062
8.511,0.066
8.512,0.072
8.513,0.075
8.514,0.080
8.515,0.081
8.516,0.087
8.517,0.091
8.518,0.092
8.519,0.094
8.520,0.096
8.521,0.097
8.522,0.099
8.523,0.100
8.524,0.106
8.525,0.109
8.526,0.113
8.527,0.119
8.528,0.123
8.529,0.128
8.530,0.128
8.531,0.128
8.532,0.130
8.533,0.134
8.534,0.141
8.535,0.147
8.536,0.153
8.537,0.159
8.538,0.159
8.539,0.162
8.540,0.170
8.541,0.175
8.542,0.172
8.543,0.175
8.544,0.175
8.545,0.175
8.546,0.177
8.547,0.178
8.548,0.180
8.549,0.181
8.550,0.187
8.551,0.191
8.552,0.198
8.553,0.200
8.554,0.205
8.555,0.206
8.556,0.209
8.557,0.209
8.558,0.213
8.559,0.216
8.560,0.220
8.561,0.222
8.562,0.221
8.563,0.222
8.564,0.222
8.565,0.222
8.566,0.225
8.567,0.225
8.568,0.229
8.569,0.234
8.570,0.234
8.571,0.234
8.572,0.233
8.573,0.231
8.574,0.237
8.575,0.241
8.576,0.242
8.577,0.241
8.578,0.241
8.579,0.234
8.580,0.233
8.581,0.231
8.582,0.233
8.583,0.225
8.584,0.229
8.585,0.228
8.586,0.228
8.587,0.228
8.588,0.225
8.589,0.222
8.590,0.223
8.591,0.222
8.592,0.216
8.593,0.216
8.594,0.206
8.595,0.200
8.596,0.197
8.597,0.191
8.598,0.187
8.599,0.187
8.600,0.181
8.601,0.175
8.602,0.173
8.603,0.169
8.604,0.159
8.605,0.153
8.606,0.150
8.607,0.144
8.608,0.139
8.609,0.134
8.610,0.125
8.611,0.122
8.612,0.119
8.613,0.113
8.614,0.109
8.615,0.106
8.616,0.101
8.617,0.100
8.618,0.092
8.619,0.087
8.620,0.083
8.621,0.078
8.622,0.075
8.623,0.072
8.624,0.066
8.625,0.062
8.626,0.056
8.627,0.050
8.628,0.043
8.629,0.034
8.630,0.036
8.631,0.031
8.632,0.026
8.633,0.025
8.634,0.025
8.635,0.025
8.636,0.022
8.637,0.016
8.638,0.014
8.639,0.009
8.640,0.007
8.641,0.003
8.642,0.000
8.643,-0.006
8.644,-0.009
8.645,-0.013
8.646,-0.013
8.647,-0.013
8.648,-0.014
8.649,-0.016
8.650,-0.020
8.651,-0.025
8.652,-0.028
8.653,-0.028
8.654,-0.033
8.655,-0.034
8.656,-0.033
8.657,-0.034
8.658,-0.034
8.659,-0.034
8.660,-0.038
8.661,-0.044
8.662,-0.048
8.663,-0.050
8.664,-0.050
8.665,-0.050
8.666,-0.050
8.667,-0.050
8.668,-0.049
8.669,-0.050
8.670,-0.052
8.671,-0.050
8.672,-0.050
8.673,-0.050
8.674,-0.050
8.675,-0.050
8.676,-0.049
8.677,-0.050
8.678,-0.050
8.679,-0.053
8.680,-0.051
8.681,-0.053
8.682,-0.050
8.683,-0.053
8.684,-0.056
8.685,-0.059
8.686,-0.059
8.687,-0.059
8.688,-0.059
8.689,-0.056
8.690,-0.057
8.691,-0.059
8.692,-0.059
8.693,-0.059
8.694,-0.056
8.695,-0.056
8.696,-0.053
8.697,-0.056
8.698,-0.061
8.699,-0.062
8.700,-0.062
8.701,-0.062
8.702,-0.059
8.703,-0.056
8.704,-0.059
8.705,-0.059
8.706,-0.059
8.707,-0.062
8.708,-0.066
8.709,-0.066
8.710,-0.067
8.711,-0.066
8.712,-0.062
8.713,-0.059
8.714,-0.062
8.715,-0.059
8.716,-0.056
8.717,-0.059
8.718,-0.061
8.719,-0.059
8.720,-0.064
8.721,-0.066
8.722,-0.064
8.723,-0.062
8.724,-0.058
8.725,-0.062
8.726,-0.058
8.727,-0.056
8.728,-0.056
8.729,-0.056
8.730,-0.052
8.731,-0.050
8.732,-0.049
8.733,-0.050
8.734,-0.051
8.735,-0.053
8.736,-0.053
8.737,-0.053
8.738,-0.054
8.739,-0.059
8.740,-0.059
8.741,-0.062
8.742,-0.061
8.743,-0.062
8.744,-0.058
8.745,-0.056
8.746,-0.056
8.747,-0.059
8.748,-0.056
8.749,-0.056
8.750,-0.056
8.751,-0.056
8.752,-0.053
8.753,-0.056
8.754,-0.057
8.755,-0.056
8.756,-0.056
8.757,-0.059
8.758,-0.061
8.759,-0.059
8.760,-0.061
8.761,-0.059
8.762,-0.058
8.763,-0.056
8.764,-0.061
8.765,-0.059
8.766,-0.066
8.767,-0.072
8.768,-0.069
8.769,-0.069
8.770,-0.068
8.771,-0.066
8.772,-0.066
8.773,-0.066
8.774,-0.066
8.775,-0.066
8.776,-0.064
8.777,-0.062
8.778,-0.066
8.779,-0.066
8.780,-0.061
8.781,-0.056
8.782,-0.061
8.783,-0.069
8.784,-0.070
8.785,-0.072
8.786,-0.072
8.787,-0.072
8.788,-0.072
8.789,-0.072
8.790,-0.071
8.791,-0.072
8.792,-0.072
8.793,-0.072
8.794,-0.075
8.795,-0.072
8.796,-0.072
8.797,-0.072
8.798,-0.075
8.799,-0.078
8.800,-0.083
8.801,-0.084
8.802,-0.086
8.803,-0.084
8.804,-0.083
8.805,-0.081
8.806,-0.080
8.807,-0.078
8.808,-0.078
8.809,-0.078
8.810,-0.079
8.811,-0.081
8.812,-0.081
8.813,-0.081
8.814,-0.086
8.815,-0.088
8.816,-0.086
8.817,-0.084
8.818,-0.081
8.819,-0.078
8.820,-0.079
8.821,-0.081
8.822,-0.081
8.823,-0.084
8.824,-0.084
8.825,-0.084
8.826,-0.084
8.827,-0.084
8.828,-0.086
8.829,-0.084
8.830,-0.083
8.831,-0.084
8.832,-0.088
8.833,-0.084
8.834,-0.088
8.835,-0.088
8.836,-0.086
8.837,-0.088
8.838,-0.091
8.839,-0.091
8.840,-0.088
8.841,-0.084
8.842,-0.084
8.843,-0.084
8.844,-0.086
8.845,-0.084
8.846,-0.089
8.847,-0.084
8.848,-0.088
8.849,-0.088
8.850,-0.089
8.851,-0.091
8.852,-0.089
8.853,-0.091
8.854,-0.089
8.855,-0.091
8.856,-0.088
8.857,-0.088
8.858,-0.091
8.859,-0.091
8.860,-0.091
8.861,-0.094
8.862,-0.092
8.863,-0.094
8.864,-0.093
8.865,-0.094
8.866,-0.091
8.867,-0.091
8.868,-0.095
8.869,-0.097
8.870,-0.096
8.871,-0.094
8.872,-0.091
8.873,-0.088
8.874,-0.094
8.875,-0.094
8.876,-0.097
8.877,-0.100
8.878,-0.094
8.879,-0.091
8.880,-0.092
8.881,-0.094
8.882,-0.097
8.883,-0.097
8.884,-0.093
8.885,-0.094
8.886,-0.092
8.887,-0.094
8.888,-0.096
8.889,-0.094
8.890,-0.091
8.891,-0.091
8.892,-0.092
8.893,-0.091
8.894,-0.091
8.895,-0.091
8.896,-0.094
8.897,-0.097
8.898,-0.098
8.899,-0.100
8.900,-0.099
8.901,-0.097
8.902,-0.097
8.903,-0.091
8.904,-0.089
8.905,-0.091
8.906,-0.091
8.907,-0.091
8.908,-0.093
8.909,-0.091
8.910,-0.092
8.911,-0.094
8.912,-0.093
8.913,-0.091
8.914,-0.089
8.915,-0.088
8.916,-0.089
8.917,-0.091
8.918,-0.094
8.919,-0.094
8.920,-0.093
8.921,-0.091
8.922,-0.095
8.923,-0.094
8.924,-0.093
8.925,-0.094
8.926,-0.097
8.927,-0.100
8.928,-0.102
8.929,-0.100
8.930,-0.094
8.931,-0.094
8.932,-0.095
8.933,-0.097
8.934,-0.094
8.935,-0.091
8.936,-0.092
8.937,-0.094
8.938,-0.091
8.939,-0.094
8.940,-0.093
8.941,-0.091
8.942,-0.095
8.943,-0.094
8.944,-0.095
8.945,-0.097
8.946,-0.097
8.947,-0.097
8.948,-0.094
8.949,-0.091
8.950,-0.092
8.951,-0.091
8.952,-0.094
8.953,-0.094
8.954,-0.094
8.955,-0.094
8.956,-0.095
8.957,-0.094
8.958,-0.097
8.959,-0.100
8.960,-0.100
8.961,-0.100
8.962,-0.099
8.963,-0.094
8.964,-0.095
8.965,-0.094
8.966,-0.098
8.967,-0.097
8.968,-0.096
8.969,-0.094
8.970,-0.096
8.971,-0.097
8.972,-0.097
8.973,-0.097
8.974,-0.094
8.975,-0.094
8.976,-0.097
8.977,-0.094
8.978,-0.096
8.979,-0.094
8.980,-0.094
8.981,-0.094
8.982,-0.095
8.983,-0.094
8.984,-0.095
8.985,-0.097
8.986,-0.096
8.987,-0.097
8.988,-0.096
8.989,-0.091
8.990,-0.091
8.991,-0.091
8.992,-0.091
8.993,-0.091
8.994,-0.095
8.995,-0.097
8.996,-0.096
8.997,-0.091
8.998,-0.094
8.999,-0.094
9.000,-0.092
9.001,-0.094
9.002,-0.091
9.003,-0.084
9.004,-0.084
9.005,-0.081
9.006,-0.088
9.007,-0.088
9.008,-0.089
9.009,-0.091
9.010,-0.091
9.011,-0.094
9.012,-0.092
9.013,-0.094
9.014,-0.094
9.015,-0.094
9.016,-0.094
9.017,-0.094
9.018,-0.094
9.019,-0.094
9.020,-0.094
9.021,-0.094
9.022,-0.095
9.023,-0.094
9.024,-0.094
9.025,-0.094
9.026,-0.093
9.027,-0.094
9.028,-0.094
9.029,-0.094
9.030,-0.095
9.031,-0.097
9.032,-0.096
9.033,-0.094
9.034,-0.094
9.035,-0.094
9.036,-0.094
9.037,-0.094
9.038,-0.094
9.039,-0.094
9.040,-0.094
9.041,-0.094
9.042,-0.093
9.043,-0.091
9.044,-0.089
9.045,-0.091
9.046,-0.091
9.047,-0.094
9.048,-0.092
9.049,-0.094
9.050,-0.094
9.051,-0.094
9.052,-0.094
9.053,-0.094
9.054,-0.093
9.055,-0.094
9.056,-0.094
9.057,-0.094
9.058,-0.094
9.059,-0.094
9.060,-0.094
9.061,-0.094
9.062,-0.089
9.063,-0.088
9.064,-0.091
9.065,-0.088
9.066,-0.091
9.067,-0.091
9.068,-0.092
9.069,-0.091
9.070,-0.091
9.071,-0.091
9.072,-0.092
9.073,-0.091
9.074,-0.091
9.075,-0.088
9.076,-0.088
9.077,-0.088
9.078,-0.091
9.079,-0.091
9.080,-0.088
9.081,-0.088
9.082,-0.089
9.083,-0.091
9.084,-0.089
9.085,-0.084
9.086,-0.086
9.087,-0.088
9.088,-0.088
9.089,-0.091
9.090,-0.089
9.091,-0.091
9.092,-0.091
9.093,-0.091
9.094,-0.091
9.095,-0.088
9.096,-0.084
9.097,-0.084
9.098,-0.083
9.099,-0.084
9.100,-0.081
9.101,-0.081
9.102,-0.084
9.103,-0.084
9.104,-0.086
9.105,-0.088
9.106,-0.088
9.107,-0.088
9.108,-0.089
9.109,-0.091
9.110,-0.091
9.111,-0.091
9.112,-0.091
9.113,-0.091
9.114,-0.091
9.115,-0.091
9.116,-0.089
9.117,-0.091
9.118,-0.089
9.119,-0.091
9.120,-0.091
9.121,-0.088
9.122,-0.091
9.123,-0.091
9.124,-0.086
9.125,-0.084
9.126,-0.083
9.127,-0.084
9.128,-0.086
9.129,-0.088
9.130,-0.089
9.131,-0.091
9.132,-0.092
9.133,-0.091
9.134,-0.088
9.135,-0.084
9.136,-0.088
9.137,-0.084
9.138,-0.088
9.139,-0.088
9.140,-0.084
9.141,-0.088
9.142,-0.081
9.143,-0.078
9.144,-0.083
9.145,-0.084
9.146,-0.081
9.147,-0.084
9.148,-0.083
9.149,-0.084
9.150,-0.083
9.151,-0.081
9.152,-0.086
9.153,-0.088
9.154,-0.088
9.155,-0.091
9.156,-0.086
9.157,-0.081
9.158,-0.080
9.159,-0.078
9.160,-0.077
9.161,-0.075
9.162,-0.072
9.163,-0.069
9.164,-0.061
9.165,-0.056
9.166,-0.055
9.167,-0.053
9.168,-0.051
9.169,-0.047
9.170,-0.041
9.171,-0.038
9.172,-0.033
9.173,-0.025
9.174,-0.020
9.175,-0.016
9.176,-0.006
9.177,0.000
9.178,0.006
9.179,0.009
9.180,0.011
9.181,0.016
9.182,0.016
9.183,0.019
9.184,0.017
9.185,0.019
9.186,0.023
9.187,0.025
9.188,0.022
9.189,0.025
9.190,0.031
9.191,0.034
9.192,0.034
9.193,0.038
9.194,0.045
9.195,0.053
9.196,0.055
9.197,0.056
9.198,0.059
9.199,0.062
9.200,0.070
9.201,0.081
9.202,0.091
9.203,0.097
9.204,0.102
9.205,0.106
9.206,0.111
9.207,0.113
9.208,0.118
9.209,0.116
9.210,0.113
9.211,0.113
9.212,0.116
9.213,0.113
9.214,0.109
9.215,0.106
9.216,0.102
9.217,0.097
9.218,0.092
9.219,0.084
9.220,0.080
9.221,0.072
9.222,0.069
9.223,0.066
9.224,0.059
9.225,0.053
9.226,0.051
9.227,0.050
9.228,0.044
9.229,0.041
9.230,0.038
9.231,0.038
9.232,0.034
9.233,0.031
9.234,0.024
9.235,0.022
9.236,0.022
9.237,0.016
9.238,0.014
9.239,0.009
9.240,0.003
9.241,-0.006
9.242,-0.014
9.243,-0.025
9.244,-0.031
9.245,-0.038
9.246,-0.041
9.247,-0.047
9.248,-0.052
9.249,-0.056
9.250,-0.058
9.251,-0.059
9.252,-0.061
9.253,-0.062
9.254,-0.062
9.255,-0.066
9.256,-0.066
9.257,-0.069
9.258,-0.071
9.259,-0.069
9.260,-0.073
9.261,-0.078
9.262,-0.081
9.263,-0.084
9.264,-0.088
9.265,-0.091
9.266,-0.091
9.267,-0.094
9.268,-0.094
9.269,-0.094
9.270,-0.096
9.271,-0.097
9.272,-0.098
9.273,-0.103
9.274,-0.103
9.275,-0.106
9.276,-0.102
9.277,-0.103
9.278,-0.103
9.279,-0.103
9.280,-0.106
9.281,-0.113
9.282,-0.117
9.283,-0.119
9.284,-0.116
9.285,-0.116
9.286,-0.116
9.287,-0.116
9.288,-0.116
9.289,-0.113
9.290,-0.113
9.291,-0.113
9.292,-0.116
9.293,-0.119
9.294,-0.119
9.295,-0.119
9.296,-0.118
9.297,-0.119
9.298,-0.120
9.299,-0.122
9.300,-0.122
9.301,-0.122
9.302,-0.122
9.303,-0.122
9.304,-0.121
9.305,-0.119
9.306,-0.121
9.307,-0.119
9.308,-0.117
9.309,-0.119
9.310,-0.119
9.311,-0.125
9.312,-0.129
9.313,-0.131
9.314,-0.137
9.315,-0.150
9.316,-0.158
9.317,-0.169
9.318,-0.172
9.319,-0.184
9.320,-0.191
9.321,-0.191
9.322,-0.172
9.323,-0.156
9.324,-0.136
9.325,-0.106
9.326,-0.077
9.327,-0.041
9.328,-0.018
9.329,0.012
9.330,0.045
9.331,0.081
9.332,0.132
9.333,0.184
9.334,0.264
9.335,0.344
9.336,0.412
9.337,0.491
9.338,0.567
9.339,0.656
9.340,0.521
9.341,0.394
9.342,0.161
9.343,-0.044
9.344,-0.048
9.345,-0.050
9.346,-0.033
9.347,-0.034
9.348,0.312
9.349,0.650
9.350,0.966
9.351,1.275
9.352,1.227
9.353,1.159
9.354,1.103
9.355,1.019
9.356,0.921
9.357,0.809
9.358,0.714
9.359,0.616
9.360,0.534
9.361,0.450
9.362,0.406
9.363,0.362
9.364,0.336
9.365,0.328
9.366,0.288
9.367,0.266
9.368,0.226
9.369,0.200
9.370,0.180
9.371,0.166
9.372,0.156
9.373,0.134
9.374,0.120
9.375,0.109
9.376,0.101
9.377,0.097
9.378,0.087
9.379,0.081
9.380,0.073
9.381,0.069
9.382,0.055
9.383,0.044
9.384,0.039
9.385,0.034
9.386,0.025
9.387,0.016
9.388,0.011
9.389,0.003
9.390,-0.008
9.391,-0.019
9.392,-0.031
9.393,-0.041
9.394,-0.043
9.395,-0.044
9.396,-0.046
9.397,-0.044
9.398,-0.049
9.399,-0.047
9.400,-0.049
9.401,-0.050
9.402,-0.054
9.403,-0.059
9.404,-0.061
9.405,-0.066
9.406,-0.069
9.407,-0.072
9.408,-0.073
9.409,-0.078
9.410,-0.080
9.411,-0.081
9.412,-0.083
9.413,-0.084
9.414,-0.081
9.415,-0.084
9.416,-0.080
9.417,-0.078
9.418,-0.077
9.419,-0.075
9.420,-0.075
9.421,-0.075
9.422,-0.078
9.423,-0.078
9.424,-0.078
9.425,-0.078
9.426,-0.078
9.427,-0.078
9.428,-0.078
