'Elapsed time','II'
'seconds','mV'
0.000,-0.067
0.001,-0.063
0.002,-0.058
0.003,-0.056
0.004,-0.055
0.005,-0.056
0.006,-0.061
0.007,-0.063
0.008,-0.069
0.009,-0.081
0.010,-0.094
0.011,-0.106
0.012,-0.098
0.013,-0.100
0.014,-0.097
0.015,-0.094
0.016,-0.098
0.017,-0.100
0.018,-0.103
0.019,-0.109
0.020,-0.106
0.021,-0.103
0.022,-0.111
0.023,-0.119
0.024,-0.138
0.025,-0.153
0.026,-0.164
0.027,-0.175
0.028,-0.178
0.029,-0.184
0.030,-0.170
0.031,-0.156
0.032,-0.119
0.033,-0.084
0.034,-0.048
0.035,-0.013
0.036,0.044
0.037,0.100
0.038,0.153
0.039,0.203
0.040,0.259
0.041,0.316
0.042,0.374
0.043,0.437
0.044,0.525
0.045,0.612
0.046,0.711
0.047,0.806
0.048,0.897
0.049,0.987
0.050,1.081
0.051,1.169
0.052,1.232
0.053,1.291
0.054,1.305
0.055,1.322
0.056,1.359
0.057,1.403
0.058,1.469
0.059,1.528
0.060,1.566
0.061,1.600
0.062,1.647
0.063,1.672
0.064,1.639
0.065,1.591
0.066,1.434
0.067,1.281
0.068,1.134
0.069,0.994
0.070,0.862
0.071,0.734
0.072,0.605
0.073,0.484
0.074,0.367
0.075,0.259
0.076,0.196
0.077,0.137
0.078,0.100
0.079,0.062
0.080,0.025
0.081,-0.016
0.082,-0.054
0.083,-0.100
0.084,-0.166
0.085,-0.213
0.086,-0.245
0.087,-0.275
0.088,-0.297
0.089,-0.319
0.090,-0.323
0.091,-0.331
0.092,-0.323
0.093,-0.313
0.094,-0.306
0.095,-0.297
0.096,-0.288
0.097,-0.281
0.098,-0.258
0.099,-0.238
0.100,-0.218
0.101,-0.200
0.102,-0.189
0.103,-0.178
0.104,-0.161
0.105,-0.150
0.106,-0.136
0.107,-0.119
0.108,-0.117
0.109,-0.113
0.110,-0.111
0.111,-0.109
0.112,-0.105
0.113,-0.106
0.114,-0.096
0.115,-0.081
0.116,-0.081
0.117,-0.081
0.118,-0.077
0.119,-0.075
0.120,-0.059
0.121,-0.047
0.122,-0.039
0.123,-0.031
0.124,-0.019
0.125,-0.016
0.126,-0.026
0.127,-0.038
0.128,-0.044
0.129,-0.050
0.130,-0.053
0.131,-0.059
0.132,-0.053
0.133,-0.041
0.134,-0.036
0.135,-0.028
0.136,-0.021
0.137,-0.013
0.138,-0.008
0.139,-0.006
0.140,-0.009
0.141,-0.016
0.142,-0.017
0.143,-0.019
0.144,-0.029
0.145,-0.044
0.146,-0.047
0.147,-0.050
0.148,-0.043
0.149,-0.034
0.150,-0.024
0.151,-0.013
0.152,-0.006
0.153,-0.009
0.154,-0.009
0.155,-0.006
0.156,-0.009
0.157,-0.013
0.158,-0.013
0.159,-0.013
0.160,-0.014
0.161,-0.013
0.162,-0.013
0.163,-0.013
0.164,-0.014
0.165,-0.016
0.166,-0.009
0.167,-0.006
0.168,0.003
0.169,0.012
0.170,0.020
0.171,0.028
0.172,0.034
0.173,0.041
0.174,0.033
0.175,0.028
0.176,0.022
0.177,0.012
0.178,0.014
0.179,0.012
0.180,0.009
0.181,0.006
0.182,0.009
0.183,0.012
0.184,0.017
0.185,0.016
0.186,0.022
0.187,0.019
0.188,0.025
0.189,0.031
0.190,0.034
0.191,0.038
0.192,0.044
0.193,0.050
0.194,0.044
0.195,0.050
0.196,0.050
0.197,0.056
0.198,0.052
0.199,0.053
0.200,0.056
0.201,0.059
0.202,0.059
0.203,0.059
0.204,0.061
0.205,0.066
0.206,0.067
0.207,0.069
0.208,0.075
0.209,0.084
0.210,0.087
0.211,0.097
0.212,0.100
0.213,0.103
0.214,0.102
0.215,0.100
0.216,0.097
0.217,0.100
0.218,0.103
0.219,0.106
0.220,0.107
0.221,0.116
0.222,0.122
0.223,0.134
0.224,0.133
0.225,0.131
0.226,0.136
0.227,0.137
0.228,0.137
0.229,0.144
0.230,0.142
0.231,0.144
0.232,0.148
0.233,0.153
0.234,0.152
0.235,0.153
0.236,0.153
0.237,0.156
0.238,0.161
0.239,0.169
0.240,0.166
0.241,0.162
0.242,0.164
0.243,0.162
0.244,0.167
0.245,0.172
0.246,0.174
0.247,0.175
0.248,0.176
0.249,0.181
0.250,0.177
0.251,0.178
0.252,0.180
0.253,0.178
0.254,0.175
0.255,0.172
0.256,0.175
0.257,0.172
0.258,0.172
0.259,0.172
0.260,0.169
0.261,0.169
0.262,0.169
0.263,0.175
0.264,0.174
0.265,0.169
0.266,0.179
0.267,0.194
0.268,0.197
0.269,0.194
0.270,0.189
0.271,0.178
0.272,0.172
0.273,0.166
0.274,0.166
0.275,0.169
0.276,0.175
0.277,0.178
0.278,0.175
0.279,0.172
0.280,0.161
0.281,0.156
0.282,0.150
0.283,0.150
0.284,0.144
0.285,0.131
0.286,0.131
0.287,0.128
0.288,0.134
0.289,0.141
0.290,0.141
0.291,0.137
0.292,0.147
0.293,0.153
0.294,0.151
0.295,0.150
0.296,0.142
0.297,0.137
0.298,0.131
0.299,0.122
0.300,0.116
0.301,0.113
0.302,0.113
0.303,0.109
0.304,0.103
0.305,0.094
0.306,0.097
0.307,0.091
0.308,0.094
0.309,0.097
0.310,0.089
0.311,0.087
0.312,0.072
0.313,0.056
0.314,0.047
0.315,0.038
0.316,0.038
0.317,0.031
0.318,0.022
0.319,0.012
0.320,0.000
0.321,-0.013
0.322,-0.016
0.323,-0.013
0.324,-0.023
0.325,-0.034
0.326,-0.043
0.327,-0.047
0.328,-0.049
0.329,-0.050
0.330,-0.057
0.331,-0.066
0.332,-0.076
0.333,-0.084
0.334,-0.089
0.335,-0.091
0.336,-0.103
0.337,-0.116
0.338,-0.123
0.339,-0.125
0.340,-0.127
0.341,-0.125
0.342,-0.125
0.343,-0.125
0.344,-0.125
0.345,-0.125
0.346,-0.132
0.347,-0.144
0.348,-0.147
0.349,-0.153
0.350,-0.156
0.351,-0.159
0.352,-0.164
0.353,-0.163
0.354,-0.167
0.355,-0.175
0.356,-0.179
0.357,-0.184
0.358,-0.188
0.359,-0.194
0.360,-0.199
0.361,-0.197
0.362,-0.198
0.363,-0.206
0.364,-0.199
0.365,-0.197
0.366,-0.188
0.367,-0.184
0.368,-0.183
0.369,-0.184
0.370,-0.191
0.371,-0.200
0.372,-0.197
0.373,-0.197
0.374,-0.197
0.375,-0.197
0.376,-0.203
0.377,-0.206
0.378,-0.207
0.379,-0.213
0.380,-0.214
0.381,-0.213
0.382,-0.206
0.383,-0.200
0.384,-0.203
0.385,-0.203
0.386,-0.197
0.387,-0.191
0.388,-0.189
0.389,-0.184
0.390,-0.194
0.391,-0.197
0.392,-0.198
0.393,-0.200
0.394,-0.194
0.395,-0.197
0.396,-0.197
0.397,-0.194
0.398,-0.189
0.399,-0.184
0.400,-0.186
0.401,-0.188
0.402,-0.188
0.403,-0.188
0.404,-0.186
0.405,-0.188
0.406,-0.180
0.407,-0.178
0.408,-0.175
0.409,-0.172
0.410,-0.164
0.411,-0.156
0.412,-0.156
0.413,-0.156
0.414,-0.159
0.415,-0.159
0.416,-0.156
0.417,-0.153
0.418,-0.154
0.419,-0.156
0.420,-0.158
0.421,-0.156
0.422,-0.155
0.423,-0.153
0.424,-0.151
0.425,-0.150
0.426,-0.153
0.427,-0.159
0.428,-0.158
0.429,-0.159
0.430,-0.158
0.431,-0.150
0.432,-0.147
0.433,-0.150
0.434,-0.146
0.435,-0.141
0.436,-0.133
0.437,-0.134
0.438,-0.122
0.439,-0.119
0.440,-0.125
0.441,-0.128
0.442,-0.130
0.443,-0.128
0.444,-0.122
0.445,-0.113
0.446,-0.113
0.447,-0.119
0.448,-0.128
0.449,-0.134
0.450,-0.134
0.451,-0.138
0.452,-0.141
0.453,-0.144
0.454,-0.141
0.455,-0.141
0.456,-0.136
0.457,-0.131
0.458,-0.132
0.459,-0.134
0.460,-0.127
0.461,-0.119
0.462,-0.122
0.463,-0.122
0.464,-0.125
0.465,-0.122
0.466,-0.125
0.467,-0.131
0.468,-0.134
0.469,-0.144
0.470,-0.141
0.471,-0.141
0.472,-0.134
0.473,-0.128
0.474,-0.128
0.475,-0.128
0.476,-0.129
0.477,-0.131
0.478,-0.136
0.479,-0.141
0.480,-0.145
0.481,-0.138
0.482,-0.138
0.483,-0.138
0.484,-0.133
0.485,-0.131
0.486,-0.128
0.487,-0.125
0.488,-0.121
0.489,-0.116
0.490,-0.109
0.491,-0.106
0.492,-0.103
0.493,-0.100
0.494,-0.094
0.495,-0.097
0.496,-0.098
0.497,-0.097
0.498,-0.088
0.499,-0.084
0.500,-0.071
0.501,-0.059
0.502,-0.053
0.503,-0.044
0.504,-0.042
0.505,-0.038
0.506,-0.038
0.507,-0.047
0.508,-0.054
0.509,-0.059
0.510,-0.059
0.511,-0.053
0.512,-0.044
0.513,-0.038
0.514,-0.034
0.515,-0.031
0.516,-0.022
0.517,-0.013
0.518,-0.005
0.519,0.003
0.520,0.002
0.521,0.012
0.522,0.020
0.523,0.028
0.524,0.034
0.525,0.038
0.526,0.039
0.527,0.038
0.528,0.031
0.529,0.028
0.530,0.028
0.531,0.031
0.532,0.029
0.533,0.031
0.534,0.030
0.535,0.034
0.536,0.029
0.537,0.025
0.538,0.023
0.539,0.025
0.540,0.025
0.541,0.028
0.542,0.028
0.543,0.031
0.544,0.044
0.545,0.050
0.546,0.057
0.547,0.062
0.548,0.067
0.549,0.075
0.550,0.073
0.551,0.078
0.552,0.070
0.553,0.062
0.554,0.054
0.555,0.044
0.556,0.025
0.557,0.003
0.558,-0.009
0.559,-0.028
0.560,-0.044
0.561,-0.056
0.562,-0.059
0.563,-0.075
0.564,-0.091
0.565,-0.100
0.566,-0.113
0.567,-0.125
0.568,-0.131
0.569,-0.138
0.570,-0.144
0.571,-0.150
0.572,-0.153
0.573,-0.159
0.574,-0.164
0.575,-0.175
0.576,-0.175
0.577,-0.169
0.578,-0.174
0.579,-0.175
0.580,-0.172
0.581,-0.175
0.582,-0.181
0.583,-0.184
0.584,-0.184
0.585,-0.188
0.586,-0.186
0.587,-0.184
0.588,-0.178
0.589,-0.175
0.590,-0.174
0.591,-0.175
0.592,-0.181
0.593,-0.191
0.594,-0.188
0.595,-0.184
0.596,-0.184
0.597,-0.178
0.598,-0.179
0.599,-0.178
0.600,-0.178
0.601,-0.178
0.602,-0.178
0.603,-0.178
0.604,-0.179
0.605,-0.181
0.606,-0.184
0.607,-0.191
0.608,-0.188
0.609,-0.188
0.610,-0.192
0.611,-0.194
0.612,-0.194
0.613,-0.200
0.614,-0.200
0.615,-0.200
0.616,-0.191
0.617,-0.191
0.618,-0.195
0.619,-0.200
0.620,-0.206
0.621,-0.209
0.622,-0.208
0.623,-0.209
0.624,-0.205
0.625,-0.200
0.626,-0.202
0.627,-0.203
0.628,-0.214
0.629,-0.222
0.630,-0.231
0.631,-0.241
0.632,-0.244
0.633,-0.250
0.634,-0.242
0.635,-0.234
0.636,-0.211
0.637,-0.191
0.638,-0.150
0.639,-0.109
0.640,-0.043
0.641,0.025
0.642,0.094
0.643,0.159
0.644,0.224
0.645,0.287
0.646,0.349
0.647,0.416
0.648,0.505
0.649,0.594
0.650,0.689
0.651,0.781
0.652,0.864
0.653,0.947
0.654,1.041
0.655,1.128
0.656,1.181
0.657,1.228
0.658,1.255
0.659,1.284
0.660,1.331
0.661,1.384
0.662,1.461
0.663,1.531
0.664,1.570
0.665,1.606
0.666,1.636
0.667,1.644
0.668,1.573
0.669,1.487
0.670,1.319
0.671,1.153
0.672,1.000
0.673,0.853
0.674,0.725
0.675,0.600
0.676,0.462
0.677,0.334
0.678,0.216
0.679,0.106
0.680,0.039
0.681,-0.022
0.682,-0.056
0.683,-0.091
0.684,-0.141
0.685,-0.194
0.686,-0.239
0.687,-0.291
0.688,-0.339
0.689,-0.369
0.690,-0.394
0.691,-0.416
0.692,-0.417
0.693,-0.419
0.694,-0.408
0.695,-0.400
0.696,-0.388
0.697,-0.372
0.698,-0.358
0.699,-0.341
0.700,-0.330
0.701,-0.322
0.702,-0.306
0.703,-0.294
0.704,-0.279
0.705,-0.269
0.706,-0.253
0.707,-0.238
0.708,-0.225
0.709,-0.219
0.710,-0.214
0.711,-0.206
0.712,-0.204
0.713,-0.200
0.714,-0.197
0.715,-0.194
0.716,-0.169
0.717,-0.150
0.718,-0.139
0.719,-0.125
0.720,-0.118
0.721,-0.109
0.722,-0.111
0.723,-0.116
0.724,-0.114
0.725,-0.116
0.726,-0.120
0.727,-0.125
0.728,-0.122
0.729,-0.128
0.730,-0.131
0.731,-0.134
0.732,-0.136
0.733,-0.138
0.734,-0.128
0.735,-0.122
0.736,-0.125
0.737,-0.122
0.738,-0.121
0.739,-0.116
0.740,-0.113
0.741,-0.109
0.742,-0.106
0.743,-0.106
0.744,-0.108
0.745,-0.113
0.746,-0.120
0.747,-0.128
0.748,-0.134
0.749,-0.144
0.750,-0.143
0.751,-0.141
0.752,-0.128
0.753,-0.116
0.754,-0.106
0.755,-0.097
0.756,-0.086
0.757,-0.084
0.758,-0.091
0.759,-0.094
0.760,-0.091
0.761,-0.088
0.762,-0.083
0.763,-0.078
0.764,-0.081
0.765,-0.081
0.766,-0.083
0.767,-0.084
0.768,-0.086
0.769,-0.088
0.770,-0.083
0.771,-0.081
0.772,-0.084
0.773,-0.088
0.774,-0.084
0.775,-0.081
0.776,-0.084
0.777,-0.088
0.778,-0.101
0.779,-0.113
0.780,-0.100
0.781,-0.091
0.782,-0.083
0.783,-0.078
0.784,-0.075
0.785,-0.072
0.786,-0.072
0.787,-0.072
0.788,-0.078
0.789,-0.091
0.790,-0.084
0.791,-0.088
0.792,-0.077
0.793,-0.066
0.794,-0.052
0.795,-0.038
0.796,-0.033
0.797,-0.028
0.798,-0.028
0.799,-0.016
0.800,-0.023
0.801,-0.025
0.802,-0.028
0.803,-0.025
0.804,-0.019
0.805,-0.013
0.806,-0.009
0.807,-0.006
0.808,-0.005
0.809,0.000
0.810,0.003
0.811,0.006
0.812,0.006
0.813,0.009
0.814,0.009
0.815,0.016
0.816,0.018
0.817,0.019
0.818,0.022
0.819,0.025
0.820,0.021
0.821,0.022
0.822,0.029
0.823,0.038
0.824,0.038
0.825,0.044
0.826,0.045
0.827,0.053
0.828,0.056
0.829,0.059
0.830,0.069
0.831,0.075
0.832,0.076
0.833,0.084
0.834,0.074
0.835,0.066
0.836,0.064
0.837,0.062
0.838,0.070
0.839,0.081
0.840,0.084
0.841,0.091
0.842,0.093
0.843,0.097
0.844,0.097
0.845,0.097
0.846,0.101
0.847,0.103
0.848,0.107
0.849,0.113
0.850,0.108
0.851,0.103
0.852,0.103
0.853,0.106
0.854,0.102
0.855,0.103
0.856,0.107
0.857,0.109
0.858,0.114
0.859,0.119
0.860,0.123
0.861,0.122
0.862,0.128
0.863,0.134
0.864,0.137
0.865,0.144
0.866,0.147
0.867,0.156
0.868,0.158
0.869,0.156
0.870,0.149
0.871,0.144
0.872,0.147
0.873,0.144
0.874,0.147
0.875,0.144
0.876,0.141
0.877,0.137
0.878,0.134
0.879,0.134
0.880,0.136
0.881,0.134
0.882,0.139
0.883,0.144
0.884,0.141
0.885,0.144
0.886,0.130
0.887,0.122
0.888,0.123
0.889,0.119
0.890,0.125
0.891,0.128
0.892,0.131
0.893,0.134
0.894,0.131
0.895,0.125
0.896,0.122
0.897,0.116
0.898,0.114
0.899,0.113
0.900,0.097
0.901,0.084
0.902,0.087
0.903,0.087
0.904,0.094
0.905,0.103
0.906,0.103
0.907,0.100
0.908,0.097
0.909,0.091
0.910,0.087
0.911,0.075
0.912,0.067
0.913,0.059
0.914,0.054
0.915,0.056
0.916,0.053
0.917,0.050
0.918,0.041
0.919,0.031
0.920,0.027
0.921,0.016
0.922,0.007
0.923,0.000
0.924,-0.005
0.925,-0.009
0.926,-0.018
0.927,-0.019
0.928,-0.019
0.929,-0.019
0.930,-0.034
0.931,-0.047
0.932,-0.059
0.933,-0.072
0.934,-0.074
0.935,-0.075
0.936,-0.080
0.937,-0.081
0.938,-0.088
0.939,-0.091
0.940,-0.099
0.941,-0.106
0.942,-0.117
0.943,-0.122
0.944,-0.128
0.945,-0.131
0.946,-0.130
0.947,-0.128
0.948,-0.129
0.949,-0.131
0.950,-0.128
0.951,-0.128
0.952,-0.129
0.953,-0.134
0.954,-0.147
0.955,-0.159
0.956,-0.163
0.957,-0.159
0.958,-0.161
0.959,-0.166
0.960,-0.164
0.961,-0.163
0.962,-0.159
0.963,-0.159
0.964,-0.167
0.965,-0.169
0.966,-0.164
0.967,-0.166
0.968,-0.167
0.969,-0.175
0.970,-0.175
0.971,-0.181
0.972,-0.181
0.973,-0.184
0.974,-0.177
0.975,-0.172
0.976,-0.175
0.977,-0.181
0.978,-0.177
0.979,-0.172
0.980,-0.174
0.981,-0.172
0.982,-0.175
0.983,-0.181
0.984,-0.183
0.985,-0.181
0.986,-0.179
0.987,-0.178
0.988,-0.172
0.989,-0.163
0.990,-0.156
0.991,-0.150
0.992,-0.163
0.993,-0.172
0.994,-0.183
0.995,-0.188
0.996,-0.189
0.997,-0.191
0.998,-0.184
0.999,-0.188
1.000,-0.186
1.001,-0.181
1.002,-0.174
1.003,-0.166
1.004,-0.168
1.005,-0.169
1.006,-0.169
1.007,-0.169
1.008,-0.167
1.009,-0.169
1.010,-0.167
1.011,-0.172
1.012,-0.169
1.013,-0.166
1.014,-0.158
1.015,-0.150
1.016,-0.146
1.017,-0.141
1.018,-0.142
1.019,-0.141
1.020,-0.142
1.021,-0.144
1.022,-0.145
1.023,-0.147
1.024,-0.143
1.025,-0.141
1.026,-0.136
1.027,-0.134
1.028,-0.139
1.029,-0.138
1.030,-0.134
1.031,-0.138
1.032,-0.136
1.033,-0.134
1.034,-0.129
1.035,-0.134
1.036,-0.128
1.037,-0.131
1.038,-0.131
1.039,-0.128
1.040,-0.132
1.041,-0.134
1.042,-0.136
1.043,-0.134
1.044,-0.128
1.045,-0.128
1.046,-0.131
1.047,-0.131
1.048,-0.132
1.049,-0.138
1.050,-0.142
1.051,-0.147
1.052,-0.142
1.053,-0.141
1.054,-0.138
1.055,-0.134
1.056,-0.136
1.057,-0.138
1.058,-0.136
1.059,-0.134
1.060,-0.131
1.061,-0.125
1.062,-0.122
1.063,-0.113
1.064,-0.116
1.065,-0.122
1.066,-0.122
1.067,-0.128
1.068,-0.126
1.069,-0.128
1.070,-0.126
1.071,-0.125
1.072,-0.122
1.073,-0.119
1.074,-0.116
1.075,-0.113
1.076,-0.116
1.077,-0.119
1.078,-0.126
1.079,-0.122
1.080,-0.125
1.081,-0.128
1.082,-0.129
1.083,-0.134
1.084,-0.131
1.085,-0.128
1.086,-0.122
1.087,-0.116
1.088,-0.114
1.089,-0.116
1.090,-0.117
1.091,-0.119
1.092,-0.108
1.093,-0.106
1.094,-0.104
1.095,-0.100
1.096,-0.089
1.097,-0.084
1.098,-0.075
1.099,-0.069
1.100,-0.063
1.101,-0.053
1.102,-0.051
1.103,-0.047
1.104,-0.038
1.105,-0.038
1.106,-0.034
1.107,-0.028
1.108,-0.025
1.109,-0.016
1.110,-0.016
1.111,-0.019
1.112,-0.014
1.113,-0.009
1.114,-0.008
1.115,-0.006
1.116,0.001
1.117,0.009
1.118,0.009
1.119,0.022
1.120,0.025
1.121,0.028
1.122,0.034
1.123,0.038
1.124,0.047
1.125,0.053
1.126,0.054
1.127,0.059
1.128,0.062
1.129,0.069
1.130,0.062
1.131,0.059
1.132,0.056
1.133,0.059
1.134,0.052
1.135,0.044
1.136,0.042
1.137,0.044
1.138,0.044
1.139,0.047
1.140,0.054
1.141,0.066
1.142,0.075
1.143,0.078
1.144,0.067
1.145,0.053
1.146,0.052
1.147,0.053
1.148,0.056
1.149,0.066
1.150,0.064
1.151,0.062
1.152,0.053
1.153,0.041
1.154,0.024
1.155,0.003
1.156,-0.006
1.157,-0.022
1.158,-0.028
1.159,-0.031
1.160,-0.027
1.161,-0.034
1.162,-0.057
1.163,-0.075
1.164,-0.098
1.165,-0.122
1.166,-0.131
1.167,-0.141
1.168,-0.141
1.169,-0.141
1.170,-0.133
1.171,-0.128
1.172,-0.124
1.173,-0.125
1.174,-0.124
1.175,-0.116
1.176,-0.122
1.177,-0.125
1.178,-0.132
1.179,-0.147
1.180,-0.158
1.181,-0.166
1.182,-0.163
1.183,-0.163
1.184,-0.156
1.185,-0.150
1.186,-0.149
1.187,-0.150
1.188,-0.156
1.189,-0.166
1.190,-0.164
1.191,-0.166
1.192,-0.161
1.193,-0.156
1.194,-0.163
1.195,-0.163
1.196,-0.173
1.197,-0.181
1.198,-0.175
1.199,-0.169
1.200,-0.169
1.201,-0.169
1.202,-0.172
1.203,-0.175
1.204,-0.175
1.205,-0.178
1.206,-0.169
1.207,-0.163
1.208,-0.166
1.209,-0.166
1.210,-0.161
1.211,-0.163
1.212,-0.166
1.213,-0.169
1.214,-0.161
1.215,-0.163
1.216,-0.169
1.217,-0.175
1.218,-0.175
1.219,-0.172
1.220,-0.178
1.221,-0.188
1.222,-0.197
1.223,-0.206
1.224,-0.213
1.225,-0.219
1.226,-0.227
1.227,-0.231
1.228,-0.236
1.229,-0.241
1.230,-0.231
1.231,-0.225
1.232,-0.209
1.233,-0.194
1.234,-0.158
1.235,-0.125
1.236,-0.071
1.237,-0.016
1.238,0.049
1.239,0.113
1.240,0.175
1.241,0.234
1.242,0.306
1.243,0.378
1.244,0.441
1.245,0.509
1.246,0.597
1.247,0.684
1.248,0.773
1.249,0.859
1.250,0.945
1.251,1.031
1.252,1.114
1.253,1.191
1.254,1.239
1.255,1.281
1.256,1.319
1.257,1.359
1.258,1.425
1.259,1.497
1.260,1.548
1.261,1.594
1.262,1.604
1.263,1.612
1.264,1.604
1.265,1.575
1.266,1.473
1.267,1.356
1.268,1.191
1.269,1.028
1.270,0.895
1.271,0.769
1.272,0.645
1.273,0.525
1.274,0.405
1.275,0.294
1.276,0.191
1.277,0.097
1.278,0.036
1.279,-0.019
1.280,-0.067
1.281,-0.116
1.282,-0.169
1.283,-0.225
1.284,-0.263
1.285,-0.306
1.286,-0.344
1.287,-0.363
1.288,-0.376
1.289,-0.388
1.290,-0.381
1.291,-0.375
1.292,-0.366
1.293,-0.359
1.294,-0.346
1.295,-0.328
1.296,-0.326
1.297,-0.322
1.298,-0.306
1.299,-0.294
1.300,-0.279
1.301,-0.269
1.302,-0.254
1.303,-0.244
1.304,-0.219
1.305,-0.194
1.306,-0.171
1.307,-0.153
1.308,-0.151
1.309,-0.147
1.310,-0.147
1.311,-0.144
1.312,-0.144
1.313,-0.144
1.314,-0.142
1.315,-0.147
1.316,-0.145
1.317,-0.141
1.318,-0.134
1.319,-0.128
1.320,-0.124
1.321,-0.122
1.322,-0.119
1.323,-0.119
1.324,-0.118
1.325,-0.116
1.326,-0.109
1.327,-0.113
1.328,-0.117
1.329,-0.122
1.330,-0.113
1.331,-0.103
1.332,-0.094
1.333,-0.088
1.334,-0.091
1.335,-0.088
1.336,-0.089
1.337,-0.088
1.338,-0.086
1.339,-0.084
1.340,-0.081
1.341,-0.081
1.342,-0.079
1.343,-0.081
1.344,-0.081
1.345,-0.081
1.346,-0.081
1.347,-0.084
1.348,-0.086
1.349,-0.088
1.350,-0.094
1.351,-0.100
1.352,-0.101
1.353,-0.103
1.354,-0.089
1.355,-0.084
1.356,-0.088
1.357,-0.088
1.358,-0.091
1.359,-0.094
1.360,-0.091
1.361,-0.088
1.362,-0.086
1.363,-0.081
1.364,-0.072
1.365,-0.063
1.366,-0.066
1.367,-0.069
1.368,-0.073
1.369,-0.081
1.370,-0.081
1.371,-0.081
1.372,-0.075
1.373,-0.069
1.374,-0.063
1.375,-0.056
1.376,-0.055
1.377,-0.050
1.378,-0.053
1.379,-0.059
1.380,-0.057
1.381,-0.059
1.382,-0.056
1.383,-0.053
1.384,-0.047
1.385,-0.041
1.386,-0.031
1.387,-0.028
1.388,-0.025
1.389,-0.031
1.390,-0.031
1.391,-0.031
1.392,-0.031
1.393,-0.031
1.394,-0.024
1.395,-0.016
1.396,-0.021
1.397,-0.013
1.398,-0.013
1.399,-0.006
1.400,-0.004
1.401,0.003
1.402,0.005
1.403,0.006
1.404,0.000
1.405,-0.006
1.406,-0.006
1.407,-0.003
1.408,0.000
1.409,0.003
1.410,0.003
1.411,0.006
1.412,0.003
1.413,0.006
1.414,0.017
1.415,0.028
1.416,0.036
1.417,0.044
1.418,0.045
1.419,0.053
1.420,0.056
1.421,0.059
1.422,0.056
1.423,0.059
1.424,0.052
1.425,0.050
1.426,0.056
1.427,0.062
1.428,0.073
1.429,0.081
1.430,0.081
1.431,0.087
1.432,0.084
1.433,0.084
1.434,0.086
1.435,0.087
1.436,0.097
1.437,0.109
1.438,0.106
1.439,0.106
1.440,0.111
1.441,0.119
1.442,0.125
1.443,0.131
1.444,0.134
1.445,0.134
1.446,0.128
1.447,0.122
1.448,0.125
1.449,0.128
1.450,0.131
1.451,0.137
1.452,0.134
1.453,0.137
1.454,0.136
1.455,0.131
1.456,0.132
1.457,0.134
1.458,0.144
1.459,0.147
1.460,0.150
1.461,0.153
1.462,0.146
1.463,0.141
1.464,0.139
1.465,0.144
1.466,0.147
1.467,0.147
1.468,0.148
1.469,0.153
1.470,0.157
1.471,0.156
1.472,0.161
1.473,0.159
1.474,0.156
1.475,0.153
1.476,0.154
1.477,0.159
1.478,0.164
1.479,0.166
1.480,0.164
1.481,0.162
1.482,0.150
1.483,0.144
1.484,0.130
1.485,0.122
1.486,0.129
1.487,0.131
1.488,0.145
1.489,0.156
1.490,0.155
1.491,0.153
1.492,0.150
1.493,0.144
1.494,0.141
1.495,0.134
1.496,0.127
1.497,0.119
1.498,0.111
1.499,0.106
1.500,0.111
1.501,0.113
1.502,0.114
1.503,0.119
1.504,0.119
1.505,0.116
1.506,0.114
1.507,0.109
1.508,0.111
1.509,0.103
1.510,0.103
1.511,0.103
1.512,0.081
1.513,0.066
1.514,0.058
1.515,0.050
1.516,0.047
1.517,0.044
1.518,0.044
1.519,0.038
1.520,0.027
1.521,0.016
1.522,0.011
1.523,0.006
1.524,0.001
1.525,0.003
1.526,-0.004
1.527,-0.013
1.528,-0.022
1.529,-0.028
1.530,-0.031
1.531,-0.034
1.532,-0.036
1.533,-0.038
1.534,-0.051
1.535,-0.063
1.536,-0.073
1.537,-0.081
1.538,-0.083
1.539,-0.084
1.540,-0.088
1.541,-0.084
1.542,-0.086
1.543,-0.084
1.544,-0.091
1.545,-0.097
1.546,-0.101
1.547,-0.106
1.548,-0.108
1.549,-0.113
1.550,-0.109
1.551,-0.109
1.552,-0.109
1.553,-0.109
1.554,-0.116
1.555,-0.116
1.556,-0.118
1.557,-0.122
1.558,-0.122
1.559,-0.122
1.560,-0.121
1.561,-0.122
1.562,-0.131
1.563,-0.134
1.564,-0.134
1.565,-0.141
1.566,-0.139
1.567,-0.144
1.568,-0.139
1.569,-0.141
1.570,-0.145
1.571,-0.153
1.572,-0.158
1.573,-0.166
1.574,-0.169
1.575,-0.175
1.576,-0.176
1.577,-0.178
1.578,-0.178
1.579,-0.175
1.580,-0.166
1.581,-0.159
1.582,-0.155
1.583,-0.147
1.584,-0.145
1.585,-0.144
1.586,-0.146
1.587,-0.144
1.588,-0.147
1.589,-0.150
1.590,-0.149
1.591,-0.144
1.592,-0.136
1.593,-0.122
1.594,-0.119
1.595,-0.116
1.596,-0.109
1.597,-0.113
1.598,-0.123
1.599,-0.131
1.600,-0.128
1.601,-0.125
1.602,-0.125
1.603,-0.125
1.604,-0.122
1.605,-0.119
1.606,-0.109
1.607,-0.103
1.608,-0.094
1.609,-0.091
1.610,-0.101
1.611,-0.113
1.612,-0.119
1.613,-0.125
1.614,-0.125
1.615,-0.125
1.616,-0.128
1.617,-0.128
1.618,-0.128
1.619,-0.128
1.620,-0.122
1.621,-0.116
1.622,-0.114
1.623,-0.106
1.624,-0.105
1.625,-0.106
1.626,-0.108
1.627,-0.106
1.628,-0.104
1.629,-0.103
1.630,-0.104
1.631,-0.106
1.632,-0.108
1.633,-0.109
1.634,-0.109
1.635,-0.109
1.636,-0.113
1.637,-0.113
1.638,-0.106
1.639,-0.094
1.640,-0.098
1.641,-0.094
1.642,-0.098
1.643,-0.103
1.644,-0.102
1.645,-0.103
1.646,-0.102
1.647,-0.100
1.648,-0.097
1.649,-0.094
1.650,-0.100
1.651,-0.106
1.652,-0.106
1.653,-0.106
1.654,-0.105
1.655,-0.103
1.656,-0.109
1.657,-0.106
1.658,-0.104
1.659,-0.106
1.660,-0.106
1.661,-0.106
1.662,-0.106
1.663,-0.106
1.664,-0.106
1.665,-0.109
1.666,-0.100
1.667,-0.094
1.668,-0.094
1.669,-0.097
1.670,-0.103
1.671,-0.103
1.672,-0.109
1.673,-0.109
1.674,-0.113
1.675,-0.113
1.676,-0.105
1.677,-0.100
1.678,-0.100
1.679,-0.100
1.680,-0.097
1.681,-0.097
1.682,-0.100
1.683,-0.103
1.684,-0.095
1.685,-0.100
1.686,-0.104
1.687,-0.103
1.688,-0.104
1.689,-0.106
1.690,-0.105
1.691,-0.100
1.692,-0.091
1.693,-0.078
1.694,-0.076
1.695,-0.075
1.696,-0.078
1.697,-0.075
1.698,-0.072
1.699,-0.066
1.700,-0.064
1.701,-0.059
1.702,-0.055
1.703,-0.044
1.704,-0.036
1.705,-0.031
1.706,-0.024
1.707,-0.019
1.708,-0.017
1.709,-0.016
1.710,-0.019
1.711,-0.022
1.712,-0.018
1.713,-0.013
1.714,-0.009
1.715,-0.009
1.716,-0.009
1.717,-0.003
1.718,0.002
1.719,0.006
1.720,0.014
1.721,0.022
1.722,0.038
1.723,0.047
1.724,0.052
1.725,0.050
1.726,0.055
1.727,0.062
1.728,0.070
1.729,0.075
1.730,0.076
1.731,0.078
1.732,0.078
1.733,0.075
1.734,0.077
1.735,0.072
1.736,0.069
1.737,0.066
1.738,0.066
1.739,0.053
1.740,0.044
1.741,0.038
1.742,0.045
1.743,0.056
1.744,0.067
1.745,0.075
1.746,0.082
1.747,0.094
1.748,0.098
1.749,0.103
1.750,0.102
1.751,0.100
1.752,0.099
1.753,0.087
1.754,0.087
1.755,0.078
1.756,0.072
1.757,0.062
1.758,0.054
1.759,0.050
1.760,0.027
1.761,0.019
1.762,0.008
1.763,-0.009
1.764,-0.019
1.765,-0.022
1.766,-0.039
1.767,-0.053
1.768,-0.066
1.769,-0.084
1.770,-0.098
1.771,-0.109
1.772,-0.114
1.773,-0.119
1.774,-0.119
1.775,-0.113
1.776,-0.108
1.777,-0.100
1.778,-0.113
1.779,-0.119
1.780,-0.122
1.781,-0.134
1.782,-0.139
1.783,-0.141
1.784,-0.153
1.785,-0.166
1.786,-0.170
1.787,-0.169
1.788,-0.169
1.789,-0.169
1.790,-0.168
1.791,-0.166
1.792,-0.166
1.793,-0.163
1.794,-0.166
1.795,-0.166
1.796,-0.169
1.797,-0.169
1.798,-0.168
1.799,-0.169
1.800,-0.167
1.801,-0.169
1.802,-0.167
1.803,-0.169
1.804,-0.170
1.805,-0.172
1.806,-0.176
1.807,-0.181
1.808,-0.183
1.809,-0.184
1.810,-0.181
1.811,-0.175
1.812,-0.175
1.813,-0.175
1.814,-0.174
1.815,-0.169
1.816,-0.159
1.817,-0.147
1.818,-0.154
1.819,-0.153
1.820,-0.154
1.821,-0.159
1.822,-0.163
1.823,-0.166
1.824,-0.166
1.825,-0.172
1.826,-0.181
1.827,-0.188
1.828,-0.195
1.829,-0.209
1.830,-0.222
1.831,-0.234
1.832,-0.243
1.833,-0.241
1.834,-0.244
1.835,-0.241
1.836,-0.236
1.837,-0.216
1.838,-0.194
1.839,-0.150
1.840,-0.114
1.841,-0.063
1.842,-0.009
1.843,0.056
1.844,0.123
1.845,0.191
1.846,0.249
1.847,0.316
1.848,0.383
1.849,0.453
1.850,0.536
1.851,0.628
1.852,0.719
1.853,0.806
1.854,0.892
1.855,0.975
1.856,1.049
1.857,1.116
1.858,1.186
1.859,1.234
1.860,1.274
1.861,1.309
1.862,1.356
1.863,1.416
1.864,1.482
1.865,1.537
1.866,1.589
1.867,1.603
1.868,1.600
1.869,1.578
1.870,1.541
1.871,1.422
1.872,1.291
1.873,1.125
1.874,0.959
1.875,0.819
1.876,0.671
1.877,0.534
1.878,0.406
1.879,0.294
1.880,0.196
1.881,0.119
1.882,0.054
1.883,0.009
1.884,-0.031
1.885,-0.069
1.886,-0.114
1.887,-0.159
1.888,-0.214
1.889,-0.266
1.890,-0.313
1.891,-0.356
1.892,-0.386
1.893,-0.403
1.894,-0.417
1.895,-0.425
1.896,-0.403
1.897,-0.375
1.898,-0.346
1.899,-0.306
1.900,-0.283
1.901,-0.269
1.902,-0.258
1.903,-0.247
1.904,-0.247
1.905,-0.234
1.906,-0.222
1.907,-0.209
1.908,-0.201
1.909,-0.188
1.910,-0.168
1.911,-0.156
1.912,-0.158
1.913,-0.156
1.914,-0.147
1.915,-0.141
1.916,-0.131
1.917,-0.131
1.918,-0.136
1.919,-0.138
1.920,-0.144
1.921,-0.141
1.922,-0.132
1.923,-0.128
1.924,-0.118
1.925,-0.109
1.926,-0.109
1.927,-0.109
1.928,-0.111
1.929,-0.109
1.930,-0.113
1.931,-0.106
1.932,-0.113
1.933,-0.122
1.934,-0.122
1.935,-0.116
1.936,-0.111
1.937,-0.106
1.938,-0.103
1.939,-0.100
1.940,-0.094
1.941,-0.094
1.942,-0.095
1.943,-0.097
1.944,-0.088
1.945,-0.081
1.946,-0.086
1.947,-0.084
1.948,-0.084
1.949,-0.084
1.950,-0.083
1.951,-0.084
1.952,-0.089
1.953,-0.088
1.954,-0.094
1.955,-0.094
1.956,-0.091
1.957,-0.091
1.958,-0.089
1.959,-0.081
1.960,-0.089
1.961,-0.100
1.962,-0.108
1.963,-0.113
1.964,-0.105
1.965,-0.100
1.966,-0.084
1.967,-0.072
1.968,-0.064
1.969,-0.056
1.970,-0.057
1.971,-0.059
1.972,-0.064
1.973,-0.063
1.974,-0.061
1.975,-0.059
1.976,-0.059
1.977,-0.059
1.978,-0.056
1.979,-0.056
1.980,-0.057
1.981,-0.059
1.982,-0.055
1.983,-0.053
1.984,-0.063
1.985,-0.066
1.986,-0.063
1.987,-0.059
1.988,-0.055
1.989,-0.044
1.990,-0.036
1.991,-0.031
1.992,-0.036
1.993,-0.031
1.994,-0.034
1.995,-0.034
1.996,-0.038
1.997,-0.038
1.998,-0.034
1.999,-0.031
2.000,-0.024
2.001,-0.025
2.002,-0.018
2.003,-0.016
2.004,-0.011
2.005,-0.009
2.006,-0.009
2.007,-0.013
2.008,-0.009
2.009,-0.013
2.010,-0.006
2.011,0.000
2.012,0.000
2.013,0.000
2.014,0.003
2.015,0.006
2.016,0.016
2.017,0.019
2.018,0.024
2.019,0.025
2.020,0.029
2.021,0.034
2.022,0.034
2.023,0.031
2.024,0.034
2.025,0.038
2.026,0.051
2.027,0.059
2.028,0.066
2.029,0.066
2.030,0.069
2.031,0.069
2.032,0.069
2.033,0.069
2.034,0.070
2.035,0.072
2.036,0.086
2.037,0.091
2.038,0.087
2.039,0.087
2.040,0.078
2.041,0.072
2.042,0.072
2.043,0.066
2.044,0.076
2.045,0.084
2.046,0.097
2.047,0.103
2.048,0.107
2.049,0.116
2.050,0.113
2.051,0.113
2.052,0.116
2.053,0.119
2.054,0.129
2.055,0.137
2.056,0.150
2.057,0.156
2.058,0.158
2.059,0.159
2.060,0.159
2.061,0.159
2.062,0.159
2.063,0.162
2.064,0.156
2.065,0.156
2.066,0.158
2.067,0.156
2.068,0.156
2.069,0.150
2.070,0.144
2.071,0.137
2.072,0.136
2.073,0.134
2.074,0.136
2.075,0.137
2.076,0.134
2.077,0.134
2.078,0.131
2.079,0.134
2.080,0.141
2.081,0.147
2.082,0.150
2.083,0.150
2.084,0.146
2.085,0.147
2.086,0.146
2.087,0.137
2.088,0.141
2.089,0.134
2.090,0.131
2.091,0.128
2.092,0.119
2.093,0.116
2.094,0.114
2.095,0.116
2.096,0.120
2.097,0.125
2.098,0.123
2.099,0.125
2.100,0.123
2.101,0.122
2.102,0.123
2.103,0.122
2.104,0.119
2.105,0.119
2.106,0.113
2.107,0.106
2.108,0.096
2.109,0.081
2.110,0.082
2.111,0.091
2.112,0.083
2.113,0.078
2.114,0.076
2.115,0.078
2.116,0.078
2.117,0.075
2.118,0.073
2.119,0.069
2.120,0.061
2.121,0.056
2.122,0.052
2.123,0.050
2.124,0.045
2.125,0.038
2.126,0.024
2.127,0.012
2.128,0.006
2.129,-0.003
2.130,-0.011
2.131,-0.022
2.132,-0.025
2.133,-0.031
2.134,-0.047
2.135,-0.063
2.136,-0.069
2.137,-0.072
2.138,-0.069
2.139,-0.069
2.140,-0.071
2.141,-0.072
2.142,-0.066
2.143,-0.069
2.144,-0.084
2.145,-0.097
2.146,-0.097
2.147,-0.103
2.148,-0.113
2.149,-0.122
2.150,-0.122
2.151,-0.119
2.152,-0.116
2.153,-0.116
2.154,-0.119
2.155,-0.116
2.156,-0.120
2.157,-0.128
2.158,-0.128
2.159,-0.125
2.160,-0.122
2.161,-0.125
2.162,-0.136
2.163,-0.144
2.164,-0.150
2.165,-0.153
2.166,-0.155
2.167,-0.159
2.168,-0.158
2.169,-0.153
2.170,-0.158
2.171,-0.159
2.172,-0.172
2.173,-0.175
2.174,-0.172
2.175,-0.166
2.176,-0.169
2.177,-0.169
2.178,-0.169
2.179,-0.166
2.180,-0.170
2.181,-0.172
2.182,-0.172
2.183,-0.175
2.184,-0.176
2.185,-0.178
2.186,-0.181
2.187,-0.181
2.188,-0.183
2.189,-0.184
2.190,-0.181
2.191,-0.184
2.192,-0.178
2.193,-0.169
2.194,-0.164
2.195,-0.166
2.196,-0.166
2.197,-0.169
2.198,-0.161
2.199,-0.156
2.200,-0.150
2.201,-0.141
2.202,-0.146
2.203,-0.147
2.204,-0.156
2.205,-0.163
2.206,-0.166
2.207,-0.175
2.208,-0.177
2.209,-0.172
2.210,-0.168
2.211,-0.163
2.212,-0.164
2.213,-0.163
2.214,-0.163
2.215,-0.159
2.216,-0.159
2.217,-0.159
2.218,-0.158
2.219,-0.153
2.220,-0.147
2.221,-0.147
2.222,-0.148
2.223,-0.150
2.224,-0.153
2.225,-0.153
2.226,-0.153
2.227,-0.159
2.228,-0.152
2.229,-0.144
2.230,-0.143
2.231,-0.144
2.232,-0.139
2.233,-0.144
2.234,-0.142
2.235,-0.144
2.236,-0.144
2.237,-0.144
2.238,-0.144
2.239,-0.144
2.240,-0.144
2.241,-0.147
2.242,-0.145
2.243,-0.147
2.244,-0.141
2.245,-0.138
2.246,-0.134
2.247,-0.134
2.248,-0.142
2.249,-0.138
2.250,-0.139
2.251,-0.141
2.252,-0.147
2.253,-0.153
2.254,-0.147
2.255,-0.141
2.256,-0.136
2.257,-0.134
2.258,-0.131
2.259,-0.131
2.260,-0.141
2.261,-0.144
2.262,-0.141
2.263,-0.144
2.264,-0.145
2.265,-0.147
2.266,-0.138
2.267,-0.138
2.268,-0.131
2.269,-0.134
2.270,-0.139
2.271,-0.141
2.272,-0.145
2.273,-0.147
2.274,-0.146
2.275,-0.141
2.276,-0.136
2.277,-0.138
2.278,-0.134
2.279,-0.128
2.280,-0.121
2.281,-0.116
2.282,-0.109
2.283,-0.103
2.284,-0.106
2.285,-0.113
2.286,-0.114
2.287,-0.116
2.288,-0.117
2.289,-0.119
2.290,-0.129
2.291,-0.141
2.292,-0.141
2.293,-0.138
2.294,-0.142
2.295,-0.141
2.296,-0.141
2.297,-0.144
2.298,-0.142
2.299,-0.147
2.300,-0.144
2.301,-0.144
2.302,-0.141
2.303,-0.138
2.304,-0.139
2.305,-0.141
2.306,-0.141
2.307,-0.141
2.308,-0.136
2.309,-0.131
2.310,-0.141
2.311,-0.138
2.312,-0.138
2.313,-0.138
2.314,-0.134
2.315,-0.134
2.316,-0.133
2.317,-0.131
2.318,-0.127
2.319,-0.122
2.320,-0.113
2.321,-0.106
2.322,-0.106
2.323,-0.106
2.324,-0.100
2.325,-0.103
2.326,-0.108
2.327,-0.109
2.328,-0.097
2.329,-0.091
2.330,-0.088
2.331,-0.088
2.332,-0.083
2.333,-0.075
2.334,-0.064
2.335,-0.050
2.336,-0.038
2.337,-0.034
2.338,-0.036
2.339,-0.034
2.340,-0.038
2.341,-0.034
2.342,-0.025
2.343,-0.019
2.344,-0.014
2.345,-0.009
2.346,-0.003
2.347,0.003
2.348,0.009
2.349,0.016
2.350,0.012
2.351,0.022
2.352,0.027
2.353,0.031
2.354,0.042
2.355,0.050
2.356,0.053
2.357,0.053
2.358,0.057
2.359,0.066
2.360,0.073
2.361,0.084
2.362,0.077
2.363,0.072
2.364,0.071
2.365,0.075
2.366,0.070
2.367,0.066
2.368,0.064
2.369,0.066
2.370,0.069
2.371,0.075
2.372,0.077
2.373,0.081
2.374,0.087
2.375,0.087
2.376,0.100
2.377,0.109
2.378,0.109
2.379,0.113
2.380,0.106
2.381,0.106
2.382,0.091
2.383,0.075
2.384,0.062
2.385,0.047
2.386,0.038
2.387,0.025
2.388,0.024
2.389,0.016
2.390,0.000
2.391,-0.013
2.392,-0.023
2.393,-0.047
2.394,-0.059
2.395,-0.066
2.396,-0.077
2.397,-0.088
2.398,-0.088
2.399,-0.088
2.400,-0.100
2.401,-0.113
2.402,-0.117
2.403,-0.125
2.404,-0.124
2.405,-0.128
2.406,-0.132
2.407,-0.131
2.408,-0.136
2.409,-0.138
2.410,-0.138
2.411,-0.144
2.412,-0.149
2.413,-0.150
2.414,-0.147
2.415,-0.147
2.416,-0.153
2.417,-0.159
2.418,-0.170
2.419,-0.184
2.420,-0.188
2.421,-0.194
2.422,-0.194
2.423,-0.197
2.424,-0.188
2.425,-0.178
2.426,-0.172
2.427,-0.159
2.428,-0.163
2.429,-0.163
2.430,-0.164
2.431,-0.166
2.432,-0.161
2.433,-0.156
2.434,-0.152
2.435,-0.147
2.436,-0.153
2.437,-0.163
2.438,-0.169
2.439,-0.178
2.440,-0.183
2.441,-0.184
2.442,-0.189
2.443,-0.200
2.444,-0.203
2.445,-0.206
2.446,-0.189
2.447,-0.181
2.448,-0.180
2.449,-0.178
2.450,-0.180
2.451,-0.178
2.452,-0.177
2.453,-0.178
2.454,-0.181
2.455,-0.184
2.456,-0.196
2.457,-0.206
2.458,-0.229
2.459,-0.250
2.460,-0.254
2.461,-0.259
2.462,-0.261
2.463,-0.266
2.464,-0.246
2.465,-0.225
2.466,-0.186
2.467,-0.150
2.468,-0.094
2.469,-0.038
2.470,0.031
2.471,0.100
2.472,0.156
2.473,0.209
2.474,0.274
2.475,0.338
2.476,0.406
2.477,0.481
2.478,0.573
2.479,0.666
2.480,0.761
2.481,0.853
2.482,0.937
2.483,1.022
2.484,1.097
2.485,1.166
2.486,1.217
2.487,1.262
2.488,1.296
2.489,1.331
2.490,1.383
2.491,1.441
2.492,1.491
2.493,1.534
2.494,1.550
2.495,1.562
2.496,1.567
2.497,1.550
2.498,1.445
2.499,1.325
2.500,1.150
2.501,0.978
2.502,0.836
2.503,0.700
2.504,0.572
2.505,0.447
2.506,0.339
2.507,0.241
2.508,0.158
2.509,0.084
2.510,0.034
2.511,-0.009
2.512,-0.048
2.513,-0.088
2.514,-0.132
2.515,-0.181
2.516,-0.213
2.517,-0.250
2.518,-0.286
2.519,-0.303
2.520,-0.325
2.521,-0.344
2.522,-0.347
2.523,-0.350
2.524,-0.348
2.525,-0.350
2.526,-0.345
2.527,-0.338
2.528,-0.331
2.529,-0.322
2.530,-0.306
2.531,-0.294
2.532,-0.275
2.533,-0.259
2.534,-0.244
2.535,-0.231
2.536,-0.220
2.537,-0.209
2.538,-0.191
2.539,-0.178
2.540,-0.163
2.541,-0.144
2.542,-0.136
2.543,-0.125
2.544,-0.129
2.545,-0.134
2.546,-0.127
2.547,-0.125
2.548,-0.122
2.549,-0.116
2.550,-0.114
2.551,-0.113
2.552,-0.109
2.553,-0.109
2.554,-0.109
2.555,-0.113
2.556,-0.113
2.557,-0.113
2.558,-0.096
2.559,-0.088
2.560,-0.089
2.561,-0.091
2.562,-0.091
2.563,-0.091
2.564,-0.091
2.565,-0.094
2.566,-0.093
2.567,-0.084
2.568,-0.089
2.569,-0.091
2.570,-0.095
2.571,-0.100
2.572,-0.097
2.573,-0.097
2.574,-0.094
2.575,-0.094
2.576,-0.089
2.577,-0.084
2.578,-0.084
2.579,-0.088
2.580,-0.089
2.581,-0.091
2.582,-0.084
2.583,-0.078
2.584,-0.078
2.585,-0.078
2.586,-0.068
2.587,-0.066
2.588,-0.068
2.589,-0.066
2.590,-0.061
2.591,-0.056
2.592,-0.057
2.593,-0.059
2.594,-0.063
2.595,-0.063
2.596,-0.059
2.597,-0.056
2.598,-0.056
2.599,-0.056
2.600,-0.047
2.601,-0.041
2.602,-0.038
2.603,-0.034
2.604,-0.033
2.605,-0.031
2.606,-0.033
2.607,-0.034
2.608,-0.036
2.609,-0.034
2.610,-0.034
2.611,-0.038
2.612,-0.038
2.613,-0.041
2.614,-0.038
2.615,-0.034
2.616,-0.027
2.617,-0.019
2.618,-0.014
2.619,-0.016
2.620,-0.008
2.621,-0.009
2.622,-0.013
2.623,-0.016
2.624,-0.014
2.625,-0.013
2.626,-0.003
2.627,0.006
2.628,0.000
2.629,0.006
2.630,0.002
2.631,0.003
2.632,0.005
2.633,0.012
2.634,0.016
2.635,0.019
2.636,0.022
2.637,0.025
2.638,0.029
2.639,0.038
2.640,0.047
2.641,0.056
2.642,0.055
2.643,0.056
2.644,0.053
2.645,0.056
2.646,0.052
2.647,0.047
2.648,0.051
2.649,0.056
2.650,0.057
2.651,0.066
2.652,0.073
2.653,0.081
2.654,0.081
2.655,0.087
2.656,0.086
2.657,0.091
2.658,0.098
2.659,0.106
2.660,0.116
2.661,0.122
2.662,0.119
2.663,0.122
2.664,0.117
2.665,0.116
2.666,0.114
2.667,0.113
2.668,0.119
2.669,0.128
2.670,0.130
2.671,0.134
2.672,0.137
2.673,0.144
2.674,0.142
2.675,0.141
2.676,0.141
2.677,0.137
2.678,0.142
2.679,0.147
2.680,0.146
2.681,0.144
2.682,0.142
2.683,0.144
2.684,0.148
2.685,0.159
2.686,0.162
2.687,0.162
2.688,0.161
2.689,0.159
2.690,0.161
2.691,0.156
2.692,0.162
2.693,0.169
2.694,0.169
2.695,0.172
2.696,0.168
2.697,0.169
2.698,0.175
2.699,0.178
2.700,0.177
2.701,0.178
2.702,0.180
2.703,0.175
2.704,0.179
2.705,0.178
2.706,0.177
2.707,0.175
2.708,0.172
2.709,0.172
2.710,0.173
2.711,0.172
2.712,0.174
2.713,0.175
2.714,0.171
2.715,0.172
2.716,0.169
2.717,0.172
2.718,0.173
2.719,0.169
2.720,0.168
2.721,0.162
2.722,0.161
2.723,0.159
2.724,0.159
2.725,0.156
2.726,0.152
2.727,0.144
2.728,0.147
2.729,0.150
2.730,0.141
2.731,0.134
2.732,0.131
2.733,0.125
2.734,0.123
2.735,0.125
2.736,0.126
2.737,0.125
2.738,0.131
2.739,0.134
2.740,0.136
2.741,0.128
2.742,0.125
2.743,0.122
2.744,0.106
2.745,0.097
2.746,0.087
2.747,0.078
2.748,0.075
2.749,0.072
2.750,0.071
2.751,0.062
2.752,0.056
2.753,0.050
2.754,0.039
2.755,0.028
2.756,0.018
2.757,0.012
2.758,0.006
2.759,0.000
2.760,-0.011
2.761,-0.019
2.762,-0.021
2.763,-0.022
2.764,-0.024
2.765,-0.025
2.766,-0.033
2.767,-0.038
2.768,-0.038
2.769,-0.034
2.770,-0.044
2.771,-0.053
2.772,-0.059
2.773,-0.059
2.774,-0.064
2.775,-0.066
2.776,-0.066
2.777,-0.066
2.778,-0.064
2.779,-0.063
2.780,-0.067
2.781,-0.075
2.782,-0.081
2.783,-0.091
2.784,-0.097
2.785,-0.103
2.786,-0.102
2.787,-0.094
2.788,-0.093
2.789,-0.094
2.790,-0.101
2.791,-0.109
2.792,-0.116
2.793,-0.125
2.794,-0.131
2.795,-0.131
2.796,-0.125
2.797,-0.125
2.798,-0.119
2.799,-0.119
2.800,-0.117
2.801,-0.122
2.802,-0.123
2.803,-0.128
2.804,-0.125
2.805,-0.125
2.806,-0.126
2.807,-0.131
2.808,-0.132
2.809,-0.134
2.810,-0.138
2.811,-0.138
2.812,-0.142
2.813,-0.150
2.814,-0.154
2.815,-0.156
2.816,-0.152
2.817,-0.147
2.818,-0.149
2.819,-0.147
2.820,-0.138
2.821,-0.128
2.822,-0.130
2.823,-0.128
2.824,-0.130
2.825,-0.125
2.826,-0.128
2.827,-0.131
2.828,-0.136
2.829,-0.150
2.830,-0.153
2.831,-0.153
2.832,-0.146
2.833,-0.138
2.834,-0.144
2.835,-0.150
2.836,-0.154
2.837,-0.159
2.838,-0.156
2.839,-0.156
2.840,-0.158
2.841,-0.166
2.842,-0.166
2.843,-0.166
2.844,-0.158
2.845,-0.150
2.846,-0.131
2.847,-0.113
2.848,-0.117
2.849,-0.119
2.850,-0.131
2.851,-0.144
2.852,-0.134
2.853,-0.125
2.854,-0.124
2.855,-0.116
2.856,-0.116
2.857,-0.119
2.858,-0.123
2.859,-0.119
2.860,-0.118
2.861,-0.109
2.862,-0.106
2.863,-0.103
2.864,-0.106
2.865,-0.106
2.866,-0.103
2.867,-0.103
2.868,-0.105
2.869,-0.100
2.870,-0.099
2.871,-0.094
2.872,-0.101
2.873,-0.106
2.874,-0.109
2.875,-0.116
2.876,-0.108
2.877,-0.109
2.878,-0.111
2.879,-0.106
2.880,-0.105
2.881,-0.109
2.882,-0.100
2.883,-0.094
2.884,-0.088
2.885,-0.084
2.886,-0.084
2.887,-0.084
2.888,-0.084
2.889,-0.081
2.890,-0.086
2.891,-0.084
2.892,-0.089
2.893,-0.088
2.894,-0.094
2.895,-0.097
2.896,-0.106
2.897,-0.116
2.898,-0.125
2.899,-0.131
2.900,-0.131
2.901,-0.131
2.902,-0.122
2.903,-0.113
2.904,-0.109
2.905,-0.109
2.906,-0.106
2.907,-0.106
2.908,-0.100
2.909,-0.088
2.910,-0.077
2.911,-0.072
2.912,-0.073
2.913,-0.075
2.914,-0.072
2.915,-0.078
2.916,-0.075
2.917,-0.081
2.918,-0.084
2.919,-0.084
2.920,-0.094
2.921,-0.100
2.922,-0.103
2.923,-0.103
2.924,-0.099
2.925,-0.100
2.926,-0.106
2.927,-0.109
2.928,-0.114
2.929,-0.122
2.930,-0.122
2.931,-0.122
2.932,-0.114
2.933,-0.109
2.934,-0.106
2.935,-0.103
2.936,-0.103
2.937,-0.103
2.938,-0.103
2.939,-0.103
2.940,-0.106
2.941,-0.106
2.942,-0.111
2.943,-0.109
2.944,-0.109
2.945,-0.113
2.946,-0.109
2.947,-0.113
2.948,-0.108
2.949,-0.106
2.950,-0.100
2.951,-0.094
2.952,-0.098
2.953,-0.103
2.954,-0.103
2.955,-0.103
2.956,-0.117
2.957,-0.131
2.958,-0.136
2.959,-0.128
2.960,-0.121
2.961,-0.113
2.962,-0.108
2.963,-0.106
2.964,-0.108
2.965,-0.109
2.966,-0.106
2.967,-0.103
2.968,-0.096
2.969,-0.091
2.970,-0.084
2.971,-0.078
2.972,-0.069
2.973,-0.069
2.974,-0.066
2.975,-0.059
2.976,-0.050
2.977,-0.047
2.978,-0.041
2.979,-0.038
2.980,-0.034
2.981,-0.028
2.982,-0.026
2.983,-0.022
2.984,-0.016
2.985,-0.019
2.986,-0.025
2.987,-0.028
2.988,-0.033
2.989,-0.031
2.990,-0.029
2.991,-0.031
2.992,-0.025
2.993,-0.019
2.994,-0.005
2.995,0.009
2.996,0.017
2.997,0.025
2.998,0.018
2.999,0.022
3.000,0.036
3.001,0.050
3.002,0.061
3.003,0.069
3.004,0.071
3.005,0.069
3.006,0.066
3.007,0.066
3.008,0.066
3.009,0.069
3.010,0.073
3.011,0.081
3.012,0.082
3.013,0.091
3.014,0.089
3.015,0.087
3.016,0.083
3.017,0.081
3.018,0.078
3.019,0.078
3.020,0.080
3.021,0.084
3.022,0.093
3.023,0.094
3.024,0.098
3.025,0.100
3.026,0.103
3.027,0.109
3.028,0.104
3.029,0.106
3.030,0.098
3.031,0.091
3.032,0.082
3.033,0.072
3.034,0.058
3.035,0.041
3.036,0.042
3.037,0.038
3.038,0.029
3.039,0.025
3.040,0.021
3.041,0.003
3.042,-0.013
3.043,-0.022
3.044,-0.036
3.045,-0.050
3.046,-0.061
3.047,-0.072
3.048,-0.089
3.049,-0.106
3.050,-0.113
3.051,-0.122
3.052,-0.121
3.053,-0.125
3.054,-0.128
3.055,-0.125
3.056,-0.136
3.057,-0.144
3.058,-0.145
3.059,-0.153
3.060,-0.161
3.061,-0.166
3.062,-0.163
3.063,-0.163
3.064,-0.163
3.065,-0.163
3.066,-0.159
3.067,-0.159
3.068,-0.156
3.069,-0.156
3.070,-0.150
3.071,-0.147
3.072,-0.143
3.073,-0.138
3.074,-0.147
3.075,-0.150
3.076,-0.154
3.077,-0.156
3.078,-0.158
3.079,-0.159
3.080,-0.161
3.081,-0.163
3.082,-0.163
3.083,-0.163
3.084,-0.158
3.085,-0.156
3.086,-0.158
3.087,-0.163
3.088,-0.166
3.089,-0.166
3.090,-0.166
3.091,-0.172
3.092,-0.173
3.093,-0.175
3.094,-0.164
3.095,-0.163
3.096,-0.166
3.097,-0.169
3.098,-0.168
3.099,-0.163
3.100,-0.168
3.101,-0.175
3.102,-0.188
3.103,-0.200
3.104,-0.211
3.105,-0.222
3.106,-0.231
3.107,-0.238
3.108,-0.239
3.109,-0.241
3.110,-0.234
3.111,-0.231
3.112,-0.209
3.113,-0.188
3.114,-0.150
3.115,-0.116
3.116,-0.063
3.117,-0.009
3.118,0.059
3.119,0.128
3.120,0.195
3.121,0.259
3.122,0.325
3.123,0.391
3.124,0.459
3.125,0.534
3.126,0.625
3.127,0.716
3.128,0.806
3.129,0.894
3.130,0.972
3.131,1.050
3.132,1.114
3.133,1.172
3.134,1.211
3.135,1.244
3.136,1.284
3.137,1.328
3.138,1.384
3.139,1.447
3.140,1.494
3.141,1.534
3.142,1.547
3.143,1.556
3.144,1.531
3.145,1.484
3.146,1.362
3.147,1.225
3.148,1.070
3.149,0.919
3.150,0.786
3.151,0.659
3.152,0.539
3.153,0.422
3.154,0.323
3.155,0.234
3.156,0.152
3.157,0.078
3.158,0.022
3.159,-0.028
3.160,-0.064
3.161,-0.100
3.162,-0.145
3.163,-0.194
3.164,-0.234
3.165,-0.281
3.166,-0.323
3.167,-0.347
3.168,-0.366
3.169,-0.381
3.170,-0.383
3.171,-0.384
3.172,-0.378
3.173,-0.375
3.174,-0.359
3.175,-0.341
3.176,-0.328
3.177,-0.313
3.178,-0.302
3.179,-0.294
3.180,-0.275
3.181,-0.259
3.182,-0.238
3.183,-0.219
3.184,-0.200
3.185,-0.181
3.186,-0.171
3.187,-0.166
3.188,-0.164
3.189,-0.159
3.190,-0.154
3.191,-0.147
3.192,-0.146
3.193,-0.144
3.194,-0.142
3.195,-0.147
3.196,-0.150
3.197,-0.150
3.198,-0.144
3.199,-0.138
3.200,-0.130
3.201,-0.125
3.202,-0.122
3.203,-0.122
3.204,-0.121
3.205,-0.119
3.206,-0.106
3.207,-0.103
3.208,-0.105
3.209,-0.106
3.210,-0.111
3.211,-0.116
3.212,-0.113
3.213,-0.113
3.214,-0.116
3.215,-0.113
3.216,-0.116
3.217,-0.116
3.218,-0.113
3.219,-0.109
3.220,-0.099
3.221,-0.091
3.222,-0.088
3.223,-0.088
3.224,-0.091
3.225,-0.094
3.226,-0.100
3.227,-0.109
3.228,-0.109
3.229,-0.109
3.230,-0.097
3.231,-0.084
3.232,-0.075
3.233,-0.066
3.234,-0.059
3.235,-0.063
3.236,-0.075
3.237,-0.084
3.238,-0.084
3.239,-0.084
3.240,-0.081
3.241,-0.078
3.242,-0.080
3.243,-0.078
3.244,-0.075
3.245,-0.072
3.246,-0.072
3.247,-0.072
3.248,-0.066
3.249,-0.063
3.250,-0.056
3.251,-0.050
3.252,-0.048
3.253,-0.047
3.254,-0.046
3.255,-0.044
3.256,-0.044
3.257,-0.041
3.258,-0.044
3.259,-0.050
3.260,-0.048
3.261,-0.050
3.262,-0.049
3.263,-0.047
3.264,-0.039
3.265,-0.031
3.266,-0.034
3.267,-0.044
3.268,-0.036
3.269,-0.038
3.270,-0.036
3.271,-0.034
3.272,-0.027
3.273,-0.019
3.274,-0.014
3.275,-0.009
3.276,-0.016
3.277,-0.009
3.278,-0.008
3.279,0.000
3.280,0.000
3.281,0.006
3.282,0.008
3.283,0.009
3.284,0.006
3.285,0.003
3.286,0.000
3.287,0.000
3.288,0.000
3.289,0.000
3.290,0.002
3.291,0.006
3.292,0.003
3.293,0.006
3.294,0.011
3.295,0.016
3.296,0.025
3.297,0.034
3.298,0.036
3.299,0.044
3.300,0.049
3.301,0.053
3.302,0.061
3.303,0.075
3.304,0.074
3.305,0.078
3.306,0.078
3.307,0.078
3.308,0.080
3.309,0.078
3.310,0.081
3.311,0.091
3.312,0.091
3.313,0.094
3.314,0.093
3.315,0.091
3.316,0.089
3.317,0.091
3.318,0.094
3.319,0.100
3.320,0.104
3.321,0.113
3.322,0.116
3.323,0.119
3.324,0.119
3.325,0.116
3.326,0.111
3.327,0.106
3.328,0.109
3.329,0.113
3.330,0.116
3.331,0.122
3.332,0.122
3.333,0.128
3.334,0.132
3.335,0.134
3.336,0.134
3.337,0.134
3.338,0.139
3.339,0.137
3.340,0.137
3.341,0.137
3.342,0.141
3.343,0.147
3.344,0.147
3.345,0.153
3.346,0.155
3.347,0.153
3.348,0.152
3.349,0.153
3.350,0.153
3.351,0.147
3.352,0.147
3.353,0.141
3.354,0.141
3.355,0.141
3.356,0.145
3.357,0.153
3.358,0.157
3.359,0.159
3.360,0.156
3.361,0.153
3.362,0.150
3.363,0.153
3.364,0.148
3.365,0.150
3.366,0.151
3.367,0.147
3.368,0.148
3.369,0.147
3.370,0.146
3.371,0.144
3.372,0.145
3.373,0.144
3.374,0.145
3.375,0.144
3.376,0.139
3.377,0.134
3.378,0.122
3.379,0.113
3.380,0.111
3.381,0.106
3.382,0.102
3.383,0.100
3.384,0.097
3.385,0.091
3.386,0.091
3.387,0.087
3.388,0.089
3.389,0.081
3.390,0.079
3.391,0.078
3.392,0.070
3.393,0.069
3.394,0.067
3.395,0.066
3.396,0.066
3.397,0.066
3.398,0.062
3.399,0.053
3.400,0.042
3.401,0.031
3.402,0.029
3.403,0.028
3.404,0.019
3.405,0.016
3.406,0.008
3.407,0.000
3.408,-0.006
3.409,-0.009
3.410,-0.016
3.411,-0.022
3.412,-0.029
3.413,-0.038
3.414,-0.048
3.415,-0.056
3.416,-0.061
3.417,-0.063
3.418,-0.064
3.419,-0.066
3.420,-0.069
3.421,-0.066
3.422,-0.076
3.423,-0.084
3.424,-0.088
3.425,-0.091
3.426,-0.097
3.427,-0.103
3.428,-0.105
3.429,-0.109
3.430,-0.108
3.431,-0.109
3.432,-0.117
3.433,-0.125
3.434,-0.134
3.435,-0.138
3.436,-0.138
3.437,-0.141
3.438,-0.143
3.439,-0.144
3.440,-0.141
3.441,-0.141
3.442,-0.143
3.443,-0.138
3.444,-0.133
3.445,-0.134
3.446,-0.136
3.447,-0.144
3.448,-0.142
3.449,-0.147
3.450,-0.148
3.451,-0.153
3.452,-0.152
3.453,-0.153
3.454,-0.158
3.455,-0.166
3.456,-0.163
3.457,-0.159
3.458,-0.161
3.459,-0.159
3.460,-0.155
3.461,-0.153
3.462,-0.154
3.463,-0.153
3.464,-0.151
3.465,-0.150
3.466,-0.156
3.467,-0.159
3.468,-0.161
3.469,-0.163
3.470,-0.166
3.471,-0.166
3.472,-0.168
3.473,-0.163
3.474,-0.163
3.475,-0.163
3.476,-0.156
3.477,-0.159
3.478,-0.159
3.479,-0.156
3.480,-0.152
3.481,-0.147
3.482,-0.146
3.483,-0.144
3.484,-0.145
3.485,-0.147
3.486,-0.138
3.487,-0.131
3.488,-0.128
3.489,-0.131
3.490,-0.131
3.491,-0.131
3.492,-0.138
3.493,-0.144
3.494,-0.145
3.495,-0.147
3.496,-0.147
3.497,-0.144
3.498,-0.145
3.499,-0.147
3.500,-0.151
3.501,-0.156
3.502,-0.156
3.503,-0.150
3.504,-0.148
3.505,-0.150
3.506,-0.149
3.507,-0.138
3.508,-0.134
3.509,-0.125
3.510,-0.124
3.511,-0.122
3.512,-0.114
3.513,-0.103
3.514,-0.099
3.515,-0.097
3.516,-0.103
3.517,-0.103
3.518,-0.106
3.519,-0.106
3.520,-0.108
3.521,-0.106
3.522,-0.106
3.523,-0.109
3.524,-0.101
3.525,-0.103
3.526,-0.116
3.527,-0.122
3.528,-0.123
3.529,-0.131
3.530,-0.122
3.531,-0.116
3.532,-0.108
3.533,-0.103
3.534,-0.103
3.535,-0.103
3.536,-0.104
3.537,-0.103
3.538,-0.106
3.539,-0.109
3.540,-0.113
3.541,-0.113
3.542,-0.111
3.543,-0.109
3.544,-0.106
3.545,-0.103
3.546,-0.105
3.547,-0.106
3.548,-0.104
3.549,-0.103
3.550,-0.100
3.551,-0.094
3.552,-0.094
3.553,-0.088
3.554,-0.091
3.555,-0.084
3.556,-0.086
3.557,-0.088
3.558,-0.094
3.559,-0.103
3.560,-0.104
3.561,-0.106
3.562,-0.109
3.563,-0.113
3.564,-0.117
3.565,-0.122
3.566,-0.116
3.567,-0.109
3.568,-0.109
3.569,-0.109
3.570,-0.120
3.571,-0.122
3.572,-0.119
3.573,-0.119
3.574,-0.122
3.575,-0.125
3.576,-0.126
3.577,-0.128
3.578,-0.129
3.579,-0.134
3.580,-0.125
3.581,-0.119
3.582,-0.109
3.583,-0.103
3.584,-0.105
3.585,-0.100
3.586,-0.100
3.587,-0.094
3.588,-0.100
3.589,-0.103
3.590,-0.103
3.591,-0.106
3.592,-0.105
3.593,-0.103
3.594,-0.100
3.595,-0.100
3.596,-0.103
3.597,-0.106
3.598,-0.098
3.599,-0.103
3.600,-0.106
3.601,-0.103
3.602,-0.103
3.603,-0.103
3.604,-0.106
3.605,-0.106
3.606,-0.108
3.607,-0.106
3.608,-0.100
3.609,-0.094
3.610,-0.088
3.611,-0.075
3.612,-0.068
3.613,-0.056
3.614,-0.051
3.615,-0.044
3.616,-0.047
3.617,-0.044
3.618,-0.034
3.619,-0.028
3.620,-0.019
3.621,-0.013
3.622,-0.011
3.623,-0.009
3.624,-0.011
3.625,-0.013
3.626,-0.014
3.627,-0.016
3.628,-0.013
3.629,-0.013
3.630,-0.014
3.631,-0.009
3.632,-0.003
3.633,0.003
3.634,0.008
3.635,0.012
3.636,0.016
3.637,0.012
3.638,0.022
3.639,0.025
3.640,0.045
3.641,0.069
3.642,0.076
3.643,0.081
3.644,0.078
3.645,0.075
3.646,0.075
3.647,0.072
3.648,0.078
3.649,0.078
3.650,0.077
3.651,0.075
3.652,0.084
3.653,0.081
3.654,0.078
3.655,0.078
3.656,0.082
3.657,0.091
3.658,0.094
3.659,0.094
3.660,0.096
3.661,0.100
3.662,0.103
3.663,0.106
3.664,0.106
3.665,0.106
3.666,0.111
3.667,0.106
3.668,0.106
3.669,0.097
3.670,0.086
3.671,0.072
3.672,0.061
3.673,0.053
3.674,0.039
3.675,0.041
3.676,0.034
3.677,0.022
3.678,0.014
3.679,0.012
3.680,-0.004
3.681,-0.019
3.682,-0.033
3.683,-0.053
3.684,-0.066
3.685,-0.075
3.686,-0.083
3.687,-0.091
3.688,-0.097
3.689,-0.097
3.690,-0.100
3.691,-0.100
3.692,-0.111
3.693,-0.116
3.694,-0.113
3.695,-0.119
3.696,-0.126
3.697,-0.131
3.698,-0.133
3.699,-0.134
3.700,-0.136
3.701,-0.131
3.702,-0.136
3.703,-0.141
3.704,-0.144
3.705,-0.147
3.706,-0.149
3.707,-0.147
3.708,-0.147
3.709,-0.144
3.710,-0.150
3.711,-0.153
3.712,-0.161
3.713,-0.172
3.714,-0.175
3.715,-0.181
3.716,-0.181
3.717,-0.184
3.718,-0.177
3.719,-0.169
3.720,-0.166
3.721,-0.163
3.722,-0.161
3.723,-0.159
3.724,-0.163
3.725,-0.163
3.726,-0.164
3.727,-0.166
3.728,-0.166
3.729,-0.163
3.730,-0.166
3.731,-0.166
3.732,-0.166
3.733,-0.156
3.734,-0.158
3.735,-0.163
3.736,-0.170
3.737,-0.178
3.738,-0.177
3.739,-0.181
3.740,-0.191
3.741,-0.197
3.742,-0.199
3.743,-0.206
3.744,-0.214
3.745,-0.222
3.746,-0.228
3.747,-0.225
3.748,-0.222
3.749,-0.213
3.750,-0.205
3.751,-0.181
3.752,-0.152
3.753,-0.100
3.754,-0.067
3.755,-0.019
3.756,0.028
3.757,0.087
3.758,0.149
3.759,0.209
3.760,0.269
3.761,0.338
3.762,0.405
3.763,0.475
3.764,0.556
3.765,0.647
3.766,0.733
3.767,0.816
3.768,0.899
3.769,0.978
3.770,1.058
3.771,1.131
3.772,1.199
3.773,1.244
3.774,1.281
3.775,1.316
3.776,1.353
3.777,1.403
3.778,1.461
3.779,1.506
3.780,1.554
3.781,1.566
3.782,1.567
3.783,1.550
3.784,1.508
3.785,1.384
3.786,1.250
3.787,1.081
3.788,0.908
3.789,0.759
3.790,0.626
3.791,0.506
3.792,0.386
3.793,0.281
3.794,0.183
3.795,0.106
3.796,0.041
3.797,-0.006
3.798,-0.044
3.799,-0.078
3.800,-0.126
3.801,-0.175
3.802,-0.217
3.803,-0.256
3.804,-0.284
3.805,-0.309
3.806,-0.331
3.807,-0.341
3.808,-0.353
3.809,-0.359
3.810,-0.355
3.811,-0.344
3.812,-0.347
3.813,-0.341
3.814,-0.333
3.815,-0.334
3.816,-0.319
3.817,-0.303
3.818,-0.296
3.819,-0.275
3.820,-0.258
3.821,-0.241
3.822,-0.231
3.823,-0.216
3.824,-0.200
3.825,-0.194
3.826,-0.191
3.827,-0.184
3.828,-0.175
3.829,-0.169
3.830,-0.158
3.831,-0.156
3.832,-0.153
3.833,-0.147
3.834,-0.149
3.835,-0.141
3.836,-0.125
3.837,-0.113
3.838,-0.103
3.839,-0.097
3.840,-0.094
3.841,-0.091
3.842,-0.095
3.843,-0.097
3.844,-0.104
3.845,-0.103
3.846,-0.102
3.847,-0.103
3.848,-0.109
3.849,-0.109
3.850,-0.108
3.851,-0.106
3.852,-0.109
3.853,-0.113
3.854,-0.109
3.855,-0.113
3.856,-0.109
3.857,-0.106
3.858,-0.099
3.859,-0.094
3.860,-0.094
3.861,-0.088
3.862,-0.083
3.863,-0.078
3.864,-0.074
3.865,-0.072
3.866,-0.078
3.867,-0.078
3.868,-0.084
3.869,-0.084
3.870,-0.081
3.871,-0.081
3.872,-0.084
3.873,-0.081
3.874,-0.080
3.875,-0.081
3.876,-0.086
3.877,-0.088
3.878,-0.083
3.879,-0.081
3.880,-0.077
3.881,-0.075
3.882,-0.076
3.883,-0.078
3.884,-0.078
3.885,-0.078
3.886,-0.078
3.887,-0.072
3.888,-0.064
3.889,-0.056
3.890,-0.053
3.891,-0.050
3.892,-0.048
3.893,-0.050
3.894,-0.051
3.895,-0.053
3.896,-0.050
3.897,-0.050
3.898,-0.052
3.899,-0.047
3.900,-0.046
3.901,-0.044
3.902,-0.044
3.903,-0.038
3.904,-0.033
3.905,-0.031
3.906,-0.031
3.907,-0.022
3.908,-0.025
3.909,-0.025
3.910,-0.031
3.911,-0.034
3.912,-0.036
3.913,-0.038
3.914,-0.034
3.915,-0.041
3.916,-0.034
3.917,-0.034
3.918,-0.031
3.919,-0.031
3.920,-0.018
3.921,-0.006
3.922,0.000
3.923,0.000
3.924,-0.004
3.925,-0.009
3.926,-0.003
3.927,0.003
3.928,0.012
3.929,0.022
3.930,0.031
3.931,0.034
3.932,0.050
3.933,0.062
3.934,0.064
3.935,0.066
3.936,0.059
3.937,0.050
3.938,0.055
3.939,0.059
3.940,0.066
3.941,0.066
3.942,0.069
3.943,0.066
3.944,0.071
3.945,0.072
3.946,0.079
3.947,0.087
3.948,0.097
3.949,0.106
3.950,0.113
3.951,0.109
3.952,0.105
3.953,0.103
3.954,0.106
3.955,0.113
3.956,0.117
3.957,0.116
3.958,0.123
3.959,0.128
3.960,0.134
3.961,0.134
3.962,0.136
3.963,0.141
3.964,0.137
3.965,0.137
3.966,0.131
3.967,0.125
3.968,0.125
3.969,0.122
3.970,0.125
3.971,0.122
3.972,0.128
3.973,0.134
3.974,0.133
3.975,0.131
3.976,0.128
3.977,0.128
3.978,0.128
3.979,0.134
3.980,0.150
3.981,0.162
3.982,0.169
3.983,0.169
3.984,0.161
3.985,0.153
3.986,0.152
3.987,0.150
3.988,0.152
3.989,0.153
3.990,0.154
3.991,0.159
3.992,0.154
3.993,0.156
3.994,0.150
3.995,0.144
3.996,0.142
3.997,0.137
3.998,0.133
3.999,0.134
4.000,0.139
4.001,0.137
4.002,0.139
4.003,0.131
4.004,0.128
4.005,0.125
4.006,0.122
4.007,0.125
4.008,0.136
4.009,0.150
4.010,0.149
4.011,0.147
4.012,0.142
4.013,0.141
4.014,0.134
4.015,0.128
4.016,0.124
4.017,0.116
4.018,0.120
4.019,0.128
4.020,0.125
4.021,0.122
4.022,0.116
4.023,0.106
4.024,0.100
4.025,0.100
4.026,0.093
4.027,0.087
4.028,0.079
4.029,0.075
4.030,0.078
4.031,0.078
4.032,0.075
4.033,0.069
4.034,0.058
4.035,0.050
4.036,0.048
4.037,0.050
4.038,0.047
4.039,0.041
4.040,0.031
4.041,0.025
4.042,0.022
4.043,0.016
4.044,0.012
4.045,0.006
4.046,0.004
4.047,0.000
4.048,-0.008
4.049,-0.016
4.050,-0.034
4.051,-0.050
4.052,-0.054
4.053,-0.063
4.054,-0.067
4.055,-0.072
4.056,-0.072
4.057,-0.081
4.058,-0.086
4.059,-0.088
4.060,-0.084
4.061,-0.088
4.062,-0.091
4.063,-0.094
4.064,-0.098
4.065,-0.100
4.066,-0.094
4.067,-0.091
4.068,-0.096
4.069,-0.094
4.070,-0.098
4.071,-0.106
4.072,-0.116
4.073,-0.122
4.074,-0.122
4.075,-0.128
4.076,-0.133
4.077,-0.134
4.078,-0.141
4.079,-0.144
4.080,-0.148
4.081,-0.156
4.082,-0.158
4.083,-0.156
4.084,-0.158
4.085,-0.156
4.086,-0.161
4.087,-0.156
4.088,-0.161
4.089,-0.163
4.090,-0.164
4.091,-0.163
4.092,-0.167
4.093,-0.169
4.094,-0.178
4.095,-0.184
4.096,-0.178
4.097,-0.175
4.098,-0.172
4.099,-0.169
4.100,-0.168
4.101,-0.163
4.102,-0.164
4.103,-0.166
4.104,-0.161
4.105,-0.163
4.106,-0.166
4.107,-0.166
4.108,-0.166
4.109,-0.172
4.110,-0.171
4.111,-0.172
4.112,-0.168
4.113,-0.166
4.114,-0.164
4.115,-0.159
4.116,-0.156
4.117,-0.150
4.118,-0.149
4.119,-0.144
4.120,-0.153
4.121,-0.169
4.122,-0.183
4.123,-0.191
4.124,-0.191
4.125,-0.191
4.126,-0.183
4.127,-0.172
4.128,-0.166
4.129,-0.156
4.130,-0.156
4.131,-0.156
4.132,-0.159
4.133,-0.159
4.134,-0.156
4.135,-0.159
4.136,-0.163
4.137,-0.166
4.138,-0.164
4.139,-0.159
4.140,-0.146
4.141,-0.138
4.142,-0.138
4.143,-0.138
4.144,-0.134
4.145,-0.134
4.146,-0.131
4.147,-0.138
4.148,-0.138
4.149,-0.141
4.150,-0.139
4.151,-0.138
4.152,-0.134
4.153,-0.131
4.154,-0.131
4.155,-0.134
4.156,-0.131
4.157,-0.131
4.158,-0.125
4.159,-0.122
4.160,-0.116
4.161,-0.113
4.162,-0.116
4.163,-0.106
4.164,-0.103
4.165,-0.106
4.166,-0.111
4.167,-0.116
4.168,-0.121
4.169,-0.116
4.170,-0.113
4.171,-0.106
4.172,-0.106
4.173,-0.106
4.174,-0.108
4.175,-0.109
4.176,-0.109
4.177,-0.113
4.178,-0.111
4.179,-0.122
4.180,-0.119
4.181,-0.119
4.182,-0.118
4.183,-0.116
4.184,-0.111
4.185,-0.109
4.186,-0.102
4.187,-0.094
4.188,-0.103
4.189,-0.109
4.190,-0.114
4.191,-0.125
4.192,-0.126
4.193,-0.128
4.194,-0.128
4.195,-0.128
4.196,-0.127
4.197,-0.125
4.198,-0.126
4.199,-0.128
4.200,-0.122
4.201,-0.119
4.202,-0.119
4.203,-0.122
4.204,-0.126
4.205,-0.125
4.206,-0.119
4.207,-0.119
4.208,-0.123
4.209,-0.128
4.210,-0.123
4.211,-0.128
4.212,-0.125
4.213,-0.131
4.214,-0.133
4.215,-0.131
4.216,-0.125
4.217,-0.116
4.218,-0.119
4.219,-0.119
4.220,-0.119
4.221,-0.125
4.222,-0.127
4.223,-0.125
4.224,-0.124
4.225,-0.125
4.226,-0.129
4.227,-0.134
4.228,-0.131
4.229,-0.131
4.230,-0.125
4.231,-0.119
4.232,-0.118
4.233,-0.116
4.234,-0.119
4.235,-0.122
4.236,-0.125
4.237,-0.125
4.238,-0.131
4.239,-0.131
4.240,-0.125
4.241,-0.122
4.242,-0.116
4.243,-0.116
4.244,-0.114
4.245,-0.116
4.246,-0.117
4.247,-0.119
4.248,-0.119
4.249,-0.119
4.250,-0.122
4.251,-0.125
4.252,-0.127
4.253,-0.128
4.254,-0.134
4.255,-0.128
4.256,-0.130
4.257,-0.131
4.258,-0.128
4.259,-0.128
4.260,-0.121
4.261,-0.113
4.262,-0.113
4.263,-0.113
4.264,-0.105
4.265,-0.100
4.266,-0.097
4.267,-0.094
4.268,-0.086
4.269,-0.088
4.270,-0.086
4.271,-0.081
4.272,-0.073
4.273,-0.072
4.274,-0.070
4.275,-0.072
4.276,-0.069
4.277,-0.063
4.278,-0.055
4.279,-0.044
4.280,-0.033
4.281,-0.031
4.282,-0.034
4.283,-0.034
4.284,-0.030
4.285,-0.019
4.286,-0.016
4.287,-0.016
4.288,-0.013
4.289,-0.009
4.290,-0.002
4.291,0.006
4.292,0.008
4.293,0.009
4.294,-0.003
4.295,-0.003
4.296,0.000
4.297,0.003
4.298,0.016
4.299,0.025
4.300,0.034
4.301,0.041
4.302,0.039
4.303,0.041
4.304,0.044
4.305,0.050
4.306,0.056
4.307,0.066
4.308,0.067
4.309,0.075
4.310,0.075
4.311,0.075
4.312,0.061
4.313,0.050
4.314,0.046
4.315,0.044
4.316,0.047
4.317,0.053
4.318,0.062
4.319,0.066
4.320,0.067
4.321,0.066
4.322,0.073
4.323,0.084
4.324,0.082
4.325,0.087
4.326,0.082
4.327,0.078
4.328,0.066
4.329,0.050
4.330,0.034
4.331,0.016
4.332,0.022
4.333,0.022
4.334,0.008
4.335,-0.003
4.336,-0.002
4.337,-0.013
4.338,-0.034
4.339,-0.050
4.340,-0.066
4.341,-0.081
4.342,-0.091
4.343,-0.100
4.344,-0.109
4.345,-0.119
4.346,-0.121
4.347,-0.125
4.348,-0.125
4.349,-0.131
4.350,-0.141
4.351,-0.144
4.352,-0.151
4.353,-0.156
4.354,-0.156
4.355,-0.163
4.356,-0.166
4.357,-0.166
4.358,-0.167
4.359,-0.172
4.360,-0.175
4.361,-0.178
4.362,-0.174
4.363,-0.172
4.364,-0.172
4.365,-0.175
4.366,-0.174
4.367,-0.175
4.368,-0.172
4.369,-0.169
4.370,-0.169
4.371,-0.163
4.372,-0.161
4.373,-0.156
4.374,-0.159
4.375,-0.163
4.376,-0.169
4.377,-0.175
4.378,-0.175
4.379,-0.175
4.380,-0.172
4.381,-0.172
4.382,-0.172
4.383,-0.175
4.384,-0.181
4.385,-0.184
4.386,-0.180
4.387,-0.181
4.388,-0.178
4.389,-0.175
4.390,-0.164
4.391,-0.163
4.392,-0.161
4.393,-0.159
4.394,-0.161
4.395,-0.159
4.396,-0.172
4.397,-0.188
4.398,-0.195
4.399,-0.203
4.400,-0.209
4.401,-0.216
4.402,-0.225
4.403,-0.231
4.404,-0.234
4.405,-0.238
4.406,-0.234
4.407,-0.234
4.408,-0.216
4.409,-0.197
4.410,-0.159
4.411,-0.125
4.412,-0.068
4.413,-0.009
4.414,0.061
4.415,0.131
4.416,0.200
4.417,0.266
4.418,0.328
4.419,0.391
4.420,0.459
4.421,0.534
4.422,0.624
4.423,0.712
4.424,0.801
4.425,0.887
4.426,0.966
4.427,1.044
4.428,1.112
4.429,1.175
4.430,1.214
4.431,1.247
4.432,1.291
4.433,1.337
4.434,1.389
4.435,1.447
4.436,1.483
4.437,1.512
4.438,1.526
4.439,1.537
4.440,1.522
4.441,1.484
4.442,1.362
4.443,1.225
4.444,1.066
4.445,0.909
4.446,0.775
4.447,0.647
4.448,0.529
4.449,0.416
4.450,0.312
4.451,0.219
4.452,0.145
4.453,0.081
4.454,0.036
4.455,-0.003
4.456,-0.048
4.457,-0.094
4.458,-0.142
4.459,-0.194
4.460,-0.227
4.461,-0.266
4.462,-0.308
4.463,-0.331
4.464,-0.347
4.465,-0.359
4.466,-0.361
4.467,-0.363
4.468,-0.355
4.469,-0.350
4.470,-0.344
4.471,-0.334
4.472,-0.329
4.473,-0.322
4.474,-0.311
4.475,-0.303
4.476,-0.284
4.477,-0.269
4.478,-0.250
4.479,-0.234
4.480,-0.217
4.481,-0.200
4.482,-0.183
4.483,-0.172
4.484,-0.164
4.485,-0.153
4.486,-0.151
4.487,-0.147
4.488,-0.146
4.489,-0.144
4.490,-0.141
4.491,-0.144
4.492,-0.138
4.493,-0.128
4.494,-0.123
4.495,-0.119
4.496,-0.117
4.497,-0.119
4.498,-0.114
4.499,-0.113
4.500,-0.113
4.501,-0.113
4.502,-0.104
4.503,-0.106
4.504,-0.102
4.505,-0.097
4.506,-0.093
4.507,-0.088
4.508,-0.092
4.509,-0.100
4.510,-0.106
4.511,-0.106
4.512,-0.109
4.513,-0.109
4.514,-0.105
4.515,-0.100
4.516,-0.097
4.517,-0.097
4.518,-0.094
4.519,-0.094
4.520,-0.094
4.521,-0.094
4.522,-0.094
4.523,-0.097
4.524,-0.096
4.525,-0.094
4.526,-0.091
4.527,-0.088
4.528,-0.089
4.529,-0.091
4.530,-0.083
4.531,-0.084
4.532,-0.083
4.533,-0.078
4.534,-0.076
4.535,-0.075
4.536,-0.068
4.537,-0.059
4.538,-0.064
4.539,-0.066
4.540,-0.072
4.541,-0.078
4.542,-0.083
4.543,-0.088
4.544,-0.080
4.545,-0.075
4.546,-0.069
4.547,-0.063
4.548,-0.059
4.549,-0.056
4.550,-0.055
4.551,-0.053
4.552,-0.056
4.553,-0.056
4.554,-0.055
4.555,-0.056
4.556,-0.050
4.557,-0.047
4.558,-0.048
4.559,-0.050
4.560,-0.047
4.561,-0.044
4.562,-0.038
4.563,-0.038
4.564,-0.031
4.565,-0.034
4.566,-0.036
4.567,-0.038
4.568,-0.036
4.569,-0.034
4.570,-0.030
4.571,-0.025
4.572,-0.034
4.573,-0.031
4.574,-0.031
4.575,-0.025
4.576,-0.023
4.577,-0.016
4.578,-0.008
4.579,0.000
4.580,0.004
4.581,0.009
4.582,0.008
4.583,0.009
4.584,0.014
4.585,0.019
4.586,0.026
4.587,0.038
4.588,0.033
4.589,0.034
4.590,0.033
4.591,0.031
4.592,0.031
4.593,0.031
4.594,0.032
4.595,0.041
4.596,0.047
4.597,0.053
4.598,0.052
4.599,0.056
4.600,0.056
4.601,0.062
4.602,0.067
4.603,0.072
4.604,0.078
4.605,0.081
4.606,0.084
4.607,0.094
4.608,0.089
4.609,0.087
4.610,0.091
4.611,0.094
4.612,0.100
4.613,0.109
4.614,0.114
4.615,0.122
4.616,0.122
4.617,0.125
4.618,0.131
4.619,0.137
4.620,0.141
4.621,0.141
4.622,0.139
4.623,0.137
4.624,0.136
4.625,0.134
4.626,0.141
4.627,0.150
4.628,0.146
4.629,0.147
4.630,0.147
4.631,0.144
4.632,0.145
4.633,0.147
4.634,0.153
4.635,0.153
4.636,0.155
4.637,0.156
4.638,0.153
4.639,0.153
4.640,0.147
4.641,0.147
4.642,0.153
4.643,0.156
4.644,0.153
4.645,0.153
4.646,0.159
4.647,0.159
4.648,0.162
4.649,0.159
4.650,0.162
4.651,0.166
4.652,0.170
4.653,0.178
4.654,0.178
4.655,0.175
4.656,0.175
4.657,0.175
4.658,0.171
4.659,0.172
4.660,0.170
4.661,0.175
4.662,0.178
4.663,0.175
4.664,0.174
4.665,0.169
4.666,0.161
4.667,0.153
4.668,0.152
4.669,0.147
4.670,0.150
4.671,0.150
4.672,0.148
4.673,0.147
4.674,0.142
4.675,0.141
4.676,0.137
4.677,0.131
4.678,0.131
4.679,0.134
4.680,0.127
4.681,0.116
4.682,0.111
4.683,0.103
4.684,0.104
4.685,0.097
4.686,0.095
4.687,0.094
4.688,0.087
4.689,0.087
4.690,0.080
4.691,0.072
4.692,0.067
4.693,0.062
4.694,0.059
4.695,0.050
4.696,0.044
4.697,0.038
4.698,0.034
4.699,0.031
4.700,0.021
4.701,0.016
4.702,0.014
4.703,0.012
4.704,0.004
4.705,0.000
4.706,-0.009
4.707,-0.019
4.708,-0.023
4.709,-0.028
4.710,-0.033
4.711,-0.034
4.712,-0.036
4.713,-0.034
4.714,-0.039
4.715,-0.044
4.716,-0.053
4.717,-0.056
4.718,-0.064
4.719,-0.069
4.720,-0.069
4.721,-0.069
4.722,-0.068
4.723,-0.066
4.724,-0.068
4.725,-0.072
4.726,-0.076
4.727,-0.084
4.728,-0.095
4.729,-0.106
4.730,-0.111
4.731,-0.109
4.732,-0.113
4.733,-0.119
4.734,-0.122
4.735,-0.125
4.736,-0.128
4.737,-0.134
4.738,-0.139
4.739,-0.138
4.740,-0.134
4.741,-0.138
4.742,-0.134
4.743,-0.138
4.744,-0.128
4.745,-0.125
4.746,-0.128
4.747,-0.134
4.748,-0.142
4.749,-0.153
4.750,-0.152
4.751,-0.153
4.752,-0.152
4.753,-0.150
4.754,-0.158
4.755,-0.163
4.756,-0.152
4.757,-0.144
4.758,-0.147
4.759,-0.147
4.760,-0.145
4.761,-0.144
4.762,-0.146
4.763,-0.144
4.764,-0.144
4.765,-0.144
4.766,-0.147
4.767,-0.147
4.768,-0.149
4.769,-0.144
4.770,-0.143
4.771,-0.141
4.772,-0.138
4.773,-0.144
4.774,-0.147
4.775,-0.147
4.776,-0.151
4.777,-0.156
4.778,-0.159
4.779,-0.163
4.780,-0.156
4.781,-0.150
4.782,-0.159
4.783,-0.172
4.784,-0.166
4.785,-0.166
4.786,-0.161
4.787,-0.156
4.788,-0.149
4.789,-0.141
4.790,-0.136
4.791,-0.131
4.792,-0.131
4.793,-0.128
4.794,-0.131
4.795,-0.134
4.796,-0.132
4.797,-0.131
4.798,-0.133
4.799,-0.128
4.800,-0.126
4.801,-0.128
4.802,-0.134
4.803,-0.131
4.804,-0.134
4.805,-0.131
4.806,-0.136
4.807,-0.141
4.808,-0.144
4.809,-0.144
4.810,-0.138
4.811,-0.134
4.812,-0.141
4.813,-0.141
4.814,-0.142
4.815,-0.141
4.816,-0.141
4.817,-0.138
4.818,-0.131
4.819,-0.128
4.820,-0.123
4.821,-0.128
4.822,-0.131
4.823,-0.128
4.824,-0.125
4.825,-0.128
4.826,-0.125
4.827,-0.125
4.828,-0.114
4.829,-0.106
4.830,-0.108
4.831,-0.109
4.832,-0.111
4.833,-0.109
4.834,-0.114
4.835,-0.113
4.836,-0.114
4.837,-0.109
4.838,-0.113
4.839,-0.113
4.840,-0.114
4.841,-0.116
4.842,-0.116
4.843,-0.113
4.844,-0.113
4.845,-0.116
4.846,-0.122
4.847,-0.122
4.848,-0.123
4.849,-0.125
4.850,-0.122
4.851,-0.116
4.852,-0.108
4.853,-0.100
4.854,-0.100
4.855,-0.100
4.856,-0.108
4.857,-0.116
4.858,-0.119
4.859,-0.122
4.860,-0.122
4.861,-0.119
4.862,-0.123
4.863,-0.122
4.864,-0.128
4.865,-0.125
4.866,-0.125
4.867,-0.125
4.868,-0.121
4.869,-0.119
4.870,-0.116
4.871,-0.113
4.872,-0.114
4.873,-0.116
4.874,-0.118
4.875,-0.119
4.876,-0.118
4.877,-0.116
4.878,-0.118
4.879,-0.119
4.880,-0.128
4.881,-0.128
4.882,-0.126
4.883,-0.128
4.884,-0.129
4.885,-0.131
4.886,-0.131
4.887,-0.131
4.888,-0.131
4.889,-0.134
4.890,-0.134
4.891,-0.138
4.892,-0.138
4.893,-0.141
4.894,-0.144
4.895,-0.141
4.896,-0.138
4.897,-0.128
4.898,-0.125
4.899,-0.119
4.900,-0.114
4.901,-0.113
4.902,-0.114
4.903,-0.116
4.904,-0.116
4.905,-0.119
4.906,-0.121
4.907,-0.122
4.908,-0.113
4.909,-0.116
4.910,-0.122
4.911,-0.122
4.912,-0.111
4.913,-0.100
4.914,-0.097
4.915,-0.091
4.916,-0.092
4.917,-0.091
4.918,-0.089
4.919,-0.088
4.920,-0.078
4.921,-0.063
4.922,-0.067
4.923,-0.069
4.924,-0.070
4.925,-0.069
4.926,-0.067
4.927,-0.059
4.928,-0.049
4.929,-0.041
4.930,-0.038
4.931,-0.038
4.932,-0.033
4.933,-0.028
4.934,-0.025
4.935,-0.022
4.936,-0.023
4.937,-0.025
4.938,-0.018
4.939,-0.013
4.940,-0.016
4.941,-0.013
4.942,-0.008
4.943,-0.003
4.944,0.000
4.945,0.003
4.946,0.012
4.947,0.016
4.948,0.025
4.949,0.028
4.950,0.042
4.951,0.059
4.952,0.072
4.953,0.081
4.954,0.074
4.955,0.066
4.956,0.066
4.957,0.062
4.958,0.066
4.959,0.062
4.960,0.066
4.961,0.069
4.962,0.076
4.963,0.072
4.964,0.066
4.965,0.062
4.966,0.059
4.967,0.059
4.968,0.064
4.969,0.066
4.970,0.066
4.971,0.069
4.972,0.076
4.973,0.084
4.974,0.091
4.975,0.097
4.976,0.101
4.977,0.097
4.978,0.098
4.979,0.091
4.980,0.080
4.981,0.066
4.982,0.053
4.983,0.044
4.984,0.028
4.985,0.028
4.986,0.026
4.987,0.019
4.988,0.006
4.989,0.000
4.990,-0.014
4.991,-0.025
4.992,-0.036
4.993,-0.053
4.994,-0.072
4.995,-0.088
4.996,-0.098
4.997,-0.109
4.998,-0.113
4.999,-0.109
5.000,-0.114
5.001,-0.116
5.002,-0.122
5.003,-0.122
5.004,-0.118
5.005,-0.122
5.006,-0.138
5.007,-0.150
5.008,-0.156
5.009,-0.163
5.010,-0.167
5.011,-0.166
5.012,-0.161
5.013,-0.156
5.014,-0.156
5.015,-0.156
5.016,-0.159
5.017,-0.159
5.018,-0.161
5.019,-0.159
5.020,-0.164
5.021,-0.166
5.022,-0.166
5.023,-0.169
5.024,-0.161
5.025,-0.156
5.026,-0.152
5.027,-0.150
5.028,-0.156
5.029,-0.163
5.030,-0.167
5.031,-0.172
5.032,-0.173
5.033,-0.175
5.034,-0.177
5.035,-0.175
5.036,-0.172
5.037,-0.169
5.038,-0.173
5.039,-0.175
5.040,-0.179
5.041,-0.181
5.042,-0.188
5.043,-0.184
5.044,-0.175
5.045,-0.169
5.046,-0.173
5.047,-0.178
5.048,-0.183
5.049,-0.194
5.050,-0.204
5.051,-0.213
5.052,-0.220
5.053,-0.234
5.054,-0.243
5.055,-0.250
5.056,-0.256
5.057,-0.253
5.058,-0.258
5.059,-0.256
5.060,-0.253
5.061,-0.234
5.062,-0.213
5.063,-0.169
5.064,-0.134
5.065,-0.084
5.066,-0.030
5.067,0.038
5.068,0.109
5.069,0.181
5.070,0.241
5.071,0.309
5.072,0.367
5.073,0.428
5.074,0.503
5.075,0.587
5.076,0.678
5.077,0.766
5.078,0.857
5.079,0.947
5.080,1.025
5.081,1.097
5.082,1.170
5.083,1.222
5.084,1.266
5.085,1.306
5.086,1.350
5.087,1.406
5.088,1.476
5.089,1.534
5.090,1.592
5.091,1.612
5.092,1.622
5.093,1.612
5.094,1.581
5.095,1.469
5.096,1.312
5.097,1.122
5.098,0.937
5.099,0.778
5.100,0.631
5.101,0.497
5.102,0.369
5.103,0.256
5.104,0.149
5.105,0.062
5.106,-0.011
5.107,-0.066
5.108,-0.108
5.109,-0.147
5.110,-0.198
5.111,-0.250
5.112,-0.289
5.113,-0.325
5.114,-0.353
5.115,-0.378
5.116,-0.394
5.117,-0.397
5.118,-0.394
5.119,-0.384
5.120,-0.380
5.121,-0.369
5.122,-0.361
5.123,-0.344
5.124,-0.329
5.125,-0.325
5.126,-0.309
5.127,-0.294
5.128,-0.284
5.129,-0.263
5.130,-0.254
5.131,-0.247
5.132,-0.236
5.133,-0.219
5.134,-0.197
5.135,-0.184
5.136,-0.186
5.137,-0.184
5.138,-0.176
5.139,-0.172
5.140,-0.167
5.141,-0.172
5.142,-0.173
5.143,-0.172
5.144,-0.172
5.145,-0.163
5.146,-0.152
5.147,-0.144
5.148,-0.141
5.149,-0.141
5.150,-0.144
5.151,-0.147
5.152,-0.141
5.153,-0.131
5.154,-0.127
5.155,-0.113
5.156,-0.113
5.157,-0.116
5.158,-0.125
5.159,-0.128
5.160,-0.131
5.161,-0.134
5.162,-0.131
5.163,-0.128
5.164,-0.113
5.165,-0.103
5.166,-0.097
5.167,-0.091
5.168,-0.089
5.169,-0.091
5.170,-0.094
5.171,-0.091
5.172,-0.092
5.173,-0.094
5.174,-0.091
5.175,-0.091
5.176,-0.098
5.177,-0.100
5.178,-0.106
5.179,-0.106
5.180,-0.099
5.181,-0.094
5.182,-0.084
5.183,-0.069
5.184,-0.068
5.185,-0.069
5.186,-0.070
5.187,-0.069
5.188,-0.066
5.189,-0.066
5.190,-0.066
5.191,-0.069
5.192,-0.070
5.193,-0.072
5.194,-0.069
5.195,-0.066
5.196,-0.063
5.197,-0.053
5.198,-0.057
5.199,-0.063
5.200,-0.058
5.201,-0.053
5.202,-0.049
5.203,-0.047
5.204,-0.050
5.205,-0.053
5.206,-0.054
5.207,-0.059
5.208,-0.064
5.209,-0.063
5.210,-0.058
5.211,-0.053
5.212,-0.052
5.213,-0.044
5.214,-0.039
5.215,-0.038
5.216,-0.036
5.217,-0.025
5.218,-0.022
5.219,-0.016
5.220,-0.017
5.221,-0.016
5.222,-0.011
5.223,-0.006
5.224,0.003
5.225,0.003
5.226,0.005
5.227,0.000
5.228,0.003
5.229,0.003
5.230,0.009
5.231,0.012
5.232,0.020
5.233,0.022
5.234,0.023
5.235,0.025
5.236,0.024
5.237,0.022
5.238,0.018
5.239,0.012
5.240,0.025
5.241,0.031
5.242,0.039
5.243,0.044
5.244,0.039
5.245,0.034
5.246,0.038
5.247,0.038
5.248,0.047
5.249,0.056
5.250,0.070
5.251,0.078
5.252,0.084
5.253,0.084
5.254,0.084
5.255,0.081
5.256,0.089
5.257,0.097
5.258,0.096
5.259,0.094
5.260,0.100
5.261,0.097
5.262,0.101
5.263,0.109
5.264,0.117
5.265,0.128
5.266,0.136
5.267,0.137
5.268,0.147
5.269,0.153
5.270,0.159
5.271,0.159
5.272,0.162
5.273,0.169
5.274,0.170
5.275,0.175
5.276,0.175
5.277,0.175
5.278,0.178
5.279,0.178
5.280,0.181
5.281,0.178
5.282,0.178
5.283,0.178
5.284,0.177
5.285,0.175
5.286,0.161
5.287,0.150
5.288,0.154
5.289,0.166
5.290,0.172
5.291,0.175
5.292,0.179
5.293,0.178
5.294,0.178
5.295,0.178
5.296,0.184
5.297,0.191
5.298,0.192
5.299,0.194
5.300,0.191
5.301,0.191
5.302,0.183
5.303,0.181
5.304,0.180
5.305,0.178
5.306,0.182
5.307,0.184
5.308,0.177
5.309,0.175
5.310,0.182
5.311,0.184
5.312,0.195
5.313,0.197
5.314,0.192
5.315,0.188
5.316,0.175
5.317,0.169
5.318,0.159
5.319,0.153
5.320,0.156
5.321,0.159
5.322,0.156
5.323,0.156
5.324,0.156
5.325,0.156
5.326,0.149
5.327,0.137
5.328,0.134
5.329,0.134
5.330,0.136
5.331,0.137
5.332,0.141
5.333,0.141
5.334,0.137
5.335,0.141
5.336,0.136
5.337,0.134
5.338,0.128
5.339,0.125
5.340,0.113
5.341,0.097
5.342,0.095
5.343,0.091
5.344,0.086
5.345,0.084
5.346,0.080
5.347,0.078
5.348,0.075
5.349,0.069
5.350,0.058
5.351,0.050
5.352,0.038
5.353,0.022
5.354,0.019
5.355,0.012
5.356,0.011
5.357,0.006
5.358,-0.006
5.359,-0.019
5.360,-0.024
5.361,-0.025
5.362,-0.021
5.363,-0.019
5.364,-0.019
5.365,-0.019
5.366,-0.016
5.367,-0.022
5.368,-0.033
5.369,-0.041
5.370,-0.042
5.371,-0.050
5.372,-0.054
5.373,-0.059
5.374,-0.067
5.375,-0.072
5.376,-0.079
5.377,-0.091
5.378,-0.093
5.379,-0.088
5.380,-0.086
5.381,-0.088
5.382,-0.093
5.383,-0.094
5.384,-0.094
5.385,-0.100
5.386,-0.103
5.387,-0.103
5.388,-0.105
5.389,-0.103
5.390,-0.103
5.391,-0.106
5.392,-0.111
5.393,-0.113
5.394,-0.122
5.395,-0.128
5.396,-0.134
5.397,-0.131
5.398,-0.138
5.399,-0.141
5.400,-0.145
5.401,-0.147
5.402,-0.149
5.403,-0.147
5.404,-0.147
5.405,-0.144
5.406,-0.143
5.407,-0.144
5.408,-0.144
5.409,-0.144
5.410,-0.146
5.411,-0.144
5.412,-0.148
5.413,-0.153
5.414,-0.151
5.415,-0.156
5.416,-0.155
5.417,-0.150
5.418,-0.143
5.419,-0.141
5.420,-0.142
5.421,-0.147
5.422,-0.145
5.423,-0.147
5.424,-0.147
5.425,-0.144
5.426,-0.154
5.427,-0.163
5.428,-0.163
5.429,-0.159
5.430,-0.156
5.431,-0.159
5.432,-0.153
5.433,-0.141
5.434,-0.139
5.435,-0.138
5.436,-0.139
5.437,-0.138
5.438,-0.141
5.439,-0.141
5.440,-0.141
5.441,-0.141
5.442,-0.138
5.443,-0.131
5.444,-0.122
5.445,-0.119
5.446,-0.119
5.447,-0.119
5.448,-0.122
5.449,-0.122
5.450,-0.120
5.451,-0.125
5.452,-0.125
5.453,-0.125
5.454,-0.116
5.455,-0.109
5.456,-0.108
5.457,-0.116
5.458,-0.116
5.459,-0.119
5.460,-0.116
5.461,-0.113
5.462,-0.102
5.463,-0.091
5.464,-0.091
5.465,-0.094
5.466,-0.098
5.467,-0.106
5.468,-0.102
5.469,-0.100
5.470,-0.093
5.471,-0.088
5.472,-0.100
5.473,-0.100
5.474,-0.100
5.475,-0.106
5.476,-0.103
5.477,-0.100
5.478,-0.103
5.479,-0.097
5.480,-0.097
5.481,-0.094
5.482,-0.103
5.483,-0.113
5.484,-0.113
5.485,-0.113
5.486,-0.108
5.487,-0.106
5.488,-0.096
5.489,-0.097
5.490,-0.100
5.491,-0.103
5.492,-0.106
5.493,-0.106
5.494,-0.104
5.495,-0.103
5.496,-0.106
5.497,-0.109
5.498,-0.108
5.499,-0.106
5.500,-0.097
5.501,-0.088
5.502,-0.086
5.503,-0.081
5.504,-0.089
5.505,-0.091
5.506,-0.095
5.507,-0.091
5.508,-0.098
5.509,-0.106
5.510,-0.111
5.511,-0.119
5.512,-0.122
5.513,-0.125
5.514,-0.116
5.515,-0.106
5.516,-0.105
5.517,-0.103
5.518,-0.102
5.519,-0.100
5.520,-0.100
5.521,-0.100
5.522,-0.113
5.523,-0.116
5.524,-0.111
5.525,-0.109
5.526,-0.109
5.527,-0.109
5.528,-0.109
5.529,-0.109
5.530,-0.109
5.531,-0.113
5.532,-0.111
5.533,-0.113
5.534,-0.113
5.535,-0.116
5.536,-0.126
5.537,-0.131
5.538,-0.130
5.539,-0.122
5.540,-0.111
5.541,-0.097
5.542,-0.093
5.543,-0.091
5.544,-0.091
5.545,-0.091
5.546,-0.089
5.547,-0.091
5.548,-0.094
5.549,-0.097
5.550,-0.091
5.551,-0.097
5.552,-0.097
5.553,-0.091
5.554,-0.101
5.555,-0.113
5.556,-0.123
5.557,-0.131
5.558,-0.119
5.559,-0.103
5.560,-0.097
5.561,-0.091
5.562,-0.086
5.563,-0.075
5.564,-0.071
5.565,-0.063
5.566,-0.050
5.567,-0.034
5.568,-0.027
5.569,-0.013
5.570,-0.016
5.571,-0.022
5.572,-0.014
5.573,-0.009
5.574,0.000
5.575,0.009
5.576,0.019
5.577,0.028
5.578,0.028
5.579,0.028
5.580,0.024
5.581,0.016
5.582,0.011
5.583,0.012
5.584,0.019
5.585,0.025
5.586,0.032
5.587,0.041
5.588,0.036
5.589,0.025
5.590,0.039
5.591,0.047
5.592,0.059
5.593,0.075
5.594,0.081
5.595,0.084
5.596,0.091
5.597,0.097
5.598,0.104
5.599,0.109
5.600,0.116
5.601,0.116
5.602,0.113
5.603,0.109
5.604,0.113
5.605,0.103
5.606,0.100
5.607,0.100
5.608,0.094
5.609,0.091
5.610,0.089
5.611,0.084
5.612,0.086
5.613,0.091
5.614,0.097
5.615,0.103
5.616,0.104
5.617,0.106
5.618,0.105
5.619,0.094
5.620,0.091
5.621,0.078
5.622,0.069
5.623,0.056
5.624,0.034
5.625,0.016
5.626,0.019
5.627,0.038
5.628,0.053
5.629,0.062
5.630,0.050
5.631,0.044
5.632,0.012
5.633,-0.016
5.634,-0.025
5.635,-0.041
5.636,-0.053
5.637,-0.063
5.638,-0.071
5.639,-0.078
5.640,-0.089
5.641,-0.094
5.642,-0.099
5.643,-0.100
5.644,-0.119
5.645,-0.131
5.646,-0.128
5.647,-0.134
5.648,-0.139
5.649,-0.141
5.650,-0.141
5.651,-0.141
5.652,-0.139
5.653,-0.131
5.654,-0.124
5.655,-0.116
5.656,-0.111
5.657,-0.106
5.658,-0.113
5.659,-0.116
5.660,-0.125
5.661,-0.131
5.662,-0.139
5.663,-0.144
5.664,-0.150
5.665,-0.159
5.666,-0.156
5.667,-0.156
5.668,-0.154
5.669,-0.156
5.670,-0.164
5.671,-0.172
5.672,-0.173
5.673,-0.175
5.674,-0.174
5.675,-0.172
5.676,-0.181
5.677,-0.188
5.678,-0.181
5.679,-0.175
5.680,-0.174
5.681,-0.169
5.682,-0.159
5.683,-0.147
5.684,-0.139
5.685,-0.122
5.686,-0.126
5.687,-0.134
5.688,-0.131
5.689,-0.128
5.690,-0.124
5.691,-0.125
5.692,-0.163
5.693,-0.197
5.694,-0.217
5.695,-0.244
5.696,-0.244
5.697,-0.244
5.698,-0.252
5.699,-0.250
5.700,-0.246
5.701,-0.234
5.702,-0.221
5.703,-0.191
5.704,-0.158
5.705,-0.103
5.706,-0.069
5.707,-0.019
5.708,0.039
5.709,0.109
5.710,0.181
5.711,0.253
5.712,0.311
5.713,0.378
5.714,0.453
5.715,0.531
5.716,0.617
5.717,0.712
5.718,0.803
5.719,0.891
5.720,0.975
5.721,1.056
5.722,1.136
5.723,1.209
5.724,1.277
5.725,1.322
5.726,1.373
5.727,1.422
5.728,1.456
5.729,1.503
5.730,1.550
5.731,1.584
5.732,1.612
5.733,1.603
5.734,1.569
5.735,1.516
5.736,1.431
5.737,1.266
5.738,1.131
5.739,0.962
5.740,0.800
5.741,0.662
5.742,0.525
5.743,0.400
5.744,0.284
5.745,0.184
5.746,0.094
5.747,0.025
5.748,-0.036
5.749,-0.078
5.750,-0.126
5.751,-0.172
5.752,-0.223
5.753,-0.275
5.754,-0.300
5.755,-0.322
5.756,-0.336
5.757,-0.347
5.758,-0.361
5.759,-0.363
5.760,-0.359
5.761,-0.350
5.762,-0.354
5.763,-0.353
5.764,-0.349
5.765,-0.334
5.766,-0.306
5.767,-0.288
5.768,-0.274
5.769,-0.259
5.770,-0.247
5.771,-0.222
5.772,-0.203
5.773,-0.184
5.774,-0.169
5.775,-0.147
5.776,-0.129
5.777,-0.122
5.778,-0.114
5.779,-0.103
5.780,-0.084
5.781,-0.069
5.782,-0.063
5.783,-0.066
5.784,-0.084
5.785,-0.100
5.786,-0.113
5.787,-0.116
5.788,-0.111
5.789,-0.109
5.790,-0.106
5.791,-0.106
5.792,-0.109
5.793,-0.113
5.794,-0.114
5.795,-0.113
5.796,-0.111
5.797,-0.100
5.798,-0.097
5.799,-0.097
5.800,-0.100
5.801,-0.097
5.802,-0.097
5.803,-0.097
5.804,-0.089
5.805,-0.081
5.806,-0.078
5.807,-0.081
5.808,-0.081
5.809,-0.081
5.810,-0.079
5.811,-0.081
5.812,-0.074
5.813,-0.059
5.814,-0.061
5.815,-0.063
5.816,-0.067
5.817,-0.075
5.818,-0.084
5.819,-0.088
5.820,-0.092
5.821,-0.091
5.822,-0.072
5.823,-0.056
5.824,-0.050
5.825,-0.038
5.826,-0.038
5.827,-0.041
5.828,-0.047
5.829,-0.050
5.830,-0.059
5.831,-0.072
5.832,-0.073
5.833,-0.078
5.834,-0.075
5.835,-0.072
5.836,-0.069
5.837,-0.066
5.838,-0.067
5.839,-0.063
5.840,-0.055
5.841,-0.047
5.842,-0.045
5.843,-0.044
5.844,-0.042
5.845,-0.044
5.846,-0.039
5.847,-0.034
5.848,-0.025
5.849,-0.019
5.850,-0.022
5.851,-0.019
5.852,-0.022
5.853,-0.025
5.854,-0.033
5.855,-0.034
5.856,-0.031
5.857,-0.031
5.858,-0.031
5.859,-0.022
5.860,-0.025
5.861,-0.025
5.862,-0.029
5.863,-0.031
5.864,-0.033
5.865,-0.034
5.866,-0.019
5.867,-0.013
5.868,-0.006
5.869,-0.006
5.870,0.006
5.871,0.016
5.872,0.024
5.873,0.028
5.874,0.025
5.875,0.016
5.876,0.019
5.877,0.022
5.878,0.047
5.879,0.072
5.880,0.072
5.881,0.072
5.882,0.078
5.883,0.078
5.884,0.083
5.885,0.084
5.886,0.083
5.887,0.081
5.888,0.083
5.889,0.081
5.890,0.084
5.891,0.087
5.892,0.097
5.893,0.100
5.894,0.093
5.895,0.078
5.896,0.080
5.897,0.078
5.898,0.091
5.899,0.103
5.900,0.103
5.901,0.103
5.902,0.113
5.903,0.113
5.904,0.111
5.905,0.113
5.906,0.117
5.907,0.125
5.908,0.136
5.909,0.141
5.910,0.141
5.911,0.137
5.912,0.145
5.913,0.147
5.914,0.148
5.915,0.153
5.916,0.152
5.917,0.153
5.918,0.159
5.919,0.166
5.920,0.166
5.921,0.162
5.922,0.159
5.923,0.150
5.924,0.153
5.925,0.156
5.926,0.156
5.927,0.156
5.928,0.150
5.929,0.147
5.930,0.139
5.931,0.137
5.932,0.139
5.933,0.137
5.934,0.148
5.935,0.153
5.936,0.162
5.937,0.172
5.938,0.169
5.939,0.166
5.940,0.166
5.941,0.166
5.942,0.162
5.943,0.162
5.944,0.166
5.945,0.175
5.946,0.178
5.947,0.181
5.948,0.177
5.949,0.169
5.950,0.167
5.951,0.172
5.952,0.172
5.953,0.166
5.954,0.168
5.955,0.159
5.956,0.167
5.957,0.175
5.958,0.178
5.959,0.188
5.960,0.188
5.961,0.191
5.962,0.188
5.963,0.184
5.964,0.178
5.965,0.175
5.966,0.178
5.967,0.181
5.968,0.181
5.969,0.178
5.970,0.162
5.971,0.150
5.972,0.137
5.973,0.125
5.974,0.131
5.975,0.134
5.976,0.124
5.977,0.119
5.978,0.105
5.979,0.094
5.980,0.092
5.981,0.094
5.982,0.089
5.983,0.081
5.984,0.072
5.985,0.059
5.986,0.057
5.987,0.059
5.988,0.061
5.989,0.066
5.990,0.061
5.991,0.053
5.992,0.042
5.993,0.034
5.994,0.031
5.995,0.025
5.996,0.023
5.997,0.019
5.998,0.009
5.999,-0.003
6.000,-0.005
6.001,-0.006
6.002,-0.023
6.003,-0.038
6.004,-0.038
6.005,-0.041
6.006,-0.045
6.007,-0.050
6.008,-0.050
6.009,-0.059
6.010,-0.076
6.011,-0.091
6.012,-0.088
6.013,-0.091
6.014,-0.094
6.015,-0.097
6.016,-0.101
6.017,-0.103
6.018,-0.094
6.019,-0.088
6.020,-0.095
6.021,-0.097
6.022,-0.100
6.023,-0.106
6.024,-0.111
6.025,-0.113
6.026,-0.109
6.027,-0.113
6.028,-0.123
6.029,-0.131
6.030,-0.144
6.031,-0.153
6.032,-0.149
6.033,-0.147
6.034,-0.148
6.035,-0.147
6.036,-0.147
6.037,-0.144
6.038,-0.144
6.039,-0.134
6.040,-0.131
6.041,-0.125
6.042,-0.129
6.043,-0.131
6.044,-0.134
6.045,-0.134
6.046,-0.139
6.047,-0.141
6.048,-0.151
6.049,-0.166
6.050,-0.152
6.051,-0.138
6.052,-0.142
6.053,-0.144
6.054,-0.144
6.055,-0.144
6.056,-0.139
6.057,-0.141
6.058,-0.148
6.059,-0.153
6.060,-0.151
6.061,-0.156
6.062,-0.156
6.063,-0.159
6.064,-0.152
6.065,-0.147
6.066,-0.150
6.067,-0.150
6.068,-0.163
6.069,-0.172
6.070,-0.164
6.071,-0.153
6.072,-0.141
6.073,-0.134
6.074,-0.136
6.075,-0.131
6.076,-0.118
6.077,-0.103
6.078,-0.106
6.079,-0.106
6.080,-0.122
6.081,-0.134
6.082,-0.141
6.083,-0.147
6.084,-0.154
6.085,-0.159
6.086,-0.158
6.087,-0.163
6.088,-0.155
6.089,-0.147
6.090,-0.141
6.091,-0.131
6.092,-0.127
6.093,-0.128
6.094,-0.128
6.095,-0.128
6.096,-0.128
6.097,-0.131
6.098,-0.124
6.099,-0.125
6.100,-0.123
6.101,-0.125
6.102,-0.134
6.103,-0.144
6.104,-0.150
6.105,-0.156
6.106,-0.155
6.107,-0.156
6.108,-0.150
6.109,-0.147
6.110,-0.138
6.111,-0.131
6.112,-0.125
6.113,-0.122
6.114,-0.124
6.115,-0.113
6.116,-0.116
6.117,-0.125
6.118,-0.126
6.119,-0.128
6.120,-0.134
6.121,-0.131
6.122,-0.136
6.123,-0.138
6.124,-0.138
6.125,-0.138
6.126,-0.134
6.127,-0.131
6.128,-0.124
6.129,-0.119
6.130,-0.109
6.131,-0.113
6.132,-0.116
6.133,-0.122
6.134,-0.122
6.135,-0.122
6.136,-0.126
6.137,-0.134
6.138,-0.139
6.139,-0.144
6.140,-0.134
6.141,-0.122
6.142,-0.109
6.143,-0.094
6.144,-0.101
6.145,-0.109
6.146,-0.109
6.147,-0.109
6.148,-0.100
6.149,-0.091
6.150,-0.091
6.151,-0.091
6.152,-0.091
6.153,-0.088
6.154,-0.091
6.155,-0.088
6.156,-0.092
6.157,-0.088
6.158,-0.092
6.159,-0.097
6.160,-0.098
6.161,-0.103
6.162,-0.108
6.163,-0.113
6.164,-0.117
6.165,-0.122
6.166,-0.116
6.167,-0.109
6.168,-0.116
6.169,-0.122
6.170,-0.132
6.171,-0.144
6.172,-0.139
6.173,-0.125
6.174,-0.123
6.175,-0.125
6.176,-0.134
6.177,-0.144
6.178,-0.138
6.179,-0.131
6.180,-0.121
6.181,-0.113
6.182,-0.117
6.183,-0.125
6.184,-0.123
6.185,-0.125
6.186,-0.129
6.187,-0.128
6.188,-0.131
6.189,-0.128
6.190,-0.132
6.191,-0.134
6.192,-0.134
6.193,-0.138
6.194,-0.138
6.195,-0.138
6.196,-0.134
6.197,-0.134
6.198,-0.136
6.199,-0.138
6.200,-0.128
6.201,-0.131
6.202,-0.141
6.203,-0.144
6.204,-0.148
6.205,-0.153
6.206,-0.144
6.207,-0.131
6.208,-0.132
6.209,-0.131
6.210,-0.129
6.211,-0.128
6.212,-0.124
6.213,-0.113
6.214,-0.111
6.215,-0.106
6.216,-0.106
6.217,-0.103
6.218,-0.097
6.219,-0.084
6.220,-0.072
6.221,-0.063
6.222,-0.049
6.223,-0.038
6.224,-0.027
6.225,-0.016
6.226,-0.026
6.227,-0.038
6.228,-0.042
6.229,-0.047
6.230,-0.041
6.231,-0.038
6.232,-0.028
6.233,-0.013
6.234,-0.006
6.235,0.000
6.236,-0.003
6.237,-0.006
6.238,0.000
6.239,0.000
6.240,0.008
6.241,0.009
6.242,0.012
6.243,0.019
6.244,0.024
6.245,0.025
6.246,0.024
6.247,0.022
6.248,0.024
6.249,0.022
6.250,0.029
6.251,0.031
6.252,0.034
6.253,0.038
6.254,0.053
6.255,0.056
6.256,0.050
6.257,0.047
6.258,0.039
6.259,0.034
6.260,0.042
6.261,0.047
6.262,0.064
6.263,0.084
6.264,0.086
6.265,0.087
6.266,0.075
6.267,0.062
6.268,0.079
6.269,0.087
6.270,0.087
6.271,0.078
6.272,0.067
6.273,0.053
6.274,0.036
6.275,0.022
6.276,0.003
6.277,0.000
6.278,0.007
6.279,0.009
6.280,0.007
6.281,0.012
6.282,-0.004
6.283,-0.019
6.284,-0.038
6.285,-0.063
6.286,-0.075
6.287,-0.084
6.288,-0.097
6.289,-0.109
6.290,-0.122
6.291,-0.128
6.292,-0.148
6.293,-0.166
6.294,-0.175
6.295,-0.178
6.296,-0.172
6.297,-0.175
6.298,-0.175
6.299,-0.172
6.300,-0.174
6.301,-0.175
6.302,-0.181
6.303,-0.181
6.304,-0.183
6.305,-0.184
6.306,-0.189
6.307,-0.194
6.308,-0.196
6.309,-0.194
6.310,-0.194
6.311,-0.191
6.312,-0.189
6.313,-0.184
6.314,-0.191
6.315,-0.200
6.316,-0.197
6.317,-0.197
6.318,-0.188
6.319,-0.181
6.320,-0.181
6.321,-0.181
6.322,-0.181
6.323,-0.181
6.324,-0.180
6.325,-0.178
6.326,-0.175
6.327,-0.169
6.328,-0.171
6.329,-0.172
6.330,-0.176
6.331,-0.178
6.332,-0.181
6.333,-0.181
6.334,-0.183
6.335,-0.175
6.336,-0.176
6.337,-0.181
6.338,-0.201
6.339,-0.222
6.340,-0.222
6.341,-0.228
6.342,-0.219
6.343,-0.206
6.344,-0.216
6.345,-0.231
6.346,-0.243
6.347,-0.253
6.348,-0.266
6.349,-0.269
6.350,-0.269
6.351,-0.263
6.352,-0.275
6.353,-0.272
6.354,-0.252
6.355,-0.209
6.356,-0.181
6.357,-0.138
6.358,-0.095
6.359,-0.041
6.360,0.038
6.361,0.116
6.362,0.181
6.363,0.256
6.364,0.325
6.365,0.397
6.366,0.475
6.367,0.563
6.368,0.652
6.369,0.737
6.370,0.816
6.371,0.891
6.372,0.979
6.373,1.062
6.374,1.131
6.375,1.178
6.376,1.211
6.377,1.241
6.378,1.300
6.379,1.372
6.380,1.428
6.381,1.472
6.382,1.516
6.383,1.522
6.384,1.528
6.385,1.516
6.386,1.501
6.387,1.406
6.388,1.278
6.389,1.116
6.390,0.956
6.391,0.822
6.392,0.678
6.393,0.547
6.394,0.409
6.395,0.287
6.396,0.188
6.397,0.109
6.398,0.041
6.399,-0.009
6.400,-0.041
6.401,-0.069
6.402,-0.103
6.403,-0.138
6.404,-0.178
6.405,-0.216
6.406,-0.272
6.407,-0.325
6.408,-0.356
6.409,-0.375
6.410,-0.388
6.411,-0.394
6.412,-0.398
6.413,-0.397
6.414,-0.395
6.415,-0.384
6.416,-0.364
6.417,-0.353
6.418,-0.345
6.419,-0.338
6.420,-0.330
6.421,-0.309
6.422,-0.297
6.423,-0.284
6.424,-0.271
6.425,-0.250
6.426,-0.234
6.427,-0.228
6.428,-0.228
6.429,-0.225
6.430,-0.214
6.431,-0.206
6.432,-0.189
6.433,-0.181
6.434,-0.171
6.435,-0.156
6.436,-0.159
6.437,-0.153
6.438,-0.143
6.439,-0.134
6.440,-0.124
6.441,-0.116
6.442,-0.113
6.443,-0.109
6.444,-0.120
6.445,-0.128
6.446,-0.138
6.447,-0.138
6.448,-0.134
6.449,-0.134
6.450,-0.141
6.451,-0.141
6.452,-0.128
6.453,-0.116
6.454,-0.105
6.455,-0.094
6.456,-0.084
6.457,-0.081
6.458,-0.081
6.459,-0.081
6.460,-0.088
6.461,-0.097
6.462,-0.109
6.463,-0.116
6.464,-0.119
6.465,-0.122
6.466,-0.119
6.467,-0.119
6.468,-0.125
6.469,-0.125
6.470,-0.113
6.471,-0.094
6.472,-0.089
6.473,-0.088
6.474,-0.089
6.475,-0.084
6.476,-0.068
6.477,-0.053
6.478,-0.049
6.479,-0.041
6.480,-0.039
6.481,-0.041
6.482,-0.050
6.483,-0.063
6.484,-0.066
6.485,-0.069
6.486,-0.068
6.487,-0.066
6.488,-0.069
6.489,-0.066
6.490,-0.063
6.491,-0.059
6.492,-0.052
6.493,-0.044
6.494,-0.047
6.495,-0.053
6.496,-0.049
6.497,-0.044
6.498,-0.039
6.499,-0.038
6.500,-0.047
6.501,-0.050
6.502,-0.061
6.503,-0.072
6.504,-0.061
6.505,-0.044
6.506,-0.030
6.507,-0.019
6.508,-0.029
6.509,-0.031
6.510,-0.036
6.511,-0.038
6.512,-0.045
6.513,-0.050
6.514,-0.047
6.515,-0.044
6.516,-0.036
6.517,-0.038
6.518,-0.028
6.519,-0.025
6.520,-0.018
6.521,-0.013
6.522,-0.002
6.523,0.006
6.524,0.017
6.525,0.022
6.526,0.016
6.527,0.009
6.528,0.014
6.529,0.019
6.530,0.023
6.531,0.028
6.532,0.033
6.533,0.031
6.534,0.039
6.535,0.044
6.536,0.042
6.537,0.041
6.538,0.044
6.539,0.044
6.540,0.050
6.541,0.056
6.542,0.066
6.543,0.069
6.544,0.072
6.545,0.069
6.546,0.072
6.547,0.072
6.548,0.071
6.549,0.069
6.550,0.061
6.551,0.053
6.552,0.064
6.553,0.066
6.554,0.061
6.555,0.059
6.556,0.062
6.557,0.069
6.558,0.086
6.559,0.097
6.560,0.106
6.561,0.113
6.562,0.125
6.563,0.131
6.564,0.134
6.565,0.141
6.566,0.142
6.567,0.147
6.568,0.151
6.569,0.156
6.570,0.158
6.571,0.156
6.572,0.152
6.573,0.141
6.574,0.151
6.575,0.162
6.576,0.169
6.577,0.175
6.578,0.175
6.579,0.178
6.580,0.181
6.581,0.191
6.582,0.198
6.583,0.203
6.584,0.200
6.585,0.191
6.586,0.192
6.587,0.194
6.588,0.194
6.589,0.194
6.590,0.191
6.591,0.188
6.592,0.183
6.593,0.181
6.594,0.175
6.595,0.175
6.596,0.176
6.597,0.178
6.598,0.181
6.599,0.181
6.600,0.174
6.601,0.172
6.602,0.182
6.603,0.188
6.604,0.192
6.605,0.188
6.606,0.180
6.607,0.172
6.608,0.155
6.609,0.144
6.610,0.147
6.611,0.153
6.612,0.153
6.613,0.153
6.614,0.151
6.615,0.153
6.616,0.144
6.617,0.134
6.618,0.132
6.619,0.128
6.620,0.126
6.621,0.128
6.622,0.132
6.623,0.137
6.624,0.134
6.625,0.128
6.626,0.116
6.627,0.109
6.628,0.102
6.629,0.097
6.630,0.083
6.631,0.072
6.632,0.078
6.633,0.081
6.634,0.086
6.635,0.087
6.636,0.084
6.637,0.084
6.638,0.077
6.639,0.072
6.640,0.064
6.641,0.053
6.642,0.041
6.643,0.031
6.644,0.025
6.645,0.016
6.646,0.016
6.647,0.012
6.648,0.012
6.649,0.009
6.650,-0.001
6.651,-0.013
6.652,-0.019
6.653,-0.022
6.654,-0.024
6.655,-0.028
6.656,-0.018
6.657,-0.006
6.658,-0.013
6.659,-0.028
6.660,-0.047
6.661,-0.063
6.662,-0.070
6.663,-0.084
6.664,-0.100
6.665,-0.116
6.666,-0.111
6.667,-0.103
6.668,-0.104
6.669,-0.109
6.670,-0.111
6.671,-0.106
6.672,-0.114
6.673,-0.125
6.674,-0.125
6.675,-0.122
6.676,-0.116
6.677,-0.116
6.678,-0.122
6.679,-0.125
6.680,-0.127
6.681,-0.125
6.682,-0.124
6.683,-0.125
6.684,-0.125
6.685,-0.122
6.686,-0.125
6.687,-0.125
6.688,-0.131
6.689,-0.128
6.690,-0.144
6.691,-0.156
6.692,-0.155
6.693,-0.150
6.694,-0.146
6.695,-0.138
6.696,-0.134
6.697,-0.128
6.698,-0.124
6.699,-0.122
6.700,-0.131
6.701,-0.141
6.702,-0.147
6.703,-0.150
6.704,-0.147
6.705,-0.144
6.706,-0.134
6.707,-0.131
6.708,-0.127
6.709,-0.119
6.710,-0.117
6.711,-0.122
6.712,-0.132
6.713,-0.147
6.714,-0.154
6.715,-0.166
6.716,-0.161
6.717,-0.153
6.718,-0.146
6.719,-0.134
6.720,-0.138
6.721,-0.138
6.722,-0.133
6.723,-0.134
6.724,-0.147
6.725,-0.153
6.726,-0.153
6.727,-0.153
6.728,-0.156
6.729,-0.156
6.730,-0.163
6.731,-0.166
6.732,-0.158
6.733,-0.150
6.734,-0.141
6.735,-0.128
6.736,-0.134
6.737,-0.147
6.738,-0.147
6.739,-0.147
6.740,-0.148
6.741,-0.147
6.742,-0.148
6.743,-0.156
6.744,-0.152
6.745,-0.147
6.746,-0.146
6.747,-0.147
6.748,-0.148
6.749,-0.159
6.750,-0.156
6.751,-0.156
6.752,-0.152
6.753,-0.147
6.754,-0.143
6.755,-0.138
6.756,-0.134
6.757,-0.134
6.758,-0.128
6.759,-0.125
6.760,-0.118
6.761,-0.113
6.762,-0.109
6.763,-0.109
6.764,-0.116
6.765,-0.109
6.766,-0.106
6.767,-0.109
6.768,-0.109
6.769,-0.109
6.770,-0.120
6.771,-0.122
6.772,-0.125
6.773,-0.125
6.774,-0.129
6.775,-0.134
6.776,-0.131
6.777,-0.128
6.778,-0.121
6.779,-0.116
6.780,-0.117
6.781,-0.116
6.782,-0.117
6.783,-0.119
6.784,-0.118
6.785,-0.116
6.786,-0.123
6.787,-0.131
6.788,-0.138
6.789,-0.144
6.790,-0.148
6.791,-0.150
6.792,-0.151
6.793,-0.147
6.794,-0.139
6.795,-0.122
6.796,-0.111
6.797,-0.100
6.798,-0.099
6.799,-0.100
6.800,-0.101
6.801,-0.103
6.802,-0.099
6.803,-0.094
6.804,-0.100
6.805,-0.106
6.806,-0.113
6.807,-0.119
6.808,-0.118
6.809,-0.116
6.810,-0.113
6.811,-0.100
6.812,-0.089
6.813,-0.081
6.814,-0.077
6.815,-0.072
6.816,-0.089
6.817,-0.106
6.818,-0.114
6.819,-0.125
6.820,-0.132
6.821,-0.144
6.822,-0.142
6.823,-0.144
6.824,-0.143
6.825,-0.134
6.826,-0.139
6.827,-0.138
6.828,-0.142
6.829,-0.144
6.830,-0.141
6.831,-0.141
6.832,-0.144
6.833,-0.147
6.834,-0.144
6.835,-0.144
6.836,-0.146
6.837,-0.147
6.838,-0.130
6.839,-0.125
6.840,-0.125
6.841,-0.119
6.842,-0.119
6.843,-0.119
6.844,-0.118
6.845,-0.113
6.846,-0.103
6.847,-0.091
6.848,-0.089
6.849,-0.088
6.850,-0.088
6.851,-0.081
6.852,-0.080
6.853,-0.075
6.854,-0.068
6.855,-0.056
6.856,-0.052
6.857,-0.041
6.858,-0.038
6.859,-0.038
6.860,-0.038
6.861,-0.041
6.862,-0.039
6.863,-0.038
6.864,-0.034
6.865,-0.031
6.866,-0.021
6.867,-0.009
6.868,-0.006
6.869,-0.006
6.870,-0.005
6.871,0.003
6.872,0.003
6.873,0.003
6.874,0.003
6.875,0.003
6.876,0.022
6.877,0.034
6.878,0.046
6.879,0.050
6.880,0.050
6.881,0.053
6.882,0.059
6.883,0.062
6.884,0.061
6.885,0.059
6.886,0.052
6.887,0.041
6.888,0.041
6.889,0.034
6.890,0.033
6.891,0.031
6.892,0.039
6.893,0.034
6.894,0.031
6.895,0.031
6.896,0.036
6.897,0.044
6.898,0.053
6.899,0.059
6.900,0.064
6.901,0.072
6.902,0.081
6.903,0.091
6.904,0.094
6.905,0.097
6.906,0.083
6.907,0.059
6.908,0.046
6.909,0.022
6.910,0.008
6.911,-0.009
6.912,-0.025
6.913,-0.038
6.914,-0.052
6.915,-0.050
6.916,-0.052
6.917,-0.059
6.918,-0.076
6.919,-0.088
6.920,-0.068
6.921,-0.044
6.922,-0.043
6.923,-0.047
6.924,-0.070
6.925,-0.091
6.926,-0.104
6.927,-0.119
6.928,-0.142
6.929,-0.159
6.930,-0.170
6.931,-0.178
6.932,-0.180
6.933,-0.175
6.934,-0.175
6.935,-0.184
6.936,-0.184
6.937,-0.181
6.938,-0.184
6.939,-0.188
6.940,-0.188
6.941,-0.181
6.942,-0.180
6.943,-0.178
6.944,-0.178
6.945,-0.178
6.946,-0.186
6.947,-0.191
6.948,-0.197
6.949,-0.200
6.950,-0.199
6.951,-0.194
6.952,-0.194
6.953,-0.197
6.954,-0.200
6.955,-0.206
6.956,-0.200
6.957,-0.197
6.958,-0.189
6.959,-0.181
6.960,-0.180
6.961,-0.178
6.962,-0.183
6.963,-0.188
6.964,-0.195
6.965,-0.200
6.966,-0.202
6.967,-0.203
6.968,-0.197
6.969,-0.188
6.970,-0.184
6.971,-0.178
6.972,-0.184
6.973,-0.181
6.974,-0.186
6.975,-0.194
6.976,-0.203
6.977,-0.213
6.978,-0.216
6.979,-0.225
6.980,-0.224
6.981,-0.219
6.982,-0.218
6.983,-0.222
6.984,-0.241
6.985,-0.259
6.986,-0.275
6.987,-0.281
6.988,-0.272
6.989,-0.256
6.990,-0.221
6.991,-0.169
6.992,-0.134
6.993,-0.078
6.994,-0.027
6.995,0.041
6.996,0.106
6.997,0.184
6.998,0.228
6.999,0.272
7.000,0.330
7.001,0.397
7.002,0.475
7.003,0.556
7.004,0.653
7.005,0.759
7.006,0.862
7.007,0.962
7.008,1.034
7.009,1.103
7.010,1.164
7.011,1.219
7.012,1.261
7.013,1.281
7.014,1.334
7.015,1.384
7.016,1.429
7.017,1.487
7.018,1.521
7.019,1.541
7.020,1.544
7.021,1.509
7.022,1.425
7.023,1.322
7.024,1.221
7.025,1.037
7.026,0.909
7.027,0.747
7.028,0.600
7.029,0.478
7.030,0.347
7.031,0.228
7.032,0.144
7.033,0.075
7.034,0.011
7.035,-0.031
7.036,-0.064
7.037,-0.078
7.038,-0.131
7.039,-0.181
7.040,-0.231
7.041,-0.281
7.042,-0.302
7.043,-0.319
7.044,-0.336
7.045,-0.350
7.046,-0.366
7.047,-0.369
7.048,-0.383
7.049,-0.391
7.050,-0.395
7.051,-0.394
7.052,-0.386
7.053,-0.369
7.054,-0.344
7.055,-0.328
7.056,-0.311
7.057,-0.294
7.058,-0.286
7.059,-0.266
7.060,-0.256
7.061,-0.247
7.062,-0.234
7.063,-0.216
7.064,-0.201
7.065,-0.197
7.066,-0.200
7.067,-0.200
7.068,-0.188
7.069,-0.178
7.070,-0.161
7.071,-0.153
7.072,-0.149
7.073,-0.141
7.074,-0.141
7.075,-0.131
7.076,-0.122
7.077,-0.116
7.078,-0.113
7.079,-0.113
7.080,-0.111
7.081,-0.109
7.082,-0.122
7.083,-0.131
7.084,-0.131
7.085,-0.122
7.086,-0.121
7.087,-0.122
7.088,-0.126
7.089,-0.125
7.090,-0.128
7.091,-0.131
7.092,-0.136
7.093,-0.141
7.094,-0.116
7.095,-0.097
7.096,-0.086
7.097,-0.075
7.098,-0.072
7.099,-0.072
7.100,-0.078
7.101,-0.078
7.102,-0.083
7.103,-0.088
7.104,-0.092
7.105,-0.100
7.106,-0.102
7.107,-0.097
7.108,-0.097
7.109,-0.091
7.110,-0.084
7.111,-0.081
7.112,-0.078
7.113,-0.069
7.114,-0.066
7.115,-0.066
7.116,-0.069
7.117,-0.069
7.118,-0.066
7.119,-0.066
7.120,-0.066
7.121,-0.069
7.122,-0.069
7.123,-0.069
7.124,-0.075
7.125,-0.081
7.126,-0.071
7.127,-0.053
7.128,-0.057
7.129,-0.063
7.130,-0.059
7.131,-0.056
7.132,-0.050
7.133,-0.047
7.134,-0.041
7.135,-0.034
7.136,-0.031
7.137,-0.031
7.138,-0.036
7.139,-0.034
7.140,-0.031
7.141,-0.028
7.142,-0.033
7.143,-0.031
7.144,-0.028
7.145,-0.028
7.146,-0.033
7.147,-0.028
7.148,-0.030
7.149,-0.028
7.150,-0.038
7.151,-0.044
7.152,-0.041
7.153,-0.038
7.154,-0.034
7.155,-0.041
7.156,-0.027
7.157,-0.019
7.158,-0.016
7.159,-0.016
7.160,0.011
7.161,0.034
7.162,0.044
7.163,0.047
7.164,0.046
7.165,0.044
7.166,0.046
7.167,0.047
7.168,0.057
7.169,0.069
7.170,0.072
7.171,0.069
7.172,0.067
7.173,0.062
7.174,0.067
7.175,0.072
7.176,0.076
7.177,0.078
7.178,0.083
7.179,0.087
7.180,0.091
7.181,0.087
7.182,0.098
7.183,0.103
7.184,0.108
7.185,0.109
7.186,0.109
7.187,0.109
7.188,0.102
7.189,0.094
7.190,0.094
7.191,0.084
7.192,0.087
7.193,0.094
7.194,0.107
7.195,0.125
7.196,0.127
7.197,0.122
7.198,0.125
7.199,0.125
7.200,0.127
7.201,0.122
7.202,0.132
7.203,0.147
7.204,0.156
7.205,0.169
7.206,0.172
7.207,0.175
7.208,0.178
7.209,0.178
7.210,0.186
7.211,0.188
7.212,0.184
7.213,0.181
7.214,0.178
7.215,0.175
7.216,0.164
7.217,0.156
7.218,0.161
7.219,0.172
7.220,0.174
7.221,0.172
7.222,0.171
7.223,0.162
7.224,0.167
7.225,0.172
7.226,0.175
7.227,0.178
7.228,0.184
7.229,0.191
7.230,0.191
7.231,0.194
7.232,0.180
7.233,0.172
7.234,0.169
7.235,0.166
7.236,0.175
7.237,0.181
7.238,0.177
7.239,0.178
7.240,0.188
7.241,0.191
7.242,0.201
7.243,0.203
7.244,0.204
7.245,0.206
7.246,0.196
7.247,0.191
7.248,0.172
7.249,0.156
7.250,0.153
7.251,0.150
7.252,0.141
7.253,0.134
7.254,0.132
7.255,0.131
7.256,0.137
7.257,0.141
7.258,0.134
7.259,0.131
7.260,0.128
7.261,0.125
7.262,0.126
7.263,0.125
7.264,0.113
7.265,0.106
7.266,0.106
7.267,0.109
7.268,0.101
7.269,0.097
7.270,0.092
7.271,0.084
7.272,0.078
7.273,0.069
7.274,0.055
7.275,0.044
7.276,0.030
7.277,0.019
7.278,0.025
7.279,0.028
7.280,0.025
7.281,0.025
7.282,0.018
7.283,0.006
7.284,-0.004
7.285,-0.019
7.286,-0.016
7.287,-0.016
7.288,-0.021
7.289,-0.025
7.290,-0.031
7.291,-0.034
7.292,-0.039
7.293,-0.047
7.294,-0.046
7.295,-0.044
7.296,-0.047
7.297,-0.059
7.298,-0.075
7.299,-0.088
7.300,-0.088
7.301,-0.094
7.302,-0.094
7.303,-0.094
7.304,-0.093
7.305,-0.088
7.306,-0.081
7.307,-0.078
7.308,-0.084
7.309,-0.084
7.310,-0.091
7.311,-0.100
7.312,-0.108
7.313,-0.113
7.314,-0.109
7.315,-0.113
7.316,-0.118
7.317,-0.119
7.318,-0.119
7.319,-0.116
7.320,-0.118
7.321,-0.122
7.322,-0.132
7.323,-0.141
7.324,-0.143
7.325,-0.141
7.326,-0.147
7.327,-0.144
7.328,-0.146
7.329,-0.144
7.330,-0.146
7.331,-0.144
7.332,-0.147
7.333,-0.147
7.334,-0.150
7.335,-0.150
7.336,-0.154
7.337,-0.163
7.338,-0.163
7.339,-0.163
7.340,-0.156
7.341,-0.147
7.342,-0.147
7.343,-0.147
7.344,-0.144
7.345,-0.147
7.346,-0.151
7.347,-0.153
7.348,-0.151
7.349,-0.156
7.350,-0.146
7.351,-0.138
7.352,-0.127
7.353,-0.119
7.354,-0.126
7.355,-0.131
7.356,-0.144
7.357,-0.153
7.358,-0.154
7.359,-0.153
7.360,-0.149
7.361,-0.150
7.362,-0.152
7.363,-0.147
7.364,-0.145
7.365,-0.144
7.366,-0.143
7.367,-0.138
7.368,-0.136
7.369,-0.131
7.370,-0.134
7.371,-0.138
7.372,-0.141
7.373,-0.141
7.374,-0.138
7.375,-0.141
7.376,-0.141
7.377,-0.141
7.378,-0.139
7.379,-0.134
7.380,-0.138
7.381,-0.147
7.382,-0.145
7.383,-0.144
7.384,-0.145
7.385,-0.150
7.386,-0.145
7.387,-0.150
7.388,-0.147
7.389,-0.147
7.390,-0.143
7.391,-0.138
7.392,-0.133
7.393,-0.128
7.394,-0.125
7.395,-0.125
7.396,-0.121
7.397,-0.119
7.398,-0.119
7.399,-0.122
7.400,-0.116
7.401,-0.113
7.402,-0.114
7.403,-0.103
7.404,-0.100
7.405,-0.103
7.406,-0.108
7.407,-0.113
7.408,-0.126
7.409,-0.131
7.410,-0.130
7.411,-0.128
7.412,-0.128
7.413,-0.125
7.414,-0.119
7.415,-0.113
7.416,-0.114
7.417,-0.116
7.418,-0.122
7.419,-0.128
7.420,-0.126
7.421,-0.125
7.422,-0.124
7.423,-0.119
7.424,-0.123
7.425,-0.122
7.426,-0.126
7.427,-0.122
7.428,-0.121
7.429,-0.119
7.430,-0.118
7.431,-0.119
7.432,-0.120
7.433,-0.122
7.434,-0.119
7.435,-0.116
7.436,-0.120
7.437,-0.125
7.438,-0.125
7.439,-0.125
7.440,-0.125
7.441,-0.125
7.442,-0.131
7.443,-0.128
7.444,-0.125
7.445,-0.125
7.446,-0.128
7.447,-0.131
7.448,-0.131
7.449,-0.131
7.450,-0.127
7.451,-0.125
7.452,-0.124
7.453,-0.125
7.454,-0.122
7.455,-0.122
7.456,-0.122
7.457,-0.116
7.458,-0.126
7.459,-0.131
7.460,-0.128
7.461,-0.122
7.462,-0.120
7.463,-0.122
7.464,-0.123
7.465,-0.125
7.466,-0.122
7.467,-0.122
7.468,-0.129
7.469,-0.138
7.470,-0.122
7.471,-0.119
7.472,-0.123
7.473,-0.122
7.474,-0.123
7.475,-0.125
7.476,-0.124
7.477,-0.119
7.478,-0.119
7.479,-0.116
7.480,-0.106
7.481,-0.097
7.482,-0.104
7.483,-0.106
7.484,-0.100
7.485,-0.091
7.486,-0.081
7.487,-0.069
7.488,-0.066
7.489,-0.056
7.490,-0.050
7.491,-0.047
7.492,-0.044
7.493,-0.044
7.494,-0.048
7.495,-0.053
7.496,-0.053
7.497,-0.053
7.498,-0.044
7.499,-0.034
7.500,-0.029
7.501,-0.028
7.502,-0.028
7.503,-0.022
7.504,-0.022
7.505,-0.022
7.506,-0.014
7.507,-0.006
7.508,0.006
7.509,0.012
7.510,0.026
7.511,0.034
7.512,0.042
7.513,0.053
7.514,0.064
7.515,0.072
7.516,0.075
7.517,0.078
7.518,0.080
7.519,0.078
7.520,0.078
7.521,0.072
7.522,0.066
7.523,0.059
7.524,0.061
7.525,0.050
7.526,0.045
7.527,0.044
7.528,0.045
7.529,0.050
7.530,0.059
7.531,0.066
7.532,0.069
7.533,0.075
7.534,0.071
7.535,0.066
7.536,0.064
7.537,0.062
7.538,0.064
7.539,0.056
7.540,0.052
7.541,0.038
7.542,0.034
7.543,0.028
7.544,0.019
7.545,0.012
7.546,-0.004
7.547,-0.006
7.548,-0.011
7.549,-0.022
7.550,-0.036
7.551,-0.044
7.552,-0.059
7.553,-0.072
7.554,-0.079
7.555,-0.094
7.556,-0.103
7.557,-0.109
7.558,-0.116
7.559,-0.122
7.560,-0.134
7.561,-0.141
7.562,-0.148
7.563,-0.153
7.564,-0.161
7.565,-0.163
7.566,-0.163
7.567,-0.172
7.568,-0.176
7.569,-0.178
7.570,-0.178
7.571,-0.178
7.572,-0.175
7.573,-0.166
7.574,-0.161
7.575,-0.156
7.576,-0.158
7.577,-0.159
7.578,-0.172
7.579,-0.181
7.580,-0.186
7.581,-0.188
7.582,-0.189
7.583,-0.188
7.584,-0.188
7.585,-0.191
7.586,-0.189
7.587,-0.191
7.588,-0.188
7.589,-0.188
7.590,-0.188
7.591,-0.188
7.592,-0.183
7.593,-0.178
7.594,-0.178
7.595,-0.178
7.596,-0.180
7.597,-0.178
7.598,-0.180
7.599,-0.181
7.600,-0.181
7.601,-0.178
7.602,-0.178
7.603,-0.175
7.604,-0.179
7.605,-0.175
7.606,-0.174
7.607,-0.175
7.608,-0.175
7.609,-0.175
7.610,-0.176
7.611,-0.184
7.612,-0.195
7.613,-0.203
7.614,-0.206
7.615,-0.216
7.616,-0.231
7.617,-0.247
7.618,-0.261
7.619,-0.266
7.620,-0.267
7.621,-0.263
7.622,-0.253
7.623,-0.228
7.624,-0.213
7.625,-0.175
7.626,-0.130
7.627,-0.069
7.628,-0.013
7.629,0.056
7.630,0.123
7.631,0.191
7.632,0.259
7.633,0.338
7.634,0.422
7.635,0.509
7.636,0.592
7.637,0.684
7.638,0.778
7.639,0.869
7.640,0.950
7.641,1.028
7.642,1.109
7.643,1.184
7.644,1.253
7.645,1.300
7.646,1.331
7.647,1.359
7.648,1.403
7.649,1.459
7.650,1.519
7.651,1.566
7.652,1.603
7.653,1.603
7.654,1.592
7.655,1.562
7.656,1.496
7.657,1.347
7.658,1.186
7.659,0.991
7.660,0.805
7.661,0.644
7.662,0.499
7.663,0.366
7.664,0.247
7.665,0.144
7.666,0.059
7.667,-0.003
7.668,-0.056
7.669,-0.091
7.670,-0.130
7.671,-0.166
7.672,-0.200
7.673,-0.234
7.674,-0.272
7.675,-0.306
7.676,-0.336
7.677,-0.363
7.678,-0.383
7.679,-0.391
7.680,-0.396
7.681,-0.394
7.682,-0.395
7.683,-0.391
7.684,-0.380
7.685,-0.359
7.686,-0.338
7.687,-0.325
7.688,-0.320
7.689,-0.316
7.690,-0.308
7.691,-0.288
7.692,-0.264
7.693,-0.241
7.694,-0.238
7.695,-0.228
7.696,-0.214
7.697,-0.209
7.698,-0.200
7.699,-0.188
7.700,-0.174
7.701,-0.163
7.702,-0.156
7.703,-0.159
7.704,-0.153
7.705,-0.144
7.706,-0.147
7.707,-0.141
7.708,-0.134
7.709,-0.131
7.710,-0.128
7.711,-0.128
7.712,-0.129
7.713,-0.131
7.714,-0.131
7.715,-0.128
7.716,-0.128
7.717,-0.119
7.718,-0.114
7.719,-0.113
7.720,-0.111
7.721,-0.103
7.722,-0.100
7.723,-0.097
7.724,-0.098
7.725,-0.100
7.726,-0.095
7.727,-0.097
7.728,-0.098
7.729,-0.100
7.730,-0.097
7.731,-0.097
7.732,-0.099
7.733,-0.094
7.734,-0.095
7.735,-0.097
7.736,-0.097
7.737,-0.100
7.738,-0.102
7.739,-0.097
7.740,-0.103
7.741,-0.103
7.742,-0.100
7.743,-0.100
7.744,-0.103
7.745,-0.100
7.746,-0.096
7.747,-0.094
7.748,-0.094
7.749,-0.091
7.750,-0.089
7.751,-0.091
7.752,-0.086
7.753,-0.084
7.754,-0.083
7.755,-0.081
7.756,-0.077
7.757,-0.072
7.758,-0.071
7.759,-0.063
7.760,-0.058
7.761,-0.053
7.762,-0.053
7.763,-0.053
7.764,-0.050
7.765,-0.050
7.766,-0.050
7.767,-0.050
7.768,-0.051
7.769,-0.056
7.770,-0.063
7.771,-0.063
7.772,-0.058
7.773,-0.053
7.774,-0.053
7.775,-0.047
7.776,-0.039
7.777,-0.034
7.778,-0.044
7.779,-0.044
7.780,-0.041
7.781,-0.034
7.782,-0.030
7.783,-0.022
7.784,-0.016
7.785,-0.009
7.786,-0.005
7.787,-0.009
7.788,-0.008
7.789,-0.013
7.790,-0.009
7.791,-0.009
7.792,-0.003
7.793,0.000
7.794,0.009
7.795,0.012
7.796,0.019
7.797,0.025
7.798,0.025
7.799,0.025
7.800,0.024
7.801,0.022
7.802,0.032
7.803,0.038
7.804,0.050
7.805,0.059
7.806,0.062
7.807,0.066
7.808,0.072
7.809,0.075
7.810,0.080
7.811,0.084
7.812,0.087
7.813,0.084
7.814,0.089
7.815,0.087
7.816,0.097
7.817,0.103
7.818,0.102
7.819,0.100
7.820,0.104
7.821,0.109
7.822,0.117
7.823,0.116
7.824,0.114
7.825,0.116
7.826,0.114
7.827,0.116
7.828,0.125
7.829,0.128
7.830,0.139
7.831,0.147
7.832,0.152
7.833,0.150
7.834,0.151
7.835,0.156
7.836,0.156
7.837,0.159
7.838,0.164
7.839,0.169
7.840,0.171
7.841,0.169
7.842,0.169
7.843,0.162
7.844,0.169
7.845,0.175
7.846,0.179
7.847,0.184
7.848,0.184
7.849,0.188
7.850,0.183
7.851,0.184
7.852,0.183
7.853,0.178
7.854,0.180
7.855,0.175
7.856,0.179
7.857,0.184
7.858,0.188
7.859,0.191
7.860,0.195
7.861,0.200
7.862,0.198
7.863,0.200
7.864,0.195
7.865,0.197
7.866,0.197
7.867,0.197
7.868,0.201
7.869,0.203
7.870,0.199
7.871,0.200
7.872,0.202
7.873,0.197
7.874,0.200
7.875,0.194
7.876,0.189
7.877,0.184
7.878,0.177
7.879,0.175
7.880,0.169
7.881,0.166
7.882,0.166
7.883,0.166
7.884,0.166
7.885,0.169
7.886,0.164
7.887,0.159
7.888,0.150
7.889,0.137
7.890,0.137
7.891,0.141
7.892,0.142
7.893,0.144
7.894,0.144
7.895,0.141
7.896,0.134
7.897,0.134
7.898,0.127
7.899,0.122
7.900,0.111
7.901,0.103
7.902,0.091
7.903,0.075
7.904,0.069
7.905,0.059
7.906,0.057
7.907,0.059
7.908,0.053
7.909,0.050
7.910,0.045
7.911,0.038
7.912,0.032
7.913,0.031
7.914,0.019
7.915,0.003
7.916,0.003
7.917,0.000
7.918,-0.006
7.919,-0.016
7.920,-0.021
7.921,-0.025
7.922,-0.030
7.923,-0.031
7.924,-0.038
7.925,-0.047
7.926,-0.056
7.927,-0.066
7.928,-0.063
7.929,-0.069
7.930,-0.071
7.931,-0.069
7.932,-0.069
7.933,-0.075
7.934,-0.086
7.935,-0.097
7.936,-0.100
7.937,-0.100
7.938,-0.103
7.939,-0.109
7.940,-0.114
7.941,-0.113
7.942,-0.113
7.943,-0.116
7.944,-0.128
7.945,-0.138
7.946,-0.138
7.947,-0.144
7.948,-0.139
7.949,-0.131
7.950,-0.136
7.951,-0.138
7.952,-0.144
7.953,-0.153
7.954,-0.149
7.955,-0.141
7.956,-0.141
7.957,-0.138
7.958,-0.151
7.959,-0.156
7.960,-0.159
7.961,-0.159
7.962,-0.163
7.963,-0.163
7.964,-0.164
7.965,-0.163
7.966,-0.161
7.967,-0.156
7.968,-0.158
7.969,-0.163
7.970,-0.169
7.971,-0.175
7.972,-0.178
7.973,-0.178
7.974,-0.179
7.975,-0.181
7.976,-0.174
7.977,-0.172
7.978,-0.171
7.979,-0.166
7.980,-0.161
7.981,-0.163
7.982,-0.166
7.983,-0.172
7.984,-0.168
7.985,-0.166
7.986,-0.169
7.987,-0.169
7.988,-0.169
7.989,-0.166
7.990,-0.170
7.991,-0.172
7.992,-0.172
7.993,-0.178
7.994,-0.180
7.995,-0.175
7.996,-0.171
7.997,-0.166
7.998,-0.167
7.999,-0.166
8.000,-0.166
8.001,-0.163
8.002,-0.156
8.003,-0.150
8.004,-0.158
8.005,-0.163
8.006,-0.161
8.007,-0.166
8.008,-0.166
8.009,-0.166
8.010,-0.166
8.011,-0.163
8.012,-0.159
8.013,-0.163
8.014,-0.164
8.015,-0.166
8.016,-0.161
8.017,-0.159
8.018,-0.149
8.019,-0.147
8.020,-0.143
8.021,-0.141
8.022,-0.142
8.023,-0.144
8.024,-0.142
8.025,-0.141
8.026,-0.142
8.027,-0.147
8.028,-0.147
8.029,-0.150
8.030,-0.154
8.031,-0.163
8.032,-0.152
8.033,-0.144
8.034,-0.139
8.035,-0.122
8.036,-0.121
8.037,-0.125
8.038,-0.128
8.039,-0.131
8.040,-0.141
8.041,-0.141
8.042,-0.143
8.043,-0.144
8.044,-0.150
8.045,-0.156
8.046,-0.153
8.047,-0.150
8.048,-0.147
8.049,-0.147
8.050,-0.147
8.051,-0.150
8.052,-0.154
8.053,-0.153
8.054,-0.147
8.055,-0.147
8.056,-0.147
8.057,-0.147
8.058,-0.139
8.059,-0.141
8.060,-0.136
8.061,-0.141
8.062,-0.143
8.063,-0.141
8.064,-0.131
8.065,-0.119
8.066,-0.122
8.067,-0.122
8.068,-0.118
8.069,-0.119
8.070,-0.122
8.071,-0.122
8.072,-0.121
8.073,-0.122
8.074,-0.129
8.075,-0.138
8.076,-0.136
8.077,-0.138
8.078,-0.145
8.079,-0.153
8.080,-0.144
8.081,-0.134
8.082,-0.128
8.083,-0.122
8.084,-0.129
8.085,-0.134
8.086,-0.139
8.087,-0.138
8.088,-0.141
8.089,-0.147
8.090,-0.145
8.091,-0.150
8.092,-0.153
8.093,-0.159
8.094,-0.150
8.095,-0.141
8.096,-0.136
8.097,-0.131
8.098,-0.130
8.099,-0.128
8.100,-0.141
8.101,-0.153
8.102,-0.170
8.103,-0.175
8.104,-0.159
8.105,-0.144
8.106,-0.139
8.107,-0.138
8.108,-0.138
8.109,-0.138
8.110,-0.139
8.111,-0.141
8.112,-0.134
8.113,-0.131
8.114,-0.127
8.115,-0.122
8.116,-0.108
8.117,-0.103
8.118,-0.101
8.119,-0.097
8.120,-0.095
8.121,-0.100
8.122,-0.097
8.123,-0.097
8.124,-0.081
8.125,-0.063
8.126,-0.061
8.127,-0.056
8.128,-0.053
8.129,-0.059
8.130,-0.066
8.131,-0.069
8.132,-0.069
8.133,-0.063
8.134,-0.063
8.135,-0.066
8.136,-0.056
8.137,-0.047
8.138,-0.044
8.139,-0.041
8.140,-0.036
8.141,-0.031
8.142,-0.028
8.143,-0.013
8.144,0.000
8.145,0.012
8.146,0.028
8.147,0.041
8.148,0.045
8.149,0.047
8.150,0.042
8.151,0.041
8.152,0.036
8.153,0.034
8.154,0.030
8.155,0.028
8.156,0.028
8.157,0.034
8.158,0.031
8.159,0.028
8.160,0.012
8.161,0.000
8.162,-0.001
8.163,0.000
8.164,0.011
8.165,0.025
8.166,0.039
8.167,0.047
8.168,0.056
8.169,0.062
8.170,0.062
8.171,0.066
8.172,0.061
8.173,0.062
8.174,0.042
8.175,0.022
8.176,0.006
8.177,-0.013
8.178,-0.026
8.179,-0.044
8.180,-0.039
8.181,-0.041
8.182,-0.050
8.183,-0.056
8.184,-0.064
8.185,-0.084
8.186,-0.101
8.187,-0.113
8.188,-0.119
8.189,-0.125
8.190,-0.131
8.191,-0.138
8.192,-0.141
8.193,-0.144
8.194,-0.153
8.195,-0.166
8.196,-0.169
8.197,-0.178
8.198,-0.186
8.199,-0.188
8.200,-0.186
8.201,-0.181
8.202,-0.181
8.203,-0.188
8.204,-0.197
8.205,-0.203
8.206,-0.207
8.207,-0.216
8.208,-0.216
8.209,-0.216
8.210,-0.214
8.211,-0.216
8.212,-0.217
8.213,-0.222
8.214,-0.221
8.215,-0.222
8.216,-0.223
8.217,-0.225
8.218,-0.228
8.219,-0.225
8.220,-0.228
8.221,-0.228
8.222,-0.224
8.223,-0.219
8.224,-0.216
8.225,-0.213
8.226,-0.213
8.227,-0.213
8.228,-0.213
8.229,-0.216
8.230,-0.213
8.231,-0.213
8.232,-0.217
8.233,-0.219
8.234,-0.216
8.235,-0.219
8.236,-0.218
8.237,-0.216
8.238,-0.209
8.239,-0.213
8.240,-0.214
8.241,-0.216
8.242,-0.216
8.243,-0.213
8.244,-0.222
8.245,-0.234
8.246,-0.242
8.247,-0.250
8.248,-0.263
8.249,-0.275
8.250,-0.291
8.251,-0.303
8.252,-0.309
8.253,-0.316
8.254,-0.322
8.255,-0.331
8.256,-0.311
8.257,-0.291
8.258,-0.251
8.259,-0.216
8.260,-0.161
8.261,-0.106
8.262,-0.038
8.263,0.031
8.264,0.107
8.265,0.181
8.266,0.249
8.267,0.316
8.268,0.391
8.269,0.472
8.270,0.569
8.271,0.666
8.272,0.761
8.273,0.853
8.274,0.945
8.275,1.037
8.276,1.116
8.277,1.187
8.278,1.230
8.279,1.266
8.280,1.296
8.281,1.328
8.282,1.380
8.283,1.437
8.284,1.487
8.285,1.531
8.286,1.545
8.287,1.556
8.288,1.550
8.289,1.522
8.290,1.387
8.291,1.237
8.292,1.047
8.293,0.859
8.294,0.700
8.295,0.547
8.296,0.411
8.297,0.278
8.298,0.164
8.299,0.059
8.300,-0.022
8.301,-0.094
8.302,-0.134
8.303,-0.169
8.304,-0.194
8.305,-0.219
8.306,-0.256
8.307,-0.297
8.308,-0.318
8.309,-0.344
8.310,-0.372
8.311,-0.381
8.312,-0.397
8.313,-0.409
8.314,-0.411
8.315,-0.413
8.316,-0.413
8.317,-0.416
8.318,-0.416
8.319,-0.413
8.320,-0.402
8.321,-0.388
8.322,-0.375
8.323,-0.366
8.324,-0.347
8.325,-0.331
8.326,-0.313
8.327,-0.297
8.328,-0.274
8.329,-0.250
8.330,-0.236
8.331,-0.228
8.332,-0.223
8.333,-0.216
8.334,-0.209
8.335,-0.200
8.336,-0.197
8.337,-0.194
8.338,-0.186
8.339,-0.184
8.340,-0.183
8.341,-0.178
8.342,-0.176
8.343,-0.175
8.344,-0.172
8.345,-0.172
8.346,-0.169
8.347,-0.169
8.348,-0.166
8.349,-0.163
8.350,-0.159
8.351,-0.166
8.352,-0.172
8.353,-0.178
8.354,-0.172
8.355,-0.166
8.356,-0.163
8.357,-0.163
8.358,-0.166
8.359,-0.163
8.360,-0.161
8.361,-0.156
8.362,-0.153
8.363,-0.150
8.364,-0.147
8.365,-0.147
8.366,-0.145
8.367,-0.147
8.368,-0.147
8.369,-0.147
8.370,-0.154
8.371,-0.166
8.372,-0.166
8.373,-0.166
8.374,-0.158
8.375,-0.150
8.376,-0.139
8.377,-0.128
8.378,-0.120
8.379,-0.122
8.380,-0.128
8.381,-0.131
8.382,-0.125
8.383,-0.119
8.384,-0.118
8.385,-0.116
8.386,-0.122
8.387,-0.125
8.388,-0.129
8.389,-0.134
8.390,-0.138
8.391,-0.141
8.392,-0.134
8.393,-0.131
8.394,-0.124
8.395,-0.116
8.396,-0.106
8.397,-0.097
8.398,-0.096
8.399,-0.094
8.400,-0.095
8.401,-0.094
8.402,-0.094
8.403,-0.097
8.404,-0.094
8.405,-0.094
8.406,-0.094
8.407,-0.094
8.408,-0.086
8.409,-0.078
8.410,-0.071
8.411,-0.069
8.412,-0.064
8.413,-0.069
8.414,-0.063
8.415,-0.056
8.416,-0.053
8.417,-0.050
8.418,-0.048
8.419,-0.047
8.420,-0.056
8.421,-0.053
8.422,-0.061
8.423,-0.063
8.424,-0.059
8.425,-0.050
8.426,-0.043
8.427,-0.034
8.428,-0.039
8.429,-0.044
8.430,-0.050
8.431,-0.053
8.432,-0.053
8.433,-0.053
8.434,-0.053
8.435,-0.050
8.436,-0.043
8.437,-0.028
8.438,-0.022
8.439,-0.016
8.440,-0.014
8.441,-0.013
8.442,-0.017
8.443,-0.016
8.444,-0.011
8.445,-0.006
8.446,-0.003
8.447,0.006
8.448,0.022
8.449,0.044
8.450,0.050
8.451,0.056
8.452,0.059
8.453,0.059
8.454,0.058
8.455,0.062
8.456,0.059
8.457,0.059
8.458,0.059
8.459,0.059
8.460,0.061
8.461,0.066
8.462,0.073
8.463,0.084
8.464,0.087
8.465,0.094
8.466,0.089
8.467,0.084
8.468,0.091
8.469,0.094
8.470,0.097
8.471,0.100
8.472,0.107
8.473,0.116
8.474,0.117
8.475,0.122
8.476,0.114
8.477,0.113
8.478,0.123
8.479,0.131
8.480,0.134
8.481,0.137
8.482,0.137
8.483,0.131
8.484,0.139
8.485,0.147
8.486,0.146
8.487,0.147
8.488,0.144
8.489,0.147
8.490,0.150
8.491,0.150
8.492,0.154
8.493,0.162
8.494,0.166
8.495,0.162
8.496,0.159
8.497,0.150
8.498,0.149
8.499,0.147
8.500,0.150
8.501,0.156
8.502,0.161
8.503,0.162
8.504,0.172
8.505,0.181
8.506,0.174
8.507,0.172
8.508,0.156
8.509,0.147
8.510,0.150
8.511,0.147
8.512,0.142
8.513,0.134
8.514,0.128
8.515,0.122
8.516,0.128
8.517,0.131
8.518,0.142
8.519,0.150
8.520,0.141
8.521,0.131
8.522,0.125
8.523,0.122
8.524,0.116
8.525,0.106
8.526,0.104
8.527,0.106
8.528,0.113
8.529,0.116
8.530,0.113
8.531,0.106
8.532,0.106
8.533,0.097
8.534,0.084
8.535,0.072
8.536,0.059
8.537,0.053
8.538,0.050
8.539,0.047
8.540,0.030
8.541,0.012
8.542,0.006
8.543,-0.006
8.544,-0.006
8.545,-0.006
8.546,-0.008
8.547,-0.009
8.548,-0.020
8.549,-0.025
8.550,-0.031
8.551,-0.038
8.552,-0.044
8.553,-0.047
8.554,-0.047
8.555,-0.047
8.556,-0.047
8.557,-0.047
8.558,-0.053
8.559,-0.056
8.560,-0.056
8.561,-0.053
8.562,-0.066
8.563,-0.078
8.564,-0.089
8.565,-0.094
8.566,-0.097
8.567,-0.097
8.568,-0.099
8.569,-0.100
8.570,-0.103
8.571,-0.106
8.572,-0.106
8.573,-0.109
8.574,-0.106
8.575,-0.106
8.576,-0.113
8.577,-0.119
8.578,-0.122
8.579,-0.119
8.580,-0.125
8.581,-0.134
8.582,-0.134
8.583,-0.134
8.584,-0.133
8.585,-0.134
8.586,-0.136
8.587,-0.131
8.588,-0.127
8.589,-0.128
8.590,-0.136
8.591,-0.150
8.592,-0.153
8.593,-0.163
8.594,-0.158
8.595,-0.156
8.596,-0.149
8.597,-0.144
8.598,-0.144
8.599,-0.147
8.600,-0.156
8.601,-0.166
8.602,-0.173
8.603,-0.178
8.604,-0.178
8.605,-0.181
8.606,-0.172
8.607,-0.159
8.608,-0.156
8.609,-0.153
8.610,-0.163
8.611,-0.169
8.612,-0.161
8.613,-0.153
8.614,-0.150
8.615,-0.144
8.616,-0.134
8.617,-0.119
8.618,-0.122
8.619,-0.125
8.620,-0.132
8.621,-0.150
8.622,-0.152
8.623,-0.150
8.624,-0.150
8.625,-0.150
8.626,-0.150
8.627,-0.150
8.628,-0.148
8.629,-0.147
8.630,-0.147
8.631,-0.150
8.632,-0.138
8.633,-0.131
8.634,-0.134
8.635,-0.138
8.636,-0.133
8.637,-0.128
8.638,-0.122
8.639,-0.116
8.640,-0.116
8.641,-0.113
8.642,-0.113
8.643,-0.113
8.644,-0.117
8.645,-0.122
8.646,-0.126
8.647,-0.125
8.648,-0.122
8.649,-0.122
8.650,-0.126
8.651,-0.122
8.652,-0.126
8.653,-0.125
8.654,-0.125
8.655,-0.125
8.656,-0.124
8.657,-0.119
8.658,-0.114
8.659,-0.113
8.660,-0.113
8.661,-0.109
8.662,-0.105
8.663,-0.100
8.664,-0.103
8.665,-0.106
8.666,-0.103
8.667,-0.100
8.668,-0.100
8.669,-0.100
8.670,-0.106
8.671,-0.109
8.672,-0.117
8.673,-0.119
8.674,-0.116
8.675,-0.103
8.676,-0.099
8.677,-0.094
8.678,-0.089
8.679,-0.088
8.680,-0.088
8.681,-0.088
8.682,-0.080
8.683,-0.072
8.684,-0.081
8.685,-0.091
8.686,-0.095
8.687,-0.100
8.688,-0.106
8.689,-0.113
8.690,-0.120
8.691,-0.119
8.692,-0.120
8.693,-0.125
8.694,-0.118
8.695,-0.109
8.696,-0.108
8.697,-0.106
8.698,-0.113
8.699,-0.122
8.700,-0.118
8.701,-0.116
8.702,-0.106
8.703,-0.100
8.704,-0.097
8.705,-0.088
8.706,-0.084
8.707,-0.075
8.708,-0.088
8.709,-0.097
8.710,-0.098
8.711,-0.103
8.712,-0.103
8.713,-0.103
8.714,-0.102
8.715,-0.103
8.716,-0.106
8.717,-0.109
8.718,-0.104
8.719,-0.113
8.720,-0.108
8.721,-0.097
8.722,-0.094
8.723,-0.091
8.724,-0.095
8.725,-0.097
8.726,-0.100
8.727,-0.100
8.728,-0.096
8.729,-0.091
8.730,-0.086
8.731,-0.075
8.732,-0.081
8.733,-0.084
8.734,-0.059
8.735,-0.031
8.736,-0.024
8.737,-0.009
8.738,-0.011
8.739,-0.016
8.740,-0.017
8.741,-0.022
8.742,-0.029
8.743,-0.038
8.744,-0.044
8.745,-0.050
8.746,-0.053
8.747,-0.056
8.748,-0.046
8.749,-0.038
8.750,-0.022
8.751,0.000
8.752,0.005
8.753,0.009
8.754,0.011
8.755,0.012
8.756,0.023
8.757,0.028
8.758,0.039
8.759,0.044
8.760,0.053
8.761,0.066
8.762,0.082
8.763,0.097
8.764,0.103
8.765,0.109
8.766,0.102
8.767,0.091
8.768,0.086
8.769,0.075
8.770,0.087
8.771,0.100
8.772,0.100
8.773,0.087
8.774,0.089
8.775,0.094
8.776,0.094
8.777,0.097
8.778,0.102
8.779,0.103
8.780,0.103
8.781,0.106
8.782,0.106
8.783,0.106
8.784,0.105
8.785,0.103
8.786,0.103
8.787,0.094
8.788,0.095
8.789,0.087
8.790,0.087
8.791,0.084
8.792,0.082
8.793,0.084
8.794,0.066
8.795,0.062
8.796,0.055
8.797,0.041
8.798,0.019
8.799,0.003
8.800,-0.019
8.801,-0.038
8.802,-0.041
8.803,-0.050
8.804,-0.069
8.805,-0.084
8.806,-0.084
8.807,-0.084
8.808,-0.088
8.809,-0.084
8.810,-0.086
8.811,-0.084
8.812,-0.091
8.813,-0.091
8.814,-0.084
8.815,-0.088
8.816,-0.089
8.817,-0.088
8.818,-0.089
8.819,-0.091
8.820,-0.097
8.821,-0.097
8.822,-0.108
8.823,-0.119
8.824,-0.128
8.825,-0.138
8.826,-0.141
8.827,-0.141
8.828,-0.144
8.829,-0.144
8.830,-0.146
8.831,-0.144
8.832,-0.133
8.833,-0.125
8.834,-0.125
8.835,-0.128
8.836,-0.126
8.837,-0.128
8.838,-0.125
8.839,-0.122
8.840,-0.113
8.841,-0.103
8.842,-0.103
8.843,-0.103
8.844,-0.114
8.845,-0.122
8.846,-0.128
8.847,-0.134
8.848,-0.133
8.849,-0.128
8.850,-0.114
8.851,-0.097
8.852,-0.100
8.853,-0.094
8.854,-0.097
8.855,-0.103
8.856,-0.106
8.857,-0.109
8.858,-0.111
8.859,-0.119
8.860,-0.122
8.861,-0.122
8.862,-0.139
8.863,-0.163
8.864,-0.172
8.865,-0.181
8.866,-0.184
8.867,-0.178
8.868,-0.181
8.869,-0.178
8.870,-0.184
8.871,-0.175
8.872,-0.166
8.873,-0.134
8.874,-0.103
8.875,-0.056
8.876,-0.009
8.877,0.050
8.878,0.108
8.879,0.166
8.880,0.216
8.881,0.275
8.882,0.336
8.883,0.400
8.884,0.472
8.885,0.553
8.886,0.648
8.887,0.741
8.888,0.829
8.889,0.916
8.890,1.004
8.891,1.087
8.892,1.175
8.893,1.241
8.894,1.269
8.895,1.294
8.896,1.327
8.897,1.372
8.898,1.434
8.899,1.484
8.900,1.531
8.901,1.541
8.902,1.559
8.903,1.559
8.904,1.573
8.905,1.506
8.906,1.404
8.907,1.269
8.908,1.120
8.909,0.997
8.910,0.869
8.911,0.753
8.912,0.628
8.913,0.519
8.914,0.408
8.915,0.319
8.916,0.242
8.917,0.184
8.918,0.144
8.919,0.106
8.920,0.069
8.921,0.031
8.922,-0.014
8.923,-0.056
8.924,-0.104
8.925,-0.150
8.926,-0.198
8.927,-0.234
8.928,-0.263
8.929,-0.284
8.930,-0.292
8.931,-0.294
8.932,-0.292
8.933,-0.281
8.934,-0.270
8.935,-0.269
8.936,-0.266
8.937,-0.263
8.938,-0.261
8.939,-0.247
8.940,-0.236
8.941,-0.225
8.942,-0.206
8.943,-0.181
8.944,-0.159
8.945,-0.147
8.946,-0.139
8.947,-0.128
8.948,-0.119
8.949,-0.113
8.950,-0.103
8.951,-0.103
8.952,-0.093
8.953,-0.078
8.954,-0.077
8.955,-0.066
8.956,-0.059
8.957,-0.056
8.958,-0.039
8.959,-0.025
8.960,-0.031
8.961,-0.038
8.962,-0.042
8.963,-0.044
8.964,-0.045
8.965,-0.038
8.966,-0.041
8.967,-0.047
8.968,-0.050
8.969,-0.047
8.970,-0.036
8.971,-0.025
8.972,-0.024
8.973,-0.022
8.974,-0.019
8.975,-0.022
8.976,-0.025
8.977,-0.028
8.978,-0.028
8.979,-0.031
8.980,-0.036
8.981,-0.034
8.982,-0.033
8.983,-0.031
8.984,-0.027
8.985,-0.025
8.986,-0.024
8.987,-0.016
8.988,-0.016
8.989,-0.009
8.990,-0.003
8.991,0.000
8.992,0.002
8.993,0.009
8.994,0.017
8.995,0.022
8.996,0.021
8.997,0.022
8.998,0.022
8.999,0.019
9.000,0.022
9.001,0.022
9.002,0.023
9.003,0.025
9.004,0.025
9.005,0.025
9.006,0.022
9.007,0.025
9.008,0.018
9.009,0.009
9.010,0.009
9.011,0.009
9.012,0.017
9.013,0.022
9.014,0.021
9.015,0.019
9.016,0.022
9.017,0.022
9.018,0.023
9.019,0.031
9.020,0.038
9.021,0.044
9.022,0.036
9.023,0.034
9.024,0.038
9.025,0.038
9.026,0.036
9.027,0.044
9.028,0.042
9.029,0.044
9.030,0.042
9.031,0.044
9.032,0.046
9.033,0.047
9.034,0.053
9.035,0.050
9.036,0.055
9.037,0.053
9.038,0.055
9.039,0.053
9.040,0.069
9.041,0.081
9.042,0.091
9.043,0.094
9.044,0.094
9.045,0.094
9.046,0.094
9.047,0.094
9.048,0.098
9.049,0.103
9.050,0.108
9.051,0.106
9.052,0.106
9.053,0.103
9.054,0.109
9.055,0.116
9.056,0.128
9.057,0.137
9.058,0.144
9.059,0.150
9.060,0.153
9.061,0.150
9.062,0.156
9.063,0.156
9.064,0.156
9.065,0.153
9.066,0.153
9.067,0.153
9.068,0.159
9.069,0.166
9.070,0.175
9.071,0.175
9.072,0.174
9.073,0.175
9.074,0.174
9.075,0.175
9.076,0.183
9.077,0.184
9.078,0.189
9.079,0.191
9.080,0.194
9.081,0.191
9.082,0.186
9.083,0.184
9.084,0.188
9.085,0.194
9.086,0.198
9.087,0.203
9.088,0.206
9.089,0.206
9.090,0.206
9.091,0.200
9.092,0.209
9.093,0.219
9.094,0.222
9.095,0.225
9.096,0.221
9.097,0.219
9.098,0.217
9.099,0.222
9.100,0.216
9.101,0.206
9.102,0.206
9.103,0.200
9.104,0.204
9.105,0.209
9.106,0.212
9.107,0.216
9.108,0.222
9.109,0.228
9.110,0.219
9.111,0.212
9.112,0.203
9.113,0.200
9.114,0.201
9.115,0.203
9.116,0.200
9.117,0.194
9.118,0.188
9.119,0.188
9.120,0.192
9.121,0.191
9.122,0.195
9.123,0.191
9.124,0.186
9.125,0.181
9.126,0.176
9.127,0.178
9.128,0.181
9.129,0.188
9.130,0.192
9.131,0.197
9.132,0.197
9.133,0.200
9.134,0.206
9.135,0.212
9.136,0.209
9.137,0.203
9.138,0.200
9.139,0.200
9.140,0.197
9.141,0.194
9.142,0.191
9.143,0.184
9.144,0.171
9.145,0.162
9.146,0.158
9.147,0.156
9.148,0.144
9.149,0.134
9.150,0.125
9.151,0.113
9.152,0.109
9.153,0.103
9.154,0.096
9.155,0.091
9.156,0.091
9.157,0.094
9.158,0.098
9.159,0.100
9.160,0.089
9.161,0.081
9.162,0.071
9.163,0.056
9.164,0.049
9.165,0.038
9.166,0.034
9.167,0.028
9.168,0.016
9.169,0.003
9.170,-0.009
9.171,-0.019
9.172,-0.021
9.173,-0.025
9.174,-0.028
9.175,-0.031
9.176,-0.033
9.177,-0.044
9.178,-0.049
9.179,-0.050
9.180,-0.043
9.181,-0.041
9.182,-0.043
9.183,-0.044
9.184,-0.050
9.185,-0.053
9.186,-0.056
9.187,-0.063
9.188,-0.075
9.189,-0.081
9.190,-0.083
9.191,-0.088
9.192,-0.097
9.193,-0.103
9.194,-0.100
9.195,-0.103
9.196,-0.109
9.197,-0.113
9.198,-0.119
9.199,-0.122
9.200,-0.125
9.201,-0.131
9.202,-0.132
9.203,-0.131
9.204,-0.138
9.205,-0.141
9.206,-0.143
9.207,-0.134
9.208,-0.128
9.209,-0.119
9.210,-0.122
9.211,-0.122
9.212,-0.129
9.213,-0.134
9.214,-0.139
9.215,-0.141
9.216,-0.139
9.217,-0.141
9.218,-0.139
9.219,-0.138
9.220,-0.134
9.221,-0.128
9.222,-0.118
9.223,-0.106
9.224,-0.108
9.225,-0.116
9.226,-0.128
9.227,-0.138
9.228,-0.134
9.229,-0.138
9.230,-0.131
9.231,-0.128
9.232,-0.119
9.233,-0.113
9.234,-0.117
9.235,-0.119
9.236,-0.131
9.237,-0.141
9.238,-0.144
9.239,-0.144
9.240,-0.139
9.241,-0.141
9.242,-0.144
9.243,-0.141
9.244,-0.134
9.245,-0.128
9.246,-0.131
9.247,-0.131
9.248,-0.134
9.249,-0.134
9.250,-0.134
9.251,-0.134
9.252,-0.138
9.253,-0.138
9.254,-0.131
9.255,-0.131
9.256,-0.136
9.257,-0.141
9.258,-0.144
9.259,-0.144
9.260,-0.128
9.261,-0.119
9.262,-0.109
9.263,-0.100
9.264,-0.100
9.265,-0.103
9.266,-0.101
9.267,-0.109
9.268,-0.108
9.269,-0.109
9.270,-0.111
9.271,-0.113
9.272,-0.116
9.273,-0.119
9.274,-0.116
9.275,-0.116
9.276,-0.111
9.277,-0.109
9.278,-0.108
9.279,-0.109
9.280,-0.114
9.281,-0.122
9.282,-0.124
9.283,-0.122
9.284,-0.123
9.285,-0.122
9.286,-0.116
9.287,-0.109
9.288,-0.100
9.289,-0.091
9.290,-0.094
9.291,-0.097
9.292,-0.100
9.293,-0.103
9.294,-0.116
9.295,-0.125
9.296,-0.122
9.297,-0.113
9.298,-0.114
9.299,-0.106
9.300,-0.111
9.301,-0.116
9.302,-0.114
9.303,-0.116
9.304,-0.116
9.305,-0.116
9.306,-0.117
9.307,-0.119
9.308,-0.121
9.309,-0.122
9.310,-0.121
9.311,-0.119
9.312,-0.122
9.313,-0.125
9.314,-0.127
9.315,-0.119
9.316,-0.111
9.317,-0.106
9.318,-0.105
9.319,-0.103
9.320,-0.099
9.321,-0.094
9.322,-0.093
9.323,-0.094
9.324,-0.095
9.325,-0.100
9.326,-0.101
9.327,-0.106
9.328,-0.113
9.329,-0.113
9.330,-0.116
9.331,-0.113
9.332,-0.120
9.333,-0.125
9.334,-0.134
9.335,-0.147
9.336,-0.146
9.337,-0.144
9.338,-0.143
9.339,-0.144
9.340,-0.111
9.341,-0.078
9.342,-0.033
9.343,0.000
9.344,-0.004
9.345,-0.003
9.346,-0.003
9.347,-0.003
9.348,-0.031
9.349,-0.056
9.350,-0.083
9.351,-0.106
9.352,-0.111
9.353,-0.116
9.354,-0.114
9.355,-0.106
9.356,-0.102
9.357,-0.094
9.358,-0.091
9.359,-0.084
9.360,-0.081
9.361,-0.072
9.362,-0.063
9.363,-0.056
9.364,-0.053
9.365,-0.053
9.366,-0.047
9.367,-0.041
9.368,-0.039
9.369,-0.038
9.370,-0.038
9.371,-0.038
9.372,-0.034
9.373,-0.034
9.374,-0.038
9.375,-0.034
9.376,-0.034
9.377,-0.034
9.378,-0.027
9.379,-0.019
9.380,-0.006
9.381,0.000
9.382,0.016
9.383,0.025
9.384,0.039
9.385,0.056
9.386,0.070
9.387,0.081
9.388,0.080
9.389,0.078
9.390,0.072
9.391,0.062
9.392,0.061
9.393,0.053
9.394,0.052
9.395,0.050
9.396,0.062
9.397,0.062
9.398,0.050
9.399,0.041
9.400,0.045
9.401,0.053
9.402,0.064
9.403,0.072
9.404,0.078
9.405,0.087
9.406,0.094
9.407,0.100
9.408,0.099
9.409,0.097
9.410,0.096
9.411,0.084
9.412,0.080
9.413,0.066
9.414,0.055
9.415,0.041
9.416,0.029
9.417,0.022
9.418,0.005
9.419,0.003
9.420,0.000
9.421,-0.009
9.422,-0.026
9.423,-0.038
9.424,-0.053
9.425,-0.066
9.426,-0.068
9.427,-0.075
9.428,-0.089
9.429,-0.100
9.430,-0.111
9.431,-0.122
9.432,-0.134
9.433,-0.141
9.434,-0.143
9.435,-0.141
9.436,-0.150
9.437,-0.153
9.438,-0.153
9.439,-0.163
9.440,-0.169
9.441,-0.172
9.442,-0.174
9.443,-0.175
9.444,-0.174
9.445,-0.166
9.446,-0.166
9.447,-0.166
9.448,-0.167
9.449,-0.169
9.450,-0.175
9.451,-0.178
9.452,-0.183
9.453,-0.184
9.454,-0.184
9.455,-0.181
9.456,-0.180
9.457,-0.181
9.458,-0.181
9.459,-0.184
9.460,-0.181
9.461,-0.181
9.462,-0.183
9.463,-0.184
9.464,-0.184
9.465,-0.184
9.466,-0.184
9.467,-0.184
9.468,-0.184
9.469,-0.181
9.470,-0.183
9.471,-0.184
9.472,-0.183
9.473,-0.178
