'Elapsed time','II'
'seconds','mV'
0.000,-0.116
0.001,-0.116
0.002,-0.116
0.003,-0.116
0.004,-0.117
0.005,-0.119
0.006,-0.122
0.007,-0.125
0.008,-0.125
0.009,-0.125
0.010,-0.124
0.011,-0.122
0.012,-0.122
0.013,-0.122
0.014,-0.122
0.015,-0.122
0.016,-0.122
0.017,-0.122
0.018,-0.122
0.019,-0.122
0.020,-0.121
0.021,-0.119
0.022,-0.118
0.023,-0.116
0.024,-0.117
0.025,-0.119
0.026,-0.120
0.027,-0.122
0.028,-0.123
0.029,-0.125
0.030,-0.122
0.031,-0.119
0.032,-0.120
0.033,-0.122
0.034,-0.122
0.035,-0.122
0.036,-0.122
0.037,-0.122
0.038,-0.122
0.039,-0.122
0.040,-0.123
0.041,-0.125
0.042,-0.125
0.043,-0.125
0.044,-0.126
0.045,-0.128
0.046,-0.128
0.047,-0.128
0.048,-0.127
0.049,-0.125
0.050,-0.126
0.051,-0.128
0.052,-0.127
0.053,-0.125
0.054,-0.125
0.055,-0.125
0.056,-0.125
0.057,-0.125
0.058,-0.125
0.059,-0.125
0.060,-0.125
0.061,-0.125
0.062,-0.126
0.063,-0.128
0.064,-0.128
0.065,-0.128
0.066,-0.129
0.067,-0.131
0.068,-0.131
0.069,-0.131
0.070,-0.131
0.071,-0.131
0.072,-0.133
0.073,-0.134
0.074,-0.134
0.075,-0.134
0.076,-0.133
0.077,-0.131
0.078,-0.131
0.079,-0.131
0.080,-0.131
0.081,-0.131
0.082,-0.131
0.083,-0.131
0.084,-0.131
0.085,-0.131
0.086,-0.131
0.087,-0.131
0.088,-0.131
0.089,-0.131
0.090,-0.131
0.091,-0.131
0.092,-0.131
0.093,-0.131
0.094,-0.131
0.095,-0.131
0.096,-0.133
0.097,-0.134
0.098,-0.134
0.099,-0.134
0.100,-0.134
0.101,-0.134
0.102,-0.136
0.103,-0.138
0.104,-0.134
0.105,-0.131
0.106,-0.131
0.107,-0.131
0.108,-0.133
0.109,-0.134
0.110,-0.133
0.111,-0.131
0.112,-0.133
0.113,-0.134
0.114,-0.133
0.115,-0.131
0.116,-0.131
0.117,-0.131
0.118,-0.133
0.119,-0.134
0.120,-0.134
0.121,-0.134
0.122,-0.133
0.123,-0.131
0.124,-0.131
0.125,-0.131
0.126,-0.131
0.127,-0.131
0.128,-0.134
0.129,-0.138
0.130,-0.138
0.131,-0.138
0.132,-0.139
0.133,-0.141
0.134,-0.141
0.135,-0.141
0.136,-0.141
0.137,-0.141
0.138,-0.139
0.139,-0.138
0.140,-0.139
0.141,-0.141
0.142,-0.141
0.143,-0.141
0.144,-0.141
0.145,-0.141
0.146,-0.141
0.147,-0.141
0.148,-0.141
0.149,-0.141
0.150,-0.141
0.151,-0.141
0.152,-0.142
0.153,-0.144
0.154,-0.144
0.155,-0.144
0.156,-0.144
0.157,-0.144
0.158,-0.144
0.159,-0.144
0.160,-0.143
0.161,-0.141
0.162,-0.141
0.163,-0.141
0.164,-0.141
0.165,-0.141
0.166,-0.142
0.167,-0.144
0.168,-0.144
0.169,-0.144
0.170,-0.144
0.171,-0.144
0.172,-0.144
0.173,-0.144
0.174,-0.145
0.175,-0.147
0.176,-0.147
0.177,-0.147
0.178,-0.147
0.179,-0.147
0.180,-0.147
0.181,-0.147
0.182,-0.146
0.183,-0.144
0.184,-0.147
0.185,-0.150
0.186,-0.150
0.187,-0.150
0.188,-0.150
0.189,-0.150
0.190,-0.149
0.191,-0.147
0.192,-0.147
0.193,-0.147
0.194,-0.147
0.195,-0.147
0.196,-0.147
0.197,-0.147
0.198,-0.146
0.199,-0.144
0.200,-0.145
0.201,-0.147
0.202,-0.147
0.203,-0.147
0.204,-0.147
0.205,-0.147
0.206,-0.147
0.207,-0.147
0.208,-0.148
0.209,-0.147
0.210,-0.147
0.211,-0.144
0.212,-0.143
0.213,-0.141
0.214,-0.144
0.215,-0.144
0.216,-0.142
0.217,-0.144
0.218,-0.144
0.219,-0.144
0.220,-0.146
0.221,-0.141
0.222,-0.142
0.223,-0.144
0.224,-0.144
0.225,-0.144
0.226,-0.141
0.227,-0.144
0.228,-0.144
0.229,-0.144
0.230,-0.145
0.231,-0.144
0.232,-0.141
0.233,-0.134
0.234,-0.138
0.235,-0.141
0.236,-0.141
0.237,-0.141
0.238,-0.147
0.239,-0.147
0.240,-0.147
0.241,-0.147
0.242,-0.151
0.243,-0.150
0.244,-0.147
0.245,-0.147
0.246,-0.145
0.247,-0.147
0.248,-0.148
0.249,-0.147
0.250,-0.146
0.251,-0.147
0.252,-0.146
0.253,-0.147
0.254,-0.148
0.255,-0.147
0.256,-0.147
0.257,-0.147
0.258,-0.150
0.259,-0.153
0.260,-0.152
0.261,-0.150
0.262,-0.149
0.263,-0.147
0.264,-0.146
0.265,-0.147
0.266,-0.147
0.267,-0.147
0.268,-0.148
0.269,-0.147
0.270,-0.147
0.271,-0.147
0.272,-0.147
0.273,-0.147
0.274,-0.148
0.275,-0.147
0.276,-0.150
0.277,-0.150
0.278,-0.151
0.279,-0.153
0.280,-0.153
0.281,-0.153
0.282,-0.152
0.283,-0.150
0.284,-0.151
0.285,-0.153
0.286,-0.150
0.287,-0.147
0.288,-0.150
0.289,-0.153
0.290,-0.154
0.291,-0.156
0.292,-0.158
0.293,-0.156
0.294,-0.152
0.295,-0.150
0.296,-0.153
0.297,-0.153
0.298,-0.154
0.299,-0.156
0.300,-0.158
0.301,-0.156
0.302,-0.158
0.303,-0.156
0.304,-0.156
0.305,-0.156
0.306,-0.156
0.307,-0.159
0.308,-0.158
0.309,-0.159
0.310,-0.158
0.311,-0.153
0.312,-0.155
0.313,-0.150
0.314,-0.153
0.315,-0.153
0.316,-0.152
0.317,-0.150
0.318,-0.150
0.319,-0.150
0.320,-0.147
0.321,-0.150
0.322,-0.150
0.323,-0.153
0.324,-0.159
0.325,-0.163
0.326,-0.159
0.327,-0.156
0.328,-0.158
0.329,-0.159
0.330,-0.159
0.331,-0.159
0.332,-0.156
0.333,-0.153
0.334,-0.158
0.335,-0.156
0.336,-0.158
0.337,-0.159
0.338,-0.159
0.339,-0.159
0.340,-0.161
0.341,-0.163
0.342,-0.161
0.343,-0.159
0.344,-0.161
0.345,-0.159
0.346,-0.161
0.347,-0.163
0.348,-0.166
0.349,-0.163
0.350,-0.163
0.351,-0.156
0.352,-0.153
0.353,-0.150
0.354,-0.153
0.355,-0.150
0.356,-0.154
0.357,-0.153
0.358,-0.153
0.359,-0.153
0.360,-0.152
0.361,-0.150
0.362,-0.151
0.363,-0.153
0.364,-0.151
0.365,-0.153
0.366,-0.152
0.367,-0.150
0.368,-0.149
0.369,-0.147
0.370,-0.146
0.371,-0.147
0.372,-0.150
0.373,-0.147
0.374,-0.149
0.375,-0.147
0.376,-0.151
0.377,-0.150
0.378,-0.151
0.379,-0.153
0.380,-0.152
0.381,-0.150
0.382,-0.150
0.383,-0.150
0.384,-0.151
0.385,-0.153
0.386,-0.152
0.387,-0.150
0.388,-0.151
0.389,-0.150
0.390,-0.152
0.391,-0.150
0.392,-0.154
0.393,-0.153
0.394,-0.156
0.395,-0.159
0.396,-0.156
0.397,-0.156
0.398,-0.158
0.399,-0.156
0.400,-0.153
0.401,-0.153
0.402,-0.155
0.403,-0.153
0.404,-0.150
0.405,-0.153
0.406,-0.152
0.407,-0.150
0.408,-0.147
0.409,-0.147
0.410,-0.148
0.411,-0.150
0.412,-0.153
0.413,-0.156
0.414,-0.158
0.415,-0.156
0.416,-0.154
0.417,-0.156
0.418,-0.156
0.419,-0.156
0.420,-0.155
0.421,-0.153
0.422,-0.156
0.423,-0.153
0.424,-0.153
0.425,-0.156
0.426,-0.161
0.427,-0.163
0.428,-0.166
0.429,-0.166
0.430,-0.163
0.431,-0.156
0.432,-0.153
0.433,-0.153
0.434,-0.153
0.435,-0.156
0.436,-0.156
0.437,-0.156
0.438,-0.153
0.439,-0.150
0.440,-0.154
0.441,-0.156
0.442,-0.156
0.443,-0.156
0.444,-0.153
0.445,-0.153
0.446,-0.156
0.447,-0.156
0.448,-0.155
0.449,-0.153
0.450,-0.153
0.451,-0.150
0.452,-0.153
0.453,-0.153
0.454,-0.153
0.455,-0.153
0.456,-0.154
0.457,-0.156
0.458,-0.159
0.459,-0.159
0.460,-0.159
0.461,-0.159
0.462,-0.159
0.463,-0.159
0.464,-0.156
0.465,-0.156
0.466,-0.153
0.467,-0.153
0.468,-0.152
0.469,-0.150
0.470,-0.153
0.471,-0.153
0.472,-0.154
0.473,-0.153
0.474,-0.154
0.475,-0.156
0.476,-0.156
0.477,-0.156
0.478,-0.156
0.479,-0.156
0.480,-0.158
0.481,-0.159
0.482,-0.158
0.483,-0.156
0.484,-0.156
0.485,-0.156
0.486,-0.158
0.487,-0.156
0.488,-0.155
0.489,-0.153
0.490,-0.150
0.491,-0.153
0.492,-0.156
0.493,-0.153
0.494,-0.152
0.495,-0.150
0.496,-0.151
0.497,-0.150
0.498,-0.151
0.499,-0.150
0.500,-0.147
0.501,-0.144
0.502,-0.144
0.503,-0.144
0.504,-0.145
0.505,-0.144
0.506,-0.139
0.507,-0.134
0.508,-0.133
0.509,-0.131
0.510,-0.128
0.511,-0.131
0.512,-0.131
0.513,-0.128
0.514,-0.124
0.515,-0.116
0.516,-0.108
0.517,-0.100
0.518,-0.095
0.519,-0.091
0.520,-0.088
0.521,-0.084
0.522,-0.077
0.523,-0.069
0.524,-0.069
0.525,-0.066
0.526,-0.075
0.527,-0.084
0.528,-0.091
0.529,-0.100
0.530,-0.102
0.531,-0.103
0.532,-0.106
0.533,-0.106
0.534,-0.106
0.535,-0.103
0.536,-0.096
0.537,-0.088
0.538,-0.083
0.539,-0.075
0.540,-0.069
0.541,-0.062
0.542,-0.053
0.543,-0.044
0.544,-0.038
0.545,-0.028
0.546,-0.025
0.547,-0.028
0.548,-0.025
0.549,-0.025
0.550,-0.032
0.551,-0.044
0.552,-0.052
0.553,-0.059
0.554,-0.069
0.555,-0.081
0.556,-0.084
0.557,-0.088
0.558,-0.092
0.559,-0.100
0.560,-0.103
0.561,-0.106
0.562,-0.109
0.563,-0.119
0.564,-0.119
0.565,-0.122
0.566,-0.122
0.567,-0.125
0.568,-0.129
0.569,-0.131
0.570,-0.130
0.571,-0.128
0.572,-0.124
0.573,-0.125
0.574,-0.125
0.575,-0.125
0.576,-0.130
0.577,-0.134
0.578,-0.141
0.579,-0.144
0.580,-0.145
0.581,-0.153
0.582,-0.152
0.583,-0.150
0.584,-0.156
0.585,-0.159
0.586,-0.161
0.587,-0.163
0.588,-0.163
0.589,-0.163
0.590,-0.161
0.591,-0.159
0.592,-0.163
0.593,-0.163
0.594,-0.166
0.595,-0.166
0.596,-0.166
0.597,-0.166
0.598,-0.166
0.599,-0.166
0.600,-0.164
0.601,-0.163
0.602,-0.163
0.603,-0.163
0.604,-0.163
0.605,-0.166
0.606,-0.166
0.607,-0.163
0.608,-0.167
0.609,-0.166
0.610,-0.164
0.611,-0.163
0.612,-0.161
0.613,-0.163
0.614,-0.166
0.615,-0.163
0.616,-0.164
0.617,-0.163
0.618,-0.164
0.619,-0.159
0.620,-0.161
0.621,-0.163
0.622,-0.161
0.623,-0.163
0.624,-0.163
0.625,-0.163
0.626,-0.158
0.627,-0.159
0.628,-0.163
0.629,-0.163
0.630,-0.164
0.631,-0.163
0.632,-0.159
0.633,-0.159
0.634,-0.158
0.635,-0.159
0.636,-0.163
0.637,-0.163
0.638,-0.158
0.639,-0.156
0.640,-0.161
0.641,-0.159
0.642,-0.161
0.643,-0.159
0.644,-0.159
0.645,-0.159
0.646,-0.159
0.647,-0.163
0.648,-0.163
0.649,-0.163
0.650,-0.163
0.651,-0.166
0.652,-0.163
0.653,-0.163
0.654,-0.163
0.655,-0.166
0.656,-0.173
0.657,-0.178
0.658,-0.187
0.659,-0.200
0.660,-0.223
0.661,-0.250
0.662,-0.274
0.663,-0.300
0.664,-0.328
0.665,-0.356
0.666,-0.381
0.667,-0.403
0.668,-0.425
0.669,-0.444
0.670,-0.456
0.671,-0.462
0.672,-0.452
0.673,-0.434
0.674,-0.413
0.675,-0.391
0.676,-0.355
0.677,-0.319
0.678,-0.273
0.679,-0.228
0.680,-0.178
0.681,-0.119
0.682,-0.047
0.683,0.034
0.684,0.117
0.685,0.200
0.686,0.287
0.687,0.381
0.688,0.498
0.689,0.619
0.690,0.747
0.691,0.884
0.692,1.042
0.693,1.206
0.694,1.379
0.695,1.569
0.696,1.756
0.697,1.941
0.698,2.106
0.699,2.262
0.700,2.366
0.701,2.444
0.702,2.450
0.703,2.425
0.704,2.375
0.705,2.322
0.706,2.222
0.707,2.091
0.708,1.922
0.709,1.734
0.710,1.541
0.711,1.347
0.712,1.156
0.713,0.975
0.714,0.807
0.715,0.644
0.716,0.489
0.717,0.337
0.718,0.200
0.719,0.078
0.720,-0.002
0.721,-0.053
0.722,-0.092
0.723,-0.131
0.724,-0.153
0.725,-0.169
0.726,-0.174
0.727,-0.175
0.728,-0.174
0.729,-0.166
0.730,-0.156
0.731,-0.138
0.732,-0.112
0.733,-0.091
0.734,-0.067
0.735,-0.050
0.736,-0.029
0.737,-0.016
0.738,0.000
0.739,0.009
0.740,0.019
0.741,0.025
0.742,0.025
0.743,0.025
0.744,0.026
0.745,0.028
0.746,0.021
0.747,0.016
0.748,0.014
0.749,0.012
0.750,0.006
0.751,0.000
0.752,-0.008
0.753,-0.012
0.754,-0.019
0.755,-0.019
0.756,-0.025
0.757,-0.028
0.758,-0.030
0.759,-0.031
0.760,-0.030
0.761,-0.025
0.762,-0.025
0.763,-0.025
0.764,-0.026
0.765,-0.028
0.766,-0.029
0.767,-0.031
0.768,-0.033
0.769,-0.031
0.770,-0.032
0.771,-0.034
0.772,-0.034
0.773,-0.034
0.774,-0.034
0.775,-0.034
0.776,-0.034
0.777,-0.034
0.778,-0.036
0.779,-0.034
0.780,-0.034
0.781,-0.031
0.782,-0.031
0.783,-0.028
0.784,-0.028
0.785,-0.028
0.786,-0.031
0.787,-0.028
0.788,-0.025
0.789,-0.019
0.790,-0.022
0.791,-0.022
0.792,-0.022
0.793,-0.019
0.794,-0.018
0.795,-0.012
0.796,-0.016
0.797,-0.012
0.798,-0.012
0.799,-0.012
0.800,-0.008
0.801,-0.006
0.802,-0.006
0.803,-0.003
0.804,-0.004
0.805,-0.006
0.806,-0.003
0.807,0.000
0.808,0.000
0.809,0.000
0.810,0.000
0.811,0.003
0.812,0.004
0.813,0.006
0.814,0.008
0.815,0.003
0.816,0.011
0.817,0.012
0.818,0.017
0.819,0.016
0.820,0.012
0.821,0.016
0.822,0.019
0.823,0.022
0.824,0.024
0.825,0.022
0.826,0.022
0.827,0.025
0.828,0.029
0.829,0.031
0.830,0.032
0.831,0.031
0.832,0.036
0.833,0.038
0.834,0.041
0.835,0.038
0.836,0.036
0.837,0.034
0.838,0.038
0.839,0.041
0.840,0.042
0.841,0.044
0.842,0.050
0.843,0.053
0.844,0.055
0.845,0.053
0.846,0.053
0.847,0.053
0.848,0.054
0.849,0.056
0.850,0.059
0.851,0.059
0.852,0.062
0.853,0.062
0.854,0.061
0.855,0.062
0.856,0.061
0.857,0.062
0.858,0.064
0.859,0.066
0.860,0.072
0.861,0.075
0.862,0.079
0.863,0.084
0.864,0.084
0.865,0.084
0.866,0.084
0.867,0.084
0.868,0.083
0.869,0.084
0.870,0.083
0.871,0.084
0.872,0.086
0.873,0.091
0.874,0.092
0.875,0.094
0.876,0.096
0.877,0.097
0.878,0.098
0.879,0.103
0.880,0.103
0.881,0.103
0.882,0.106
0.883,0.106
0.884,0.106
0.885,0.106
0.886,0.111
0.887,0.116
0.888,0.119
0.889,0.119
0.890,0.121
0.891,0.122
0.892,0.123
0.893,0.125
0.894,0.125
0.895,0.131
0.896,0.134
0.897,0.137
0.898,0.141
0.899,0.141
0.900,0.144
0.901,0.144
0.902,0.145
0.903,0.150
0.904,0.153
0.905,0.156
0.906,0.155
0.907,0.156
0.908,0.156
0.909,0.159
0.910,0.164
0.911,0.169
0.912,0.166
0.913,0.169
0.914,0.170
0.915,0.172
0.916,0.178
0.917,0.181
0.918,0.181
0.919,0.181
0.920,0.183
0.921,0.187
0.922,0.192
0.923,0.194
0.924,0.196
0.925,0.197
0.926,0.204
0.927,0.209
0.928,0.213
0.929,0.213
0.930,0.214
0.931,0.216
0.932,0.220
0.933,0.228
0.934,0.228
0.935,0.234
0.936,0.233
0.937,0.234
0.938,0.237
0.939,0.244
0.940,0.250
0.941,0.253
0.942,0.259
0.943,0.263
0.944,0.266
0.945,0.269
0.946,0.272
0.947,0.275
0.948,0.281
0.949,0.287
0.950,0.291
0.951,0.297
0.952,0.300
0.953,0.300
0.954,0.307
0.955,0.312
0.956,0.317
0.957,0.322
0.958,0.325
0.959,0.328
0.960,0.339
0.961,0.341
0.962,0.349
0.963,0.353
0.964,0.358
0.965,0.359
0.966,0.366
0.967,0.372
0.968,0.377
0.969,0.381
0.970,0.384
0.971,0.391
0.972,0.394
0.973,0.400
0.974,0.405
0.975,0.409
0.976,0.417
0.977,0.425
0.978,0.430
0.979,0.434
0.980,0.436
0.981,0.441
0.982,0.445
0.983,0.453
0.984,0.458
0.985,0.459
0.986,0.461
0.987,0.469
0.988,0.473
0.989,0.478
0.990,0.483
0.991,0.488
0.992,0.491
0.993,0.491
0.994,0.497
0.995,0.503
0.996,0.509
0.997,0.516
0.998,0.520
0.999,0.525
1.000,0.531
1.001,0.531
1.002,0.537
1.003,0.547
1.004,0.549
1.005,0.550
1.006,0.552
1.007,0.550
1.008,0.550
1.009,0.550
1.010,0.556
1.011,0.559
1.012,0.561
1.013,0.562
1.014,0.562
1.015,0.566
1.016,0.569
1.017,0.572
1.018,0.569
1.019,0.569
1.020,0.569
1.021,0.569
1.022,0.569
1.023,0.569
1.024,0.569
1.025,0.566
1.026,0.561
1.027,0.556
1.028,0.556
1.029,0.556
1.030,0.553
1.031,0.553
1.032,0.546
1.033,0.537
1.034,0.530
1.035,0.522
1.036,0.516
1.037,0.509
1.038,0.504
1.039,0.500
1.040,0.489
1.041,0.484
1.042,0.473
1.043,0.466
1.044,0.452
1.045,0.438
1.046,0.421
1.047,0.406
1.048,0.394
1.049,0.384
1.050,0.375
1.051,0.362
1.052,0.349
1.053,0.337
1.054,0.323
1.055,0.309
1.056,0.297
1.057,0.284
1.058,0.272
1.059,0.259
1.060,0.249
1.061,0.234
1.062,0.219
1.063,0.203
1.064,0.191
1.065,0.181
1.066,0.173
1.067,0.166
1.068,0.155
1.069,0.141
1.070,0.133
1.071,0.125
1.072,0.112
1.073,0.100
1.074,0.089
1.075,0.078
1.076,0.073
1.077,0.066
1.078,0.059
1.079,0.050
1.080,0.041
1.081,0.034
1.082,0.027
1.083,0.016
1.084,0.009
1.085,0.003
1.086,0.001
1.087,-0.003
1.088,-0.006
1.089,-0.016
1.090,-0.022
1.091,-0.028
1.092,-0.032
1.093,-0.041
1.094,-0.041
1.095,-0.041
1.096,-0.053
1.097,-0.056
1.098,-0.058
1.099,-0.059
1.100,-0.062
1.101,-0.066
1.102,-0.072
1.103,-0.072
1.104,-0.074
1.105,-0.075
1.106,-0.075
1.107,-0.081
1.108,-0.083
1.109,-0.084
1.110,-0.086
1.111,-0.084
1.112,-0.086
1.113,-0.088
1.114,-0.088
1.115,-0.088
1.116,-0.091
1.117,-0.091
1.118,-0.089
1.119,-0.091
1.120,-0.092
1.121,-0.094
1.122,-0.094
1.123,-0.094
1.124,-0.098
1.125,-0.103
1.126,-0.106
1.127,-0.106
1.128,-0.103
1.129,-0.100
1.130,-0.100
1.131,-0.100
1.132,-0.096
1.133,-0.097
1.134,-0.101
1.135,-0.103
1.136,-0.099
1.137,-0.097
1.138,-0.092
1.139,-0.094
1.140,-0.092
1.141,-0.094
1.142,-0.094
1.143,-0.094
1.144,-0.097
1.145,-0.100
1.146,-0.103
1.147,-0.100
1.148,-0.101
1.149,-0.103
1.150,-0.100
1.151,-0.097
1.152,-0.094
1.153,-0.094
1.154,-0.092
1.155,-0.094
1.156,-0.094
1.157,-0.097
1.158,-0.097
1.159,-0.094
1.160,-0.094
1.161,-0.097
1.162,-0.096
1.163,-0.094
1.164,-0.094
1.165,-0.091
1.166,-0.092
1.167,-0.091
1.168,-0.089
1.169,-0.091
1.170,-0.089
1.171,-0.091
1.172,-0.092
1.173,-0.094
1.174,-0.094
1.175,-0.097
1.176,-0.094
1.177,-0.091
1.178,-0.091
1.179,-0.091
1.180,-0.091
1.181,-0.091
1.182,-0.088
1.183,-0.084
1.184,-0.084
1.185,-0.084
1.186,-0.086
1.187,-0.088
1.188,-0.086
1.189,-0.088
1.190,-0.089
1.191,-0.088
1.192,-0.089
1.193,-0.091
1.194,-0.089
1.195,-0.091
1.196,-0.092
1.197,-0.094
1.198,-0.095
1.199,-0.094
1.200,-0.092
1.201,-0.091
1.202,-0.091
1.203,-0.091
1.204,-0.091
1.205,-0.094
1.206,-0.094
1.207,-0.097
1.208,-0.098
1.209,-0.100
1.210,-0.097
1.211,-0.094
1.212,-0.096
1.213,-0.091
1.214,-0.094
1.215,-0.091
1.216,-0.095
1.217,-0.094
1.218,-0.092
1.219,-0.091
1.220,-0.094
1.221,-0.094
1.222,-0.092
1.223,-0.094
1.224,-0.092
1.225,-0.097
1.226,-0.098
1.227,-0.100
1.228,-0.100
1.229,-0.100
1.230,-0.100
1.231,-0.100
1.232,-0.096
1.233,-0.097
1.234,-0.101
1.235,-0.103
1.236,-0.108
1.237,-0.109
1.238,-0.103
1.239,-0.103
1.240,-0.104
1.241,-0.106
1.242,-0.106
1.243,-0.106
1.244,-0.108
1.245,-0.112
1.246,-0.111
1.247,-0.112
1.248,-0.112
1.249,-0.112
1.250,-0.112
1.251,-0.112
1.252,-0.114
1.253,-0.116
1.254,-0.114
1.255,-0.109
1.256,-0.112
1.257,-0.112
1.258,-0.111
1.259,-0.109
1.260,-0.112
1.261,-0.112
1.262,-0.112
1.263,-0.112
1.264,-0.114
1.265,-0.116
1.266,-0.116
1.267,-0.116
1.268,-0.117
1.269,-0.119
1.270,-0.121
1.271,-0.119
1.272,-0.122
1.273,-0.122
1.274,-0.126
1.275,-0.125
1.276,-0.128
1.277,-0.125
1.278,-0.131
1.279,-0.131
1.280,-0.136
1.281,-0.138
1.282,-0.133
1.283,-0.128
1.284,-0.128
1.285,-0.128
1.286,-0.128
1.287,-0.125
1.288,-0.127
1.289,-0.125
1.290,-0.125
1.291,-0.125
1.292,-0.125
1.293,-0.125
1.294,-0.128
1.295,-0.131
1.296,-0.129
1.297,-0.131
1.298,-0.133
1.299,-0.138
1.300,-0.138
1.301,-0.138
1.302,-0.138
1.303,-0.138
1.304,-0.134
1.305,-0.134
1.306,-0.134
1.307,-0.134
1.308,-0.138
1.309,-0.144
1.310,-0.141
1.311,-0.141
1.312,-0.141
1.313,-0.141
1.314,-0.144
1.315,-0.144
1.316,-0.144
1.317,-0.144
1.318,-0.142
1.319,-0.144
1.320,-0.147
1.321,-0.147
1.322,-0.146
1.323,-0.144
1.324,-0.144
1.325,-0.144
1.326,-0.146
1.327,-0.144
1.328,-0.141
1.329,-0.144
1.330,-0.142
1.331,-0.147
1.332,-0.147
1.333,-0.144
1.334,-0.147
1.335,-0.147
1.336,-0.148
1.337,-0.150
1.338,-0.150
1.339,-0.150
1.340,-0.150
1.341,-0.150
1.342,-0.146
1.343,-0.144
1.344,-0.146
1.345,-0.144
1.346,-0.147
1.347,-0.147
1.348,-0.147
1.349,-0.147
1.350,-0.144
1.351,-0.144
1.352,-0.147
1.353,-0.144
1.354,-0.146
1.355,-0.150
1.356,-0.145
1.357,-0.147
1.358,-0.147
1.359,-0.147
1.360,-0.147
1.361,-0.147
1.362,-0.150
1.363,-0.147
1.364,-0.149
1.365,-0.144
1.366,-0.143
1.367,-0.144
1.368,-0.144
1.369,-0.144
1.370,-0.144
1.371,-0.144
1.372,-0.146
1.373,-0.147
1.374,-0.141
1.375,-0.144
1.376,-0.147
1.377,-0.147
1.378,-0.147
1.379,-0.147
1.380,-0.148
1.381,-0.150
1.382,-0.147
1.383,-0.147
1.384,-0.150
1.385,-0.153
1.386,-0.152
1.387,-0.150
1.388,-0.147
1.389,-0.147
1.390,-0.150
1.391,-0.153
1.392,-0.154
1.393,-0.153
1.394,-0.154
1.395,-0.156
1.396,-0.156
1.397,-0.156
1.398,-0.161
1.399,-0.159
1.400,-0.159
1.401,-0.159
1.402,-0.159
1.403,-0.159
1.404,-0.155
1.405,-0.150
1.406,-0.151
1.407,-0.153
1.408,-0.153
1.409,-0.153
1.410,-0.152
1.411,-0.150
1.412,-0.151
1.413,-0.153
1.414,-0.156
1.415,-0.159
1.416,-0.158
1.417,-0.156
1.418,-0.156
1.419,-0.156
1.420,-0.153
1.421,-0.150
1.422,-0.150
1.423,-0.150
1.424,-0.151
1.425,-0.153
1.426,-0.152
1.427,-0.150
1.428,-0.150
1.429,-0.150
1.430,-0.149
1.431,-0.147
1.432,-0.147
1.433,-0.147
1.434,-0.147
1.435,-0.147
1.436,-0.148
1.437,-0.150
1.438,-0.150
1.439,-0.150
1.440,-0.150
1.441,-0.150
1.442,-0.150
1.443,-0.150
1.444,-0.150
1.445,-0.150
1.446,-0.151
1.447,-0.153
1.448,-0.153
1.449,-0.153
1.450,-0.152
1.451,-0.150
1.452,-0.153
1.453,-0.153
1.454,-0.149
1.455,-0.150
1.456,-0.151
1.457,-0.153
1.458,-0.153
1.459,-0.156
1.460,-0.156
1.461,-0.153
1.462,-0.152
1.463,-0.150
1.464,-0.149
1.465,-0.150
1.466,-0.147
1.467,-0.147
1.468,-0.150
1.469,-0.153
1.470,-0.154
1.471,-0.153
1.472,-0.156
1.473,-0.156
1.474,-0.156
1.475,-0.156
1.476,-0.152
1.477,-0.153
1.478,-0.154
1.479,-0.156
1.480,-0.156
1.481,-0.156
1.482,-0.152
1.483,-0.150
1.484,-0.148
1.485,-0.150
1.486,-0.149
1.487,-0.150
1.488,-0.147
1.489,-0.147
1.490,-0.151
1.491,-0.150
1.492,-0.150
1.493,-0.150
1.494,-0.148
1.495,-0.150
1.496,-0.152
1.497,-0.150
1.498,-0.152
1.499,-0.150
1.500,-0.148
1.501,-0.150
1.502,-0.151
1.503,-0.153
1.504,-0.154
1.505,-0.156
1.506,-0.153
1.507,-0.150
1.508,-0.153
1.509,-0.156
1.510,-0.158
1.511,-0.156
1.512,-0.158
1.513,-0.159
1.514,-0.153
1.515,-0.150
1.516,-0.151
1.517,-0.153
1.518,-0.156
1.519,-0.159
1.520,-0.156
1.521,-0.159
1.522,-0.159
1.523,-0.159
1.524,-0.159
1.525,-0.159
1.526,-0.155
1.527,-0.150
1.528,-0.150
1.529,-0.150
1.530,-0.153
1.531,-0.156
1.532,-0.155
1.533,-0.153
1.534,-0.152
1.535,-0.150
1.536,-0.150
1.537,-0.153
1.538,-0.152
1.539,-0.147
1.540,-0.147
1.541,-0.150
1.542,-0.149
1.543,-0.147
1.544,-0.148
1.545,-0.150
1.546,-0.150
1.547,-0.156
1.548,-0.158
1.549,-0.159
1.550,-0.159
1.551,-0.159
1.552,-0.163
1.553,-0.159
1.554,-0.155
1.555,-0.150
1.556,-0.148
1.557,-0.153
1.558,-0.150
1.559,-0.153
1.560,-0.153
1.561,-0.153
1.562,-0.153
1.563,-0.153
1.564,-0.153
1.565,-0.150
1.566,-0.152
1.567,-0.147
1.568,-0.147
1.569,-0.150
1.570,-0.153
1.571,-0.156
1.572,-0.155
1.573,-0.153
1.574,-0.153
1.575,-0.153
1.576,-0.153
1.577,-0.153
1.578,-0.152
1.579,-0.153
1.580,-0.150
1.581,-0.150
1.582,-0.149
1.583,-0.147
1.584,-0.150
1.585,-0.153
1.586,-0.154
1.587,-0.156
1.588,-0.153
1.589,-0.153
1.590,-0.154
1.591,-0.156
1.592,-0.153
1.593,-0.153
1.594,-0.150
1.595,-0.153
1.596,-0.151
1.597,-0.153
1.598,-0.152
1.599,-0.153
1.600,-0.150
1.601,-0.153
1.602,-0.153
1.603,-0.156
1.604,-0.156
1.605,-0.156
1.606,-0.156
1.607,-0.156
1.608,-0.158
1.609,-0.156
1.610,-0.156
1.611,-0.156
1.612,-0.155
1.613,-0.153
1.614,-0.150
1.615,-0.147
1.616,-0.151
1.617,-0.153
1.618,-0.153
1.619,-0.163
1.620,-0.163
1.621,-0.166
1.622,-0.159
1.623,-0.156
1.624,-0.156
1.625,-0.156
1.626,-0.156
1.627,-0.156
1.628,-0.158
1.629,-0.159
1.630,-0.159
1.631,-0.159
1.632,-0.159
1.633,-0.159
1.634,-0.156
1.635,-0.159
1.636,-0.158
1.637,-0.159
1.638,-0.158
1.639,-0.159
1.640,-0.159
1.641,-0.156
1.642,-0.153
1.643,-0.153
1.644,-0.154
1.645,-0.153
1.646,-0.153
1.647,-0.156
1.648,-0.158
1.649,-0.156
1.650,-0.156
1.651,-0.153
1.652,-0.158
1.653,-0.159
1.654,-0.161
1.655,-0.163
1.656,-0.163
1.657,-0.163
1.658,-0.161
1.659,-0.163
1.660,-0.161
1.661,-0.156
1.662,-0.158
1.663,-0.159
1.664,-0.161
1.665,-0.163
1.666,-0.161
1.667,-0.163
1.668,-0.159
1.669,-0.159
1.670,-0.158
1.671,-0.153
1.672,-0.149
1.673,-0.150
1.674,-0.151
1.675,-0.153
1.676,-0.150
1.677,-0.150
1.678,-0.154
1.679,-0.153
1.680,-0.154
1.681,-0.156
1.682,-0.156
1.683,-0.156
1.684,-0.155
1.685,-0.156
1.686,-0.158
1.687,-0.159
1.688,-0.161
1.689,-0.159
1.690,-0.158
1.691,-0.159
1.692,-0.161
1.693,-0.163
1.694,-0.163
1.695,-0.163
1.696,-0.159
1.697,-0.163
1.698,-0.163
1.699,-0.163
1.700,-0.163
1.701,-0.163
1.702,-0.163
1.703,-0.163
1.704,-0.155
1.705,-0.150
1.706,-0.151
1.707,-0.153
1.708,-0.154
1.709,-0.156
1.710,-0.156
1.711,-0.150
1.712,-0.151
1.713,-0.153
1.714,-0.152
1.715,-0.153
1.716,-0.152
1.717,-0.150
1.718,-0.150
1.719,-0.153
1.720,-0.154
1.721,-0.156
1.722,-0.156
1.723,-0.156
1.724,-0.158
1.725,-0.159
1.726,-0.159
1.727,-0.159
1.728,-0.159
1.729,-0.159
1.730,-0.155
1.731,-0.150
1.732,-0.147
1.733,-0.147
1.734,-0.147
1.735,-0.144
1.736,-0.146
1.737,-0.147
1.738,-0.145
1.739,-0.147
1.740,-0.147
1.741,-0.147
1.742,-0.144
1.743,-0.144
1.744,-0.142
1.745,-0.144
1.746,-0.144
1.747,-0.144
1.748,-0.143
1.749,-0.141
1.750,-0.136
1.751,-0.131
1.752,-0.129
1.753,-0.128
1.754,-0.125
1.755,-0.122
1.756,-0.126
1.757,-0.125
1.758,-0.119
1.759,-0.116
1.760,-0.109
1.761,-0.106
1.762,-0.103
1.763,-0.097
1.764,-0.092
1.765,-0.091
1.766,-0.086
1.767,-0.078
1.768,-0.072
1.769,-0.072
1.770,-0.066
1.771,-0.069
1.772,-0.075
1.773,-0.081
1.774,-0.091
1.775,-0.094
1.776,-0.096
1.777,-0.097
1.778,-0.097
1.779,-0.097
1.780,-0.094
1.781,-0.088
1.782,-0.082
1.783,-0.081
1.784,-0.076
1.785,-0.072
1.786,-0.066
1.787,-0.056
1.788,-0.042
1.789,-0.031
1.790,-0.025
1.791,-0.022
1.792,-0.021
1.793,-0.019
1.794,-0.023
1.795,-0.031
1.796,-0.042
1.797,-0.053
1.798,-0.064
1.799,-0.075
1.800,-0.086
1.801,-0.091
1.802,-0.094
1.803,-0.094
1.804,-0.101
1.805,-0.106
1.806,-0.109
1.807,-0.109
1.808,-0.119
1.809,-0.119
1.810,-0.116
1.811,-0.112
1.812,-0.112
1.813,-0.112
1.814,-0.112
1.815,-0.112
1.816,-0.114
1.817,-0.112
1.818,-0.116
1.819,-0.116
1.820,-0.116
1.821,-0.122
1.822,-0.129
1.823,-0.138
1.824,-0.139
1.825,-0.138
1.826,-0.144
1.827,-0.144
1.828,-0.144
1.829,-0.147
1.830,-0.150
1.831,-0.156
1.832,-0.158
1.833,-0.156
1.834,-0.156
1.835,-0.156
1.836,-0.156
1.837,-0.159
1.838,-0.158
1.839,-0.159
1.840,-0.163
1.841,-0.166
1.842,-0.166
1.843,-0.166
1.844,-0.166
1.845,-0.166
1.846,-0.166
1.847,-0.166
1.848,-0.166
1.849,-0.166
1.850,-0.170
1.851,-0.172
1.852,-0.168
1.853,-0.169
1.854,-0.164
1.855,-0.163
1.856,-0.161
1.857,-0.156
1.858,-0.156
1.859,-0.159
1.860,-0.156
1.861,-0.159
1.862,-0.161
1.863,-0.163
1.864,-0.156
1.865,-0.159
1.866,-0.161
1.867,-0.156
1.868,-0.156
1.869,-0.156
1.870,-0.155
1.871,-0.150
1.872,-0.150
1.873,-0.150
1.874,-0.154
1.875,-0.159
1.876,-0.158
1.877,-0.156
1.878,-0.156
1.879,-0.156
1.880,-0.158
1.881,-0.156
1.882,-0.154
1.883,-0.153
1.884,-0.154
1.885,-0.159
1.886,-0.156
1.887,-0.159
1.888,-0.159
1.889,-0.159
1.890,-0.159
1.891,-0.159
1.892,-0.163
1.893,-0.159
1.894,-0.158
1.895,-0.159
1.896,-0.164
1.897,-0.163
1.898,-0.158
1.899,-0.153
1.900,-0.155
1.901,-0.159
1.902,-0.166
1.903,-0.178
1.904,-0.189
1.905,-0.206
1.906,-0.234
1.907,-0.266
1.908,-0.298
1.909,-0.331
1.910,-0.358
1.911,-0.384
1.912,-0.411
1.913,-0.434
1.914,-0.444
1.915,-0.456
1.916,-0.462
1.917,-0.447
1.918,-0.434
1.919,-0.406
1.920,-0.377
1.921,-0.344
1.922,-0.313
1.923,-0.266
1.924,-0.213
1.925,-0.159
1.926,-0.091
1.927,-0.009
1.928,0.067
1.929,0.150
1.930,0.247
1.931,0.344
1.932,0.448
1.933,0.578
1.934,0.694
1.935,0.806
1.936,0.944
1.937,1.100
1.938,1.249
1.939,1.412
1.940,1.584
1.941,1.762
1.942,1.933
1.943,2.094
1.944,2.234
1.945,2.334
1.946,2.386
1.947,2.369
1.948,2.350
1.949,2.275
1.950,2.187
1.951,2.084
1.952,1.955
1.953,1.766
1.954,1.583
1.955,1.378
1.956,1.179
1.957,0.988
1.958,0.806
1.959,0.647
1.960,0.494
1.961,0.359
1.962,0.237
1.963,0.122
1.964,0.029
1.965,-0.034
1.966,-0.100
1.967,-0.138
1.968,-0.172
1.969,-0.194
1.970,-0.211
1.971,-0.216
1.972,-0.219
1.973,-0.219
1.974,-0.211
1.975,-0.203
1.976,-0.184
1.977,-0.163
1.978,-0.141
1.979,-0.106
1.980,-0.086
1.981,-0.062
1.982,-0.042
1.983,-0.025
1.984,-0.016
1.985,-0.003
1.986,0.008
1.987,0.012
1.988,0.014
1.989,0.012
1.990,0.016
1.991,0.012
1.992,0.008
1.993,0.003
1.994,0.000
1.995,-0.006
1.996,-0.011
1.997,-0.016
1.998,-0.014
1.999,-0.016
2.000,-0.016
2.001,-0.019
2.002,-0.020
2.003,-0.025
2.004,-0.029
2.005,-0.031
2.006,-0.028
2.007,-0.028
2.008,-0.028
2.009,-0.028
2.010,-0.028
2.011,-0.028
2.012,-0.028
2.013,-0.031
2.014,-0.031
2.015,-0.031
2.016,-0.030
2.017,-0.028
2.018,-0.028
2.019,-0.028
2.020,-0.029
2.021,-0.031
2.022,-0.031
2.023,-0.031
2.024,-0.028
2.025,-0.028
2.026,-0.021
2.027,-0.016
2.028,-0.014
2.029,-0.016
2.030,-0.017
2.031,-0.022
2.032,-0.020
2.033,-0.022
2.034,-0.019
2.035,-0.019
2.036,-0.016
2.037,-0.016
2.038,-0.009
2.039,-0.006
2.040,-0.003
2.041,-0.006
2.042,-0.004
2.043,-0.006
2.044,-0.008
2.045,-0.006
2.046,-0.005
2.047,-0.003
2.048,0.001
2.049,0.003
2.050,0.004
2.051,0.009
2.052,0.012
2.053,0.012
2.054,0.014
2.055,0.016
2.056,0.018
2.057,0.016
2.058,0.014
2.059,0.016
2.060,0.009
2.061,0.012
2.062,0.011
2.063,0.012
2.064,0.011
2.065,0.012
2.066,0.020
2.067,0.022
2.068,0.021
2.069,0.022
2.070,0.023
2.071,0.025
2.072,0.028
2.073,0.031
2.074,0.034
2.075,0.038
2.076,0.036
2.077,0.041
2.078,0.039
2.079,0.044
2.080,0.044
2.081,0.044
2.082,0.042
2.083,0.044
2.084,0.047
2.085,0.047
2.086,0.047
2.087,0.050
2.088,0.053
2.089,0.059
2.090,0.058
2.091,0.059
2.092,0.062
2.093,0.062
2.094,0.062
2.095,0.066
2.096,0.064
2.097,0.066
2.098,0.064
2.099,0.062
2.100,0.062
2.101,0.059
2.102,0.067
2.103,0.072
2.104,0.075
2.105,0.081
2.106,0.081
2.107,0.084
2.108,0.086
2.109,0.084
2.110,0.081
2.111,0.081
2.112,0.084
2.113,0.084
2.114,0.089
2.115,0.091
2.116,0.095
2.117,0.097
2.118,0.097
2.119,0.094
2.120,0.094
2.121,0.097
2.122,0.101
2.123,0.103
2.124,0.106
2.125,0.106
2.126,0.107
2.127,0.112
2.128,0.109
2.129,0.106
2.130,0.103
2.131,0.103
2.132,0.109
2.133,0.116
2.134,0.112
2.135,0.112
2.136,0.119
2.137,0.122
2.138,0.122
2.139,0.122
2.140,0.127
2.141,0.125
2.142,0.124
2.143,0.125
2.144,0.126
2.145,0.134
2.146,0.137
2.147,0.137
2.148,0.139
2.149,0.141
2.150,0.145
2.151,0.147
2.152,0.149
2.153,0.147
2.154,0.149
2.155,0.150
2.156,0.157
2.157,0.163
2.158,0.167
2.159,0.166
2.160,0.166
2.161,0.172
2.162,0.174
2.163,0.172
2.164,0.172
2.165,0.175
2.166,0.183
2.167,0.187
2.168,0.187
2.169,0.191
2.170,0.194
2.171,0.200
2.172,0.203
2.173,0.206
2.174,0.209
2.175,0.216
2.176,0.220
2.177,0.225
2.178,0.228
2.179,0.225
2.180,0.228
2.181,0.228
2.182,0.233
2.183,0.231
2.184,0.234
2.185,0.241
2.186,0.243
2.187,0.247
2.188,0.253
2.189,0.259
2.190,0.263
2.191,0.266
2.192,0.269
2.193,0.275
2.194,0.281
2.195,0.284
2.196,0.289
2.197,0.291
2.198,0.291
2.199,0.297
2.200,0.300
2.201,0.306
2.202,0.312
2.203,0.316
2.204,0.316
2.205,0.322
2.206,0.321
2.207,0.328
2.208,0.334
2.209,0.337
2.210,0.341
2.211,0.350
2.212,0.352
2.213,0.353
2.214,0.358
2.215,0.359
2.216,0.370
2.217,0.378
2.218,0.381
2.219,0.384
2.220,0.392
2.221,0.397
2.222,0.400
2.223,0.406
2.224,0.411
2.225,0.412
2.226,0.419
2.227,0.422
2.228,0.428
2.229,0.434
2.230,0.434
2.231,0.434
2.232,0.444
2.233,0.447
2.234,0.450
2.235,0.456
2.236,0.466
2.237,0.472
2.238,0.473
2.239,0.481
2.240,0.488
2.241,0.491
2.242,0.494
2.243,0.497
2.244,0.501
2.245,0.509
2.246,0.506
2.247,0.509
2.248,0.519
2.249,0.522
2.250,0.525
2.251,0.528
2.252,0.528
2.253,0.531
2.254,0.533
2.255,0.534
2.256,0.536
2.257,0.541
2.258,0.544
2.259,0.544
2.260,0.546
2.261,0.544
2.262,0.545
2.263,0.547
2.264,0.550
2.265,0.550
2.266,0.551
2.267,0.553
2.268,0.553
2.269,0.553
2.270,0.551
2.271,0.550
2.272,0.550
2.273,0.550
2.274,0.544
2.275,0.537
2.276,0.534
2.277,0.525
2.278,0.520
2.279,0.516
2.280,0.508
2.281,0.500
2.282,0.492
2.283,0.481
2.284,0.472
2.285,0.462
2.286,0.459
2.287,0.447
2.288,0.439
2.289,0.428
2.290,0.414
2.291,0.400
2.292,0.391
2.293,0.378
2.294,0.369
2.295,0.356
2.296,0.339
2.297,0.325
2.298,0.319
2.299,0.306
2.300,0.287
2.301,0.272
2.302,0.261
2.303,0.250
2.304,0.239
2.305,0.231
2.306,0.220
2.307,0.209
2.308,0.194
2.309,0.178
2.310,0.170
2.311,0.159
2.312,0.147
2.313,0.137
2.314,0.126
2.315,0.119
2.316,0.109
2.317,0.097
2.318,0.083
2.319,0.072
2.320,0.064
2.321,0.059
2.322,0.053
2.323,0.050
2.324,0.041
2.325,0.031
2.326,0.025
2.327,0.019
2.328,0.009
2.329,0.000
2.330,-0.008
2.331,-0.009
2.332,-0.017
2.333,-0.022
2.334,-0.031
2.335,-0.034
2.336,-0.036
2.337,-0.038
2.338,-0.042
2.339,-0.044
2.340,-0.048
2.341,-0.059
2.342,-0.061
2.343,-0.066
2.344,-0.066
2.345,-0.066
2.346,-0.064
2.347,-0.066
2.348,-0.067
2.349,-0.072
2.350,-0.076
2.351,-0.075
2.352,-0.078
2.353,-0.081
2.354,-0.086
2.355,-0.091
2.356,-0.089
2.357,-0.091
2.358,-0.095
2.359,-0.097
2.360,-0.094
2.361,-0.094
2.362,-0.094
2.363,-0.094
2.364,-0.098
2.365,-0.100
2.366,-0.100
2.367,-0.100
2.368,-0.100
2.369,-0.100
2.370,-0.099
2.371,-0.100
2.372,-0.101
2.373,-0.103
2.374,-0.103
2.375,-0.103
2.376,-0.103
2.377,-0.100
2.378,-0.102
2.379,-0.103
2.380,-0.104
2.381,-0.103
2.382,-0.100
2.383,-0.094
2.384,-0.097
2.385,-0.094
2.386,-0.097
2.387,-0.100
2.388,-0.101
2.389,-0.103
2.390,-0.103
2.391,-0.106
2.392,-0.103
2.393,-0.103
2.394,-0.103
2.395,-0.103
2.396,-0.103
2.397,-0.100
2.398,-0.099
2.399,-0.097
2.400,-0.101
2.401,-0.100
2.402,-0.101
2.403,-0.103
2.404,-0.099
2.405,-0.097
2.406,-0.100
2.407,-0.100
2.408,-0.099
2.409,-0.097
2.410,-0.094
2.411,-0.097
2.412,-0.100
2.413,-0.100
2.414,-0.097
2.415,-0.091
2.416,-0.091
2.417,-0.091
2.418,-0.092
2.419,-0.094
2.420,-0.098
2.421,-0.097
2.422,-0.094
2.423,-0.094
2.424,-0.094
2.425,-0.094
2.426,-0.094
2.427,-0.094
2.428,-0.094
2.429,-0.094
2.430,-0.094
2.431,-0.094
2.432,-0.091
2.433,-0.088
2.434,-0.091
2.435,-0.091
2.436,-0.089
2.437,-0.091
2.438,-0.089
2.439,-0.088
2.440,-0.091
2.441,-0.091
2.442,-0.092
2.443,-0.094
2.444,-0.094
2.445,-0.097
2.446,-0.098
2.447,-0.100
2.448,-0.099
2.449,-0.097
2.450,-0.100
2.451,-0.097
2.452,-0.098
2.453,-0.100
2.454,-0.101
2.455,-0.103
2.456,-0.103
2.457,-0.106
2.458,-0.103
2.459,-0.106
2.460,-0.103
2.461,-0.106
2.462,-0.103
2.463,-0.103
2.464,-0.102
2.465,-0.103
2.466,-0.103
2.467,-0.103
2.468,-0.106
2.469,-0.103
2.470,-0.108
2.471,-0.109
2.472,-0.109
2.473,-0.109
2.474,-0.111
2.475,-0.112
2.476,-0.112
2.477,-0.109
2.478,-0.109
2.479,-0.109
2.480,-0.108
2.481,-0.109
2.482,-0.111
2.483,-0.109
2.484,-0.116
2.485,-0.119
2.486,-0.120
2.487,-0.122
2.488,-0.121
2.489,-0.119
2.490,-0.121
2.491,-0.119
2.492,-0.122
2.493,-0.122
2.494,-0.122
2.495,-0.122
2.496,-0.123
2.497,-0.125
2.498,-0.124
2.499,-0.122
2.500,-0.119
2.501,-0.122
2.502,-0.122
2.503,-0.122
2.504,-0.122
2.505,-0.125
2.506,-0.125
2.507,-0.125
2.508,-0.125
2.509,-0.125
2.510,-0.125
2.511,-0.125
2.512,-0.126
2.513,-0.128
2.514,-0.125
2.515,-0.125
2.516,-0.124
2.517,-0.125
2.518,-0.125
2.519,-0.128
2.520,-0.126
2.521,-0.131
2.522,-0.128
2.523,-0.131
2.524,-0.128
2.525,-0.131
2.526,-0.133
2.527,-0.134
2.528,-0.136
2.529,-0.138
2.530,-0.138
2.531,-0.138
2.532,-0.133
2.533,-0.134
2.534,-0.134
2.535,-0.134
2.536,-0.136
2.537,-0.138
2.538,-0.136
2.539,-0.138
2.540,-0.142
2.541,-0.141
2.542,-0.139
2.543,-0.138
2.544,-0.141
2.545,-0.141
2.546,-0.141
2.547,-0.141
2.548,-0.138
2.549,-0.134
2.550,-0.134
2.551,-0.131
2.552,-0.133
2.553,-0.134
2.554,-0.139
2.555,-0.138
2.556,-0.138
2.557,-0.138
2.558,-0.141
2.559,-0.147
2.560,-0.146
2.561,-0.144
2.562,-0.144
2.563,-0.141
2.564,-0.136
2.565,-0.134
2.566,-0.133
2.567,-0.131
2.568,-0.136
2.569,-0.141
2.570,-0.141
2.571,-0.144
2.572,-0.144
2.573,-0.141
2.574,-0.144
2.575,-0.141
2.576,-0.145
2.577,-0.147
2.578,-0.144
2.579,-0.147
2.580,-0.147
2.581,-0.147
2.582,-0.146
2.583,-0.144
2.584,-0.145
2.585,-0.147
2.586,-0.148
2.587,-0.147
2.588,-0.146
2.589,-0.147
2.590,-0.148
2.591,-0.150
2.592,-0.146
2.593,-0.147
2.594,-0.151
2.595,-0.150
2.596,-0.149
2.597,-0.150
2.598,-0.144
2.599,-0.144
2.600,-0.150
2.601,-0.144
2.602,-0.145
2.603,-0.147
2.604,-0.147
2.605,-0.147
2.606,-0.146
2.607,-0.147
2.608,-0.145
2.609,-0.150
2.610,-0.147
2.611,-0.147
2.612,-0.150
2.613,-0.150
2.614,-0.149
2.615,-0.147
2.616,-0.144
2.617,-0.144
2.618,-0.150
2.619,-0.147
2.620,-0.150
2.621,-0.150
2.622,-0.147
2.623,-0.147
2.624,-0.146
2.625,-0.144
2.626,-0.144
2.627,-0.144
2.628,-0.147
2.629,-0.147
2.630,-0.147
2.631,-0.147
2.632,-0.147
2.633,-0.147
2.634,-0.150
2.635,-0.150
2.636,-0.150
2.637,-0.150
2.638,-0.147
2.639,-0.147
2.640,-0.147
2.641,-0.147
2.642,-0.147
2.643,-0.150
2.644,-0.148
2.645,-0.150
2.646,-0.151
2.647,-0.153
2.648,-0.150
2.649,-0.147
2.650,-0.149
2.651,-0.147
2.652,-0.150
2.653,-0.153
2.654,-0.153
2.655,-0.153
2.656,-0.154
2.657,-0.156
2.658,-0.155
2.659,-0.153
2.660,-0.153
2.661,-0.153
2.662,-0.158
2.663,-0.159
2.664,-0.156
2.665,-0.159
2.666,-0.158
2.667,-0.156
2.668,-0.155
2.669,-0.156
2.670,-0.159
2.671,-0.159
2.672,-0.159
2.673,-0.159
2.674,-0.159
2.675,-0.163
2.676,-0.159
2.677,-0.159
2.678,-0.161
2.679,-0.163
2.680,-0.163
2.681,-0.159
2.682,-0.159
2.683,-0.156
2.684,-0.158
2.685,-0.159
2.686,-0.156
2.687,-0.159
2.688,-0.159
2.689,-0.159
2.690,-0.159
2.691,-0.159
2.692,-0.158
2.693,-0.159
2.694,-0.158
2.695,-0.159
2.696,-0.159
2.697,-0.163
2.698,-0.156
2.699,-0.153
2.700,-0.158
2.701,-0.156
2.702,-0.158
2.703,-0.159
2.704,-0.156
2.705,-0.156
2.706,-0.159
2.707,-0.159
2.708,-0.163
2.709,-0.163
2.710,-0.161
2.711,-0.163
2.712,-0.163
2.713,-0.163
2.714,-0.163
2.715,-0.163
2.716,-0.163
2.717,-0.163
2.718,-0.161
2.719,-0.159
2.720,-0.163
2.721,-0.163
2.722,-0.163
2.723,-0.163
2.724,-0.161
2.725,-0.163
2.726,-0.163
2.727,-0.163
2.728,-0.163
2.729,-0.163
2.730,-0.159
2.731,-0.163
2.732,-0.159
2.733,-0.156
2.734,-0.156
2.735,-0.156
2.736,-0.156
2.737,-0.156
2.738,-0.158
2.739,-0.159
2.740,-0.161
2.741,-0.163
2.742,-0.163
2.743,-0.163
2.744,-0.164
2.745,-0.166
2.746,-0.164
2.747,-0.166
2.748,-0.166
2.749,-0.163
2.750,-0.163
2.751,-0.166
2.752,-0.166
2.753,-0.166
2.754,-0.163
2.755,-0.159
2.756,-0.156
2.757,-0.159
2.758,-0.159
2.759,-0.159
2.760,-0.159
2.761,-0.159
2.762,-0.164
2.763,-0.163
2.764,-0.163
2.765,-0.163
2.766,-0.159
2.767,-0.163
2.768,-0.159
2.769,-0.163
2.770,-0.161
2.771,-0.159
2.772,-0.159
2.773,-0.159
2.774,-0.161
2.775,-0.159
2.776,-0.163
2.777,-0.159
2.778,-0.158
2.779,-0.159
2.780,-0.161
2.781,-0.163
2.782,-0.163
2.783,-0.163
2.784,-0.164
2.785,-0.166
2.786,-0.164
2.787,-0.163
2.788,-0.161
2.789,-0.163
2.790,-0.161
2.791,-0.163
2.792,-0.163
2.793,-0.163
2.794,-0.163
2.795,-0.163
2.796,-0.163
2.797,-0.163
2.798,-0.163
2.799,-0.166
2.800,-0.163
2.801,-0.159
2.802,-0.159
2.803,-0.163
2.804,-0.159
2.805,-0.163
2.806,-0.161
2.807,-0.163
2.808,-0.161
2.809,-0.163
2.810,-0.159
2.811,-0.163
2.812,-0.159
2.813,-0.159
2.814,-0.161
2.815,-0.163
2.816,-0.163
2.817,-0.163
2.818,-0.163
2.819,-0.159
2.820,-0.158
2.821,-0.156
2.822,-0.155
2.823,-0.153
2.824,-0.156
2.825,-0.159
2.826,-0.161
2.827,-0.159
2.828,-0.153
2.829,-0.156
2.830,-0.156
2.831,-0.159
2.832,-0.158
2.833,-0.159
2.834,-0.159
2.835,-0.159
2.836,-0.161
2.837,-0.163
2.838,-0.159
2.839,-0.156
2.840,-0.156
2.841,-0.156
2.842,-0.158
2.843,-0.159
2.844,-0.158
2.845,-0.163
2.846,-0.163
2.847,-0.166
2.848,-0.163
2.849,-0.163
2.850,-0.163
2.851,-0.159
2.852,-0.159
2.853,-0.163
2.854,-0.164
2.855,-0.163
2.856,-0.163
2.857,-0.166
2.858,-0.164
2.859,-0.159
2.860,-0.159
2.861,-0.156
2.862,-0.158
2.863,-0.156
2.864,-0.156
2.865,-0.156
2.866,-0.153
2.867,-0.150
2.868,-0.151
2.869,-0.156
2.870,-0.159
2.871,-0.159
2.872,-0.158
2.873,-0.156
2.874,-0.159
2.875,-0.163
2.876,-0.163
2.877,-0.166
2.878,-0.163
2.879,-0.163
2.880,-0.166
2.881,-0.166
2.882,-0.161
2.883,-0.163
2.884,-0.161
2.885,-0.159
2.886,-0.158
2.887,-0.159
2.888,-0.164
2.889,-0.163
2.890,-0.163
2.891,-0.163
2.892,-0.163
2.893,-0.163
2.894,-0.158
2.895,-0.156
2.896,-0.158
2.897,-0.159
2.898,-0.161
2.899,-0.159
2.900,-0.158
2.901,-0.159
2.902,-0.163
2.903,-0.166
2.904,-0.166
2.905,-0.166
2.906,-0.163
2.907,-0.166
2.908,-0.166
2.909,-0.166
2.910,-0.164
2.911,-0.163
2.912,-0.164
2.913,-0.166
2.914,-0.164
2.915,-0.166
2.916,-0.164
2.917,-0.163
2.918,-0.163
2.919,-0.163
2.920,-0.167
2.921,-0.166
2.922,-0.166
2.923,-0.166
2.924,-0.166
2.925,-0.169
2.926,-0.166
2.927,-0.163
2.928,-0.159
2.929,-0.159
2.930,-0.161
2.931,-0.163
2.932,-0.163
2.933,-0.163
2.934,-0.161
2.935,-0.159
2.936,-0.161
2.937,-0.163
2.938,-0.161
2.939,-0.159
2.940,-0.161
2.941,-0.163
2.942,-0.159
2.943,-0.159
2.944,-0.161
2.945,-0.159
2.946,-0.163
2.947,-0.166
2.948,-0.161
2.949,-0.159
2.950,-0.156
2.951,-0.153
2.952,-0.151
2.953,-0.153
2.954,-0.151
2.955,-0.153
2.956,-0.152
2.957,-0.150
2.958,-0.151
2.959,-0.153
2.960,-0.153
2.961,-0.153
2.962,-0.149
2.963,-0.144
2.964,-0.141
2.965,-0.138
2.966,-0.138
2.967,-0.131
2.968,-0.128
2.969,-0.128
2.970,-0.125
2.971,-0.125
2.972,-0.121
2.973,-0.112
2.974,-0.103
2.975,-0.097
2.976,-0.092
2.977,-0.084
2.978,-0.078
2.979,-0.078
2.980,-0.069
2.981,-0.069
2.982,-0.074
2.983,-0.078
2.984,-0.089
2.985,-0.094
2.986,-0.098
2.987,-0.103
2.988,-0.104
2.989,-0.106
2.990,-0.109
2.991,-0.109
2.992,-0.102
2.993,-0.097
2.994,-0.094
2.995,-0.091
2.996,-0.086
2.997,-0.078
2.998,-0.069
2.999,-0.062
3.000,-0.047
3.001,-0.034
3.002,-0.033
3.003,-0.031
3.004,-0.028
3.005,-0.028
3.006,-0.036
3.007,-0.044
3.008,-0.054
3.009,-0.066
3.010,-0.078
3.011,-0.084
3.012,-0.092
3.013,-0.097
3.014,-0.103
3.015,-0.106
3.016,-0.111
3.017,-0.112
3.018,-0.120
3.019,-0.119
3.020,-0.118
3.021,-0.116
3.022,-0.116
3.023,-0.116
3.024,-0.117
3.025,-0.119
3.026,-0.118
3.027,-0.112
3.028,-0.117
3.029,-0.119
3.030,-0.116
3.031,-0.119
3.032,-0.125
3.033,-0.131
3.034,-0.134
3.035,-0.134
3.036,-0.142
3.037,-0.144
3.038,-0.143
3.039,-0.144
3.040,-0.147
3.041,-0.153
3.042,-0.158
3.043,-0.159
3.044,-0.159
3.045,-0.159
3.046,-0.159
3.047,-0.163
3.048,-0.161
3.049,-0.163
3.050,-0.164
3.051,-0.166
3.052,-0.166
3.053,-0.166
3.054,-0.167
3.055,-0.169
3.056,-0.169
3.057,-0.169
3.058,-0.168
3.059,-0.166
3.060,-0.168
3.061,-0.166
3.062,-0.163
3.063,-0.166
3.064,-0.164
3.065,-0.166
3.066,-0.167
3.067,-0.166
3.068,-0.164
3.069,-0.166
3.070,-0.161
3.071,-0.163
3.072,-0.164
3.073,-0.166
3.074,-0.159
3.075,-0.163
3.076,-0.166
3.077,-0.163
3.078,-0.161
3.079,-0.159
3.080,-0.161
3.081,-0.159
3.082,-0.159
3.083,-0.159
3.084,-0.158
3.085,-0.156
3.086,-0.156
3.087,-0.156
3.088,-0.156
3.089,-0.156
3.090,-0.161
3.091,-0.163
3.092,-0.161
3.093,-0.159
3.094,-0.159
3.095,-0.163
3.096,-0.159
3.097,-0.163
3.098,-0.163
3.099,-0.163
3.100,-0.161
3.101,-0.159
3.102,-0.159
3.103,-0.153
3.104,-0.150
3.105,-0.150
3.106,-0.154
3.107,-0.153
3.108,-0.156
3.109,-0.159
3.110,-0.159
3.111,-0.163
3.112,-0.166
3.113,-0.175
3.114,-0.184
3.115,-0.200
3.116,-0.222
3.117,-0.247
3.118,-0.276
3.119,-0.306
3.120,-0.336
3.121,-0.366
3.122,-0.392
3.123,-0.416
3.124,-0.438
3.125,-0.462
3.126,-0.474
3.127,-0.462
3.128,-0.447
3.129,-0.416
3.130,-0.389
3.131,-0.359
3.132,-0.325
3.133,-0.275
3.134,-0.229
3.135,-0.184
3.136,-0.127
3.137,-0.056
3.138,0.021
3.139,0.103
3.140,0.187
3.141,0.272
3.142,0.359
3.143,0.472
3.144,0.591
3.145,0.706
3.146,0.834
3.147,0.981
3.148,1.136
3.149,1.306
3.150,1.487
3.151,1.675
3.152,1.859
3.153,2.034
3.154,2.201
3.155,2.328
3.156,2.429
3.157,2.462
3.158,2.462
3.159,2.406
3.160,2.348
3.161,2.275
3.162,2.161
3.163,1.987
3.164,1.799
3.165,1.587
3.166,1.378
3.167,1.175
3.168,0.984
3.169,0.816
3.170,0.650
3.171,0.503
3.172,0.355
3.173,0.213
3.174,0.092
3.175,0.000
3.176,-0.061
3.177,-0.094
3.178,-0.125
3.179,-0.144
3.180,-0.161
3.181,-0.166
3.182,-0.169
3.183,-0.169
3.184,-0.166
3.185,-0.163
3.186,-0.147
3.187,-0.128
3.188,-0.108
3.189,-0.075
3.190,-0.056
3.191,-0.034
3.192,-0.016
3.193,0.000
3.194,0.008
3.195,0.019
3.196,0.027
3.197,0.028
3.198,0.030
3.199,0.028
3.200,0.029
3.201,0.025
3.202,0.019
3.203,0.012
3.204,0.012
3.205,0.009
3.206,0.004
3.207,0.000
3.208,-0.006
3.209,-0.016
3.210,-0.014
3.211,-0.016
3.212,-0.016
3.213,-0.019
3.214,-0.022
3.215,-0.022
3.216,-0.018
3.217,-0.016
3.218,-0.017
3.219,-0.019
3.220,-0.019
3.221,-0.019
3.222,-0.019
3.223,-0.022
3.224,-0.023
3.225,-0.025
3.226,-0.025
3.227,-0.025
3.228,-0.026
3.229,-0.028
3.230,-0.027
3.231,-0.025
3.232,-0.024
3.233,-0.022
3.234,-0.019
3.235,-0.019
3.236,-0.019
3.237,-0.022
3.238,-0.018
3.239,-0.016
3.240,-0.014
3.241,-0.016
3.242,-0.012
3.243,-0.012
3.244,-0.008
3.245,-0.006
3.246,-0.004
3.247,-0.006
3.248,-0.004
3.249,-0.006
3.250,-0.002
3.251,-0.003
3.252,-0.001
3.253,-0.003
3.254,-0.002
3.255,0.003
3.256,0.002
3.257,0.000
3.258,0.003
3.259,0.003
3.260,0.002
3.261,0.003
3.262,0.006
3.263,0.006
3.264,0.009
3.265,0.012
3.266,0.016
3.267,0.016
3.268,0.014
3.269,0.016
3.270,0.016
3.271,0.025
3.272,0.025
3.273,0.028
3.274,0.025
3.275,0.025
3.276,0.031
3.277,0.031
3.278,0.034
3.279,0.041
3.280,0.039
3.281,0.038
3.282,0.041
3.283,0.044
3.284,0.047
3.285,0.050
3.286,0.046
3.287,0.047
3.288,0.044
3.289,0.047
3.290,0.047
3.291,0.047
3.292,0.048
3.293,0.053
3.294,0.055
3.295,0.053
3.296,0.052
3.297,0.053
3.298,0.056
3.299,0.062
3.300,0.062
3.301,0.066
3.302,0.070
3.303,0.072
3.304,0.072
3.305,0.075
3.306,0.075
3.307,0.078
3.308,0.077
3.309,0.075
3.310,0.079
3.311,0.081
3.312,0.084
3.313,0.084
3.314,0.083
3.315,0.084
3.316,0.083
3.317,0.084
3.318,0.086
3.319,0.084
3.320,0.087
3.321,0.094
3.322,0.097
3.323,0.097
3.324,0.101
3.325,0.103
3.326,0.103
3.327,0.100
3.328,0.103
3.329,0.103
3.330,0.102
3.331,0.103
3.332,0.111
3.333,0.116
3.334,0.119
3.335,0.119
3.336,0.117
3.337,0.119
3.338,0.120
3.339,0.122
3.340,0.123
3.341,0.128
3.342,0.128
3.343,0.128
3.344,0.127
3.345,0.128
3.346,0.134
3.347,0.137
3.348,0.141
3.349,0.144
3.350,0.151
3.351,0.153
3.352,0.150
3.353,0.150
3.354,0.147
3.355,0.150
3.356,0.154
3.357,0.156
3.358,0.156
3.359,0.156
3.360,0.161
3.361,0.163
3.362,0.169
3.363,0.172
3.364,0.174
3.365,0.175
3.366,0.177
3.367,0.175
3.368,0.181
3.369,0.181
3.370,0.181
3.371,0.187
3.372,0.191
3.373,0.191
3.374,0.189
3.375,0.191
3.376,0.196
3.377,0.197
3.378,0.201
3.379,0.209
3.380,0.209
3.381,0.213
3.382,0.216
3.383,0.219
3.384,0.223
3.385,0.231
3.386,0.230
3.387,0.228
3.388,0.234
3.389,0.234
3.390,0.242
3.391,0.247
3.392,0.253
3.393,0.253
3.394,0.256
3.395,0.263
3.396,0.263
3.397,0.266
3.398,0.270
3.399,0.275
3.400,0.278
3.401,0.281
3.402,0.284
3.403,0.291
3.404,0.298
3.405,0.303
3.406,0.308
3.407,0.309
3.408,0.311
3.409,0.319
3.410,0.322
3.411,0.328
3.412,0.334
3.413,0.337
3.414,0.342
3.415,0.353
3.416,0.352
3.417,0.359
3.418,0.366
3.419,0.369
3.420,0.369
3.421,0.375
3.422,0.382
3.423,0.391
3.424,0.396
3.425,0.397
3.426,0.404
3.427,0.409
3.428,0.414
3.429,0.419
3.430,0.422
3.431,0.422
3.432,0.428
3.433,0.438
3.434,0.445
3.435,0.450
3.436,0.455
3.437,0.456
3.438,0.462
3.439,0.469
3.440,0.473
3.441,0.478
3.442,0.486
3.443,0.488
3.444,0.492
3.445,0.500
3.446,0.505
3.447,0.506
3.448,0.505
3.449,0.509
3.450,0.516
3.451,0.519
3.452,0.523
3.453,0.528
3.454,0.532
3.455,0.541
3.456,0.539
3.457,0.544
3.458,0.550
3.459,0.550
3.460,0.553
3.461,0.556
3.462,0.557
3.463,0.562
3.464,0.564
3.465,0.566
3.466,0.569
3.467,0.575
3.468,0.579
3.469,0.581
3.470,0.583
3.471,0.581
3.472,0.581
3.473,0.581
3.474,0.584
3.475,0.584
3.476,0.583
3.477,0.581
3.478,0.580
3.479,0.578
3.480,0.576
3.481,0.575
3.482,0.575
3.483,0.575
3.484,0.571
3.485,0.566
3.486,0.562
3.487,0.553
3.488,0.548
3.489,0.544
3.490,0.537
3.491,0.531
3.492,0.522
3.493,0.509
3.494,0.501
3.495,0.494
3.496,0.488
3.497,0.472
3.498,0.462
3.499,0.450
3.500,0.439
3.501,0.428
3.502,0.416
3.503,0.400
3.504,0.392
3.505,0.381
3.506,0.361
3.507,0.344
3.508,0.337
3.509,0.325
3.510,0.314
3.511,0.306
3.512,0.292
3.513,0.278
3.514,0.264
3.515,0.253
3.516,0.241
3.517,0.228
3.518,0.213
3.519,0.197
3.520,0.187
3.521,0.175
3.522,0.166
3.523,0.159
3.524,0.146
3.525,0.134
3.526,0.126
3.527,0.116
3.528,0.104
3.529,0.097
3.530,0.087
3.531,0.081
3.532,0.069
3.533,0.059
3.534,0.050
3.535,0.041
3.536,0.036
3.537,0.031
3.538,0.022
3.539,0.012
3.540,0.000
3.541,-0.006
3.542,-0.012
3.543,-0.016
3.544,-0.022
3.545,-0.022
3.546,-0.025
3.547,-0.028
3.548,-0.034
3.549,-0.038
3.550,-0.039
3.551,-0.047
3.552,-0.050
3.553,-0.056
3.554,-0.059
3.555,-0.062
3.556,-0.062
3.557,-0.066
3.558,-0.066
3.559,-0.069
3.560,-0.073
3.561,-0.072
3.562,-0.072
3.563,-0.072
3.564,-0.074
3.565,-0.075
3.566,-0.072
3.567,-0.072
3.568,-0.081
3.569,-0.088
3.570,-0.088
3.571,-0.091
3.572,-0.089
3.573,-0.088
3.574,-0.091
3.575,-0.091
3.576,-0.094
3.577,-0.097
3.578,-0.096
3.579,-0.094
3.580,-0.092
3.581,-0.094
3.582,-0.094
3.583,-0.094
3.584,-0.094
3.585,-0.094
3.586,-0.094
3.587,-0.091
3.588,-0.092
3.589,-0.094
3.590,-0.095
3.591,-0.094
3.592,-0.095
3.593,-0.094
3.594,-0.097
3.595,-0.094
3.596,-0.094
3.597,-0.094
3.598,-0.092
3.599,-0.091
3.600,-0.089
3.601,-0.091
3.602,-0.088
3.603,-0.088
3.604,-0.089
3.605,-0.091
3.606,-0.092
3.607,-0.091
3.608,-0.091
3.609,-0.091
3.610,-0.095
3.611,-0.094
3.612,-0.094
3.613,-0.094
3.614,-0.091
3.615,-0.091
3.616,-0.094
3.617,-0.094
3.618,-0.094
3.619,-0.094
3.620,-0.091
3.621,-0.094
3.622,-0.091
3.623,-0.084
3.624,-0.088
3.625,-0.088
3.626,-0.088
3.627,-0.088
3.628,-0.086
3.629,-0.084
3.630,-0.086
3.631,-0.081
3.632,-0.079
3.633,-0.081
3.634,-0.082
3.635,-0.084
3.636,-0.084
3.637,-0.084
3.638,-0.086
3.639,-0.088
3.640,-0.084
3.641,-0.081
3.642,-0.082
3.643,-0.084
3.644,-0.084
3.645,-0.081
3.646,-0.078
3.647,-0.078
3.648,-0.079
3.649,-0.081
3.650,-0.083
3.651,-0.081
3.652,-0.082
3.653,-0.084
3.654,-0.082
3.655,-0.084
3.656,-0.084
3.657,-0.084
3.658,-0.084
3.659,-0.084
3.660,-0.089
3.661,-0.088
3.662,-0.089
3.663,-0.091
3.664,-0.089
3.665,-0.088
3.666,-0.088
3.667,-0.091
3.668,-0.088
3.669,-0.091
3.670,-0.088
3.671,-0.091
3.672,-0.089
3.673,-0.091
3.674,-0.089
3.675,-0.091
3.676,-0.091
3.677,-0.091
3.678,-0.094
3.679,-0.091
3.680,-0.095
3.681,-0.097
3.682,-0.098
3.683,-0.100
3.684,-0.100
3.685,-0.100
3.686,-0.100
3.687,-0.097
3.688,-0.099
3.689,-0.100
3.690,-0.099
3.691,-0.100
3.692,-0.101
3.693,-0.100
3.694,-0.100
3.695,-0.097
3.696,-0.100
3.697,-0.103
3.698,-0.104
3.699,-0.106
3.700,-0.108
3.701,-0.106
3.702,-0.109
3.703,-0.109
3.704,-0.109
3.705,-0.109
3.706,-0.108
3.707,-0.106
3.708,-0.108
3.709,-0.109
3.710,-0.105
3.711,-0.106
3.712,-0.106
3.713,-0.106
3.714,-0.109
3.715,-0.116
3.716,-0.116
3.717,-0.116
3.718,-0.116
3.719,-0.116
3.720,-0.114
3.721,-0.112
3.722,-0.112
3.723,-0.112
3.724,-0.111
3.725,-0.112
3.726,-0.114
3.727,-0.119
3.728,-0.118
3.729,-0.119
3.730,-0.116
3.731,-0.119
3.732,-0.116
3.733,-0.119
3.734,-0.116
3.735,-0.119
3.736,-0.119
3.737,-0.119
3.738,-0.119
3.739,-0.119
3.740,-0.118
3.741,-0.116
3.742,-0.116
3.743,-0.122
3.744,-0.122
3.745,-0.122
3.746,-0.123
3.747,-0.125
3.748,-0.124
3.749,-0.125
3.750,-0.128
3.751,-0.125
3.752,-0.125
3.753,-0.125
3.754,-0.127
3.755,-0.125
3.756,-0.124
3.757,-0.122
3.758,-0.122
3.759,-0.122
3.760,-0.125
3.761,-0.125
3.762,-0.125
3.763,-0.125
3.764,-0.129
3.765,-0.128
3.766,-0.128
3.767,-0.128
3.768,-0.127
3.769,-0.128
3.770,-0.128
3.771,-0.128
3.772,-0.129
3.773,-0.128
3.774,-0.127
3.775,-0.128
3.776,-0.129
3.777,-0.131
3.778,-0.131
3.779,-0.131
3.780,-0.131
3.781,-0.134
3.782,-0.136
3.783,-0.134
3.784,-0.136
3.785,-0.131
3.786,-0.136
3.787,-0.138
3.788,-0.134
3.789,-0.138
3.790,-0.134
3.791,-0.131
3.792,-0.133
3.793,-0.134
3.794,-0.133
3.795,-0.131
3.796,-0.134
3.797,-0.134
3.798,-0.134
3.799,-0.138
3.800,-0.136
3.801,-0.134
3.802,-0.130
3.803,-0.131
3.804,-0.138
3.805,-0.138
3.806,-0.134
3.807,-0.134
3.808,-0.133
3.809,-0.138
3.810,-0.143
3.811,-0.134
3.812,-0.136
3.813,-0.138
3.814,-0.136
3.815,-0.134
3.816,-0.133
3.817,-0.134
3.818,-0.131
3.819,-0.134
3.820,-0.133
3.821,-0.134
3.822,-0.138
3.823,-0.138
3.824,-0.139
3.825,-0.141
3.826,-0.139
3.827,-0.141
3.828,-0.144
3.829,-0.138
3.830,-0.142
3.831,-0.144
3.832,-0.141
3.833,-0.141
3.834,-0.141
3.835,-0.141
3.836,-0.141
3.837,-0.141
3.838,-0.143
3.839,-0.141
3.840,-0.141
3.841,-0.141
3.842,-0.139
3.843,-0.138
3.844,-0.141
3.845,-0.141
3.846,-0.138
3.847,-0.134
3.848,-0.131
3.849,-0.131
3.850,-0.133
3.851,-0.134
3.852,-0.136
3.853,-0.141
3.854,-0.139
3.855,-0.141
3.856,-0.139
3.857,-0.138
3.858,-0.136
3.859,-0.134
3.860,-0.138
3.861,-0.138
3.862,-0.138
3.863,-0.138
3.864,-0.138
3.865,-0.138
3.866,-0.134
3.867,-0.131
3.868,-0.133
3.869,-0.134
3.870,-0.136
3.871,-0.138
3.872,-0.138
3.873,-0.138
3.874,-0.138
3.875,-0.138
3.876,-0.136
3.877,-0.134
3.878,-0.134
3.879,-0.134
3.880,-0.134
3.881,-0.134
3.882,-0.133
3.883,-0.131
3.884,-0.133
3.885,-0.134
3.886,-0.134
3.887,-0.134
3.888,-0.134
3.889,-0.134
3.890,-0.134
3.891,-0.134
3.892,-0.136
3.893,-0.138
3.894,-0.138
3.895,-0.138
3.896,-0.138
3.897,-0.138
3.898,-0.138
3.899,-0.138
3.900,-0.138
3.901,-0.138
3.902,-0.141
3.903,-0.144
3.904,-0.144
3.905,-0.144
3.906,-0.144
3.907,-0.144
3.908,-0.145
3.909,-0.147
3.910,-0.146
3.911,-0.144
3.912,-0.144
3.913,-0.144
3.914,-0.144
3.915,-0.144
3.916,-0.143
3.917,-0.141
3.918,-0.141
3.919,-0.141
3.920,-0.144
3.921,-0.147
3.922,-0.147
3.923,-0.147
3.924,-0.147
3.925,-0.147
3.926,-0.147
3.927,-0.147
3.928,-0.147
3.929,-0.147
3.930,-0.147
3.931,-0.147
3.932,-0.147
3.933,-0.147
3.934,-0.147
3.935,-0.147
3.936,-0.148
3.937,-0.150
3.938,-0.150
3.939,-0.150
3.940,-0.150
3.941,-0.150
3.942,-0.153
3.943,-0.156
3.944,-0.154
3.945,-0.150
3.946,-0.150
3.947,-0.147
3.948,-0.147
3.949,-0.147
3.950,-0.150
3.951,-0.150
3.952,-0.147
3.953,-0.147
3.954,-0.147
3.955,-0.147
3.956,-0.151
3.957,-0.150
3.958,-0.150
3.959,-0.150
3.960,-0.147
3.961,-0.144
3.962,-0.141
3.963,-0.144
3.964,-0.145
3.965,-0.147
3.966,-0.148
3.967,-0.147
3.968,-0.149
3.969,-0.147
3.970,-0.148
3.971,-0.150
3.972,-0.150
3.973,-0.150
3.974,-0.154
3.975,-0.153
3.976,-0.152
3.977,-0.150
3.978,-0.153
3.979,-0.150
3.980,-0.149
3.981,-0.150
3.982,-0.148
3.983,-0.150
3.984,-0.150
3.985,-0.147
3.986,-0.146
3.987,-0.147
3.988,-0.148
3.989,-0.153
3.990,-0.154
3.991,-0.153
3.992,-0.153
3.993,-0.153
3.994,-0.152
3.995,-0.150
3.996,-0.150
3.997,-0.150
3.998,-0.151
3.999,-0.153
4.000,-0.152
4.001,-0.153
4.002,-0.152
4.003,-0.150
4.004,-0.151
4.005,-0.150
4.006,-0.150
4.007,-0.150
4.008,-0.151
4.009,-0.153
4.010,-0.153
4.011,-0.150
4.012,-0.152
4.013,-0.150
4.014,-0.150
4.015,-0.150
4.016,-0.149
4.017,-0.147
4.018,-0.147
4.019,-0.147
4.020,-0.147
4.021,-0.147
4.022,-0.147
4.023,-0.147
4.024,-0.147
4.025,-0.147
4.026,-0.147
4.027,-0.147
4.028,-0.154
4.029,-0.159
4.030,-0.156
4.031,-0.156
4.032,-0.159
4.033,-0.159
4.034,-0.158
4.035,-0.156
4.036,-0.158
4.037,-0.156
4.038,-0.155
4.039,-0.150
4.040,-0.150
4.041,-0.150
4.042,-0.153
4.043,-0.159
4.044,-0.156
4.045,-0.156
4.046,-0.156
4.047,-0.153
4.048,-0.156
4.049,-0.153
4.050,-0.155
4.051,-0.153
4.052,-0.153
4.053,-0.153
4.054,-0.152
4.055,-0.150
4.056,-0.146
4.057,-0.147
4.058,-0.144
4.059,-0.144
4.060,-0.147
4.061,-0.147
4.062,-0.148
4.063,-0.150
4.064,-0.149
4.065,-0.147
4.066,-0.147
4.067,-0.147
4.068,-0.151
4.069,-0.156
4.070,-0.156
4.071,-0.150
4.072,-0.150
4.073,-0.150
4.074,-0.153
4.075,-0.156
4.076,-0.156
4.077,-0.156
4.078,-0.152
4.079,-0.147
4.080,-0.149
4.081,-0.147
4.082,-0.147
4.083,-0.147
4.084,-0.154
4.085,-0.156
4.086,-0.161
4.087,-0.159
4.088,-0.159
4.089,-0.159
4.090,-0.163
4.091,-0.159
4.092,-0.161
4.093,-0.156
4.094,-0.155
4.095,-0.153
4.096,-0.153
4.097,-0.153
4.098,-0.153
4.099,-0.153
4.100,-0.149
4.101,-0.147
4.102,-0.147
4.103,-0.147
4.104,-0.148
4.105,-0.150
4.106,-0.151
4.107,-0.156
4.108,-0.159
4.109,-0.156
4.110,-0.159
4.111,-0.159
4.112,-0.163
4.113,-0.159
4.114,-0.159
4.115,-0.159
4.116,-0.156
4.117,-0.153
4.118,-0.153
4.119,-0.153
4.120,-0.153
4.121,-0.153
4.122,-0.153
4.123,-0.153
4.124,-0.153
4.125,-0.150
4.126,-0.152
4.127,-0.150
4.128,-0.156
4.129,-0.156
4.130,-0.156
4.131,-0.156
4.132,-0.152
4.133,-0.150
4.134,-0.152
4.135,-0.150
4.136,-0.148
4.137,-0.150
4.138,-0.154
4.139,-0.156
4.140,-0.153
4.141,-0.156
4.142,-0.155
4.143,-0.153
4.144,-0.149
4.145,-0.147
4.146,-0.148
4.147,-0.150
4.148,-0.149
4.149,-0.147
4.150,-0.149
4.151,-0.147
4.152,-0.145
4.153,-0.147
4.154,-0.148
4.155,-0.150
4.156,-0.151
4.157,-0.153
4.158,-0.158
4.159,-0.156
4.160,-0.155
4.161,-0.156
4.162,-0.156
4.163,-0.153
4.164,-0.156
4.165,-0.156
4.166,-0.156
4.167,-0.153
4.168,-0.152
4.169,-0.153
4.170,-0.151
4.171,-0.153
4.172,-0.153
4.173,-0.153
4.174,-0.154
4.175,-0.156
4.176,-0.158
4.177,-0.156
4.178,-0.156
4.179,-0.156
4.180,-0.153
4.181,-0.153
4.182,-0.155
4.183,-0.153
4.184,-0.152
4.185,-0.150
4.186,-0.154
4.187,-0.156
4.188,-0.158
4.189,-0.156
4.190,-0.156
4.191,-0.156
4.192,-0.156
4.193,-0.156
4.194,-0.158
4.195,-0.156
4.196,-0.155
4.197,-0.153
4.198,-0.153
4.199,-0.153
4.200,-0.150
4.201,-0.150
4.202,-0.148
4.203,-0.150
4.204,-0.149
4.205,-0.147
4.206,-0.149
4.207,-0.147
4.208,-0.150
4.209,-0.150
4.210,-0.149
4.211,-0.147
4.212,-0.147
4.213,-0.147
4.214,-0.147
4.215,-0.147
4.216,-0.146
4.217,-0.144
4.218,-0.145
4.219,-0.147
4.220,-0.147
4.221,-0.147
4.222,-0.148
4.223,-0.147
4.224,-0.147
4.225,-0.147
4.226,-0.143
4.227,-0.144
4.228,-0.148
4.229,-0.147
4.230,-0.147
4.231,-0.147
4.232,-0.147
4.233,-0.144
4.234,-0.144
4.235,-0.141
4.236,-0.141
4.237,-0.141
4.238,-0.141
4.239,-0.141
4.240,-0.142
4.241,-0.141
4.242,-0.136
4.243,-0.131
4.244,-0.127
4.245,-0.122
4.246,-0.119
4.247,-0.122
4.248,-0.119
4.249,-0.112
4.250,-0.108
4.251,-0.100
4.252,-0.097
4.253,-0.094
4.254,-0.088
4.255,-0.081
4.256,-0.078
4.257,-0.075
4.258,-0.072
4.259,-0.069
4.260,-0.069
4.261,-0.066
4.262,-0.073
4.263,-0.081
4.264,-0.086
4.265,-0.094
4.266,-0.096
4.267,-0.097
4.268,-0.101
4.269,-0.103
4.270,-0.102
4.271,-0.097
4.272,-0.088
4.273,-0.078
4.274,-0.075
4.275,-0.069
4.276,-0.066
4.277,-0.062
4.278,-0.054
4.279,-0.047
4.280,-0.041
4.281,-0.031
4.282,-0.026
4.283,-0.028
4.284,-0.025
4.285,-0.025
4.286,-0.032
4.287,-0.044
4.288,-0.053
4.289,-0.062
4.290,-0.072
4.291,-0.084
4.292,-0.092
4.293,-0.100
4.294,-0.103
4.295,-0.109
4.296,-0.114
4.297,-0.119
4.298,-0.116
4.299,-0.119
4.300,-0.112
4.301,-0.109
4.302,-0.109
4.303,-0.112
4.304,-0.116
4.305,-0.116
4.306,-0.120
4.307,-0.125
4.308,-0.122
4.309,-0.125
4.310,-0.125
4.311,-0.125
4.312,-0.131
4.313,-0.138
4.314,-0.143
4.315,-0.144
4.316,-0.141
4.317,-0.144
4.318,-0.145
4.319,-0.147
4.320,-0.150
4.321,-0.150
4.322,-0.153
4.323,-0.156
4.324,-0.156
4.325,-0.156
4.326,-0.158
4.327,-0.159
4.328,-0.163
4.329,-0.163
4.330,-0.166
4.331,-0.166
4.332,-0.164
4.333,-0.163
4.334,-0.163
4.335,-0.163
4.336,-0.163
4.337,-0.163
4.338,-0.163
4.339,-0.163
4.340,-0.163
4.341,-0.166
4.342,-0.166
4.343,-0.163
4.344,-0.167
4.345,-0.166
4.346,-0.167
4.347,-0.169
4.348,-0.164
4.349,-0.163
4.350,-0.166
4.351,-0.163
4.352,-0.164
4.353,-0.163
4.354,-0.166
4.355,-0.163
4.356,-0.164
4.357,-0.166
4.358,-0.164
4.359,-0.166
4.360,-0.166
4.361,-0.166
4.362,-0.163
4.363,-0.166
4.364,-0.169
4.365,-0.169
4.366,-0.169
4.367,-0.166
4.368,-0.163
4.369,-0.163
4.370,-0.161
4.371,-0.163
4.372,-0.164
4.373,-0.163
4.374,-0.159
4.375,-0.159
4.376,-0.163
4.377,-0.159
4.378,-0.161
4.379,-0.159
4.380,-0.159
4.381,-0.159
4.382,-0.159
4.383,-0.163
4.384,-0.163
4.385,-0.163
4.386,-0.163
4.387,-0.166
4.388,-0.164
4.389,-0.166
4.390,-0.164
4.391,-0.166
4.392,-0.172
4.393,-0.175
4.394,-0.184
4.395,-0.197
4.396,-0.217
4.397,-0.241
4.398,-0.267
4.399,-0.297
4.400,-0.322
4.401,-0.347
4.402,-0.375
4.403,-0.400
4.404,-0.422
4.405,-0.441
4.406,-0.455
4.407,-0.462
4.408,-0.455
4.409,-0.441
4.410,-0.414
4.411,-0.388
4.412,-0.353
4.413,-0.319
4.414,-0.272
4.415,-0.225
4.416,-0.175
4.417,-0.116
4.418,-0.047
4.419,0.031
4.420,0.112
4.421,0.194
4.422,0.284
4.423,0.381
4.424,0.496
4.425,0.613
4.426,0.737
4.427,0.872
4.428,1.023
4.429,1.181
4.430,1.356
4.431,1.547
4.432,1.737
4.433,1.925
4.434,2.093
4.435,2.250
4.436,2.362
4.437,2.450
4.438,2.466
4.439,2.450
4.440,2.400
4.441,2.347
4.442,2.249
4.443,2.119
4.444,1.944
4.445,1.750
4.446,1.550
4.447,1.350
4.448,1.163
4.449,0.984
4.450,0.817
4.451,0.653
4.452,0.496
4.453,0.341
4.454,0.203
4.455,0.081
4.456,0.000
4.457,-0.053
4.458,-0.088
4.459,-0.122
4.460,-0.141
4.461,-0.153
4.462,-0.158
4.463,-0.159
4.464,-0.163
4.465,-0.159
4.466,-0.149
4.467,-0.128
4.468,-0.105
4.469,-0.084
4.470,-0.058
4.471,-0.038
4.472,-0.017
4.473,-0.003
4.474,0.009
4.475,0.016
4.476,0.024
4.477,0.028
4.478,0.030
4.479,0.031
4.480,0.031
4.481,0.031
4.482,0.026
4.483,0.025
4.484,0.022
4.485,0.019
4.486,0.011
4.487,0.003
4.488,-0.002
4.489,-0.003
4.490,-0.011
4.491,-0.012
4.492,-0.014
4.493,-0.012
4.494,-0.014
4.495,-0.016
4.496,-0.017
4.497,-0.016
4.498,-0.016
4.499,-0.016
4.500,-0.016
4.501,-0.016
4.502,-0.016
4.503,-0.016
4.504,-0.019
4.505,-0.019
4.506,-0.019
4.507,-0.019
4.508,-0.020
4.509,-0.022
4.510,-0.021
4.511,-0.019
4.512,-0.019
4.513,-0.019
4.514,-0.020
4.515,-0.019
4.516,-0.020
4.517,-0.019
4.518,-0.019
4.519,-0.016
4.520,-0.014
4.521,-0.012
4.522,-0.016
4.523,-0.012
4.524,-0.016
4.525,-0.016
4.526,-0.016
4.527,-0.012
4.528,-0.012
4.529,-0.009
4.530,-0.011
4.531,-0.009
4.532,-0.012
4.533,-0.009
4.534,-0.006
4.535,-0.003
4.536,0.001
4.537,0.003
4.538,0.002
4.539,0.003
4.540,0.004
4.541,0.006
4.542,0.008
4.543,0.009
4.544,0.009
4.545,0.009
4.546,0.008
4.547,0.009
4.548,0.012
4.549,0.016
4.550,0.020
4.551,0.019
4.552,0.024
4.553,0.022
4.554,0.025
4.555,0.022
4.556,0.021
4.557,0.025
4.558,0.025
4.559,0.025
4.560,0.027
4.561,0.025
4.562,0.025
4.563,0.028
4.564,0.031
4.565,0.031
4.566,0.032
4.567,0.031
4.568,0.031
4.569,0.028
4.570,0.034
4.571,0.034
4.572,0.038
4.573,0.041
4.574,0.042
4.575,0.044
4.576,0.042
4.577,0.041
4.578,0.044
4.579,0.044
4.580,0.047
4.581,0.047
4.582,0.051
4.583,0.056
4.584,0.056
4.585,0.056
4.586,0.058
4.587,0.056
4.588,0.062
4.589,0.066
4.590,0.066
4.591,0.069
4.592,0.067
4.593,0.069
4.594,0.070
4.595,0.072
4.596,0.072
4.597,0.069
4.598,0.072
4.599,0.075
4.600,0.076
4.601,0.078
4.602,0.081
4.603,0.084
4.604,0.084
4.605,0.087
4.606,0.089
4.607,0.094
4.608,0.092
4.609,0.094
4.610,0.095
4.611,0.097
4.612,0.099
4.613,0.100
4.614,0.099
4.615,0.100
4.616,0.101
4.617,0.103
4.618,0.106
4.619,0.106
4.620,0.106
4.621,0.106
4.622,0.109
4.623,0.112
4.624,0.116
4.625,0.116
4.626,0.119
4.627,0.122
4.628,0.122
4.629,0.122
4.630,0.121
4.631,0.125
4.632,0.126
4.633,0.128
4.634,0.131
4.635,0.131
4.636,0.139
4.637,0.144
4.638,0.143
4.639,0.144
4.640,0.148
4.641,0.153
4.642,0.150
4.643,0.150
4.644,0.151
4.645,0.156
4.646,0.161
4.647,0.166
4.648,0.164
4.649,0.169
4.650,0.172
4.651,0.175
4.652,0.177
4.653,0.175
4.654,0.178
4.655,0.181
4.656,0.184
4.657,0.191
4.658,0.193
4.659,0.191
4.660,0.194
4.661,0.197
4.662,0.202
4.663,0.203
4.664,0.206
4.665,0.206
4.666,0.211
4.667,0.216
4.668,0.216
4.669,0.219
4.670,0.222
4.671,0.231
4.672,0.236
4.673,0.244
4.674,0.245
4.675,0.250
4.676,0.256
4.677,0.259
4.678,0.267
4.679,0.272
4.680,0.272
4.681,0.272
4.682,0.278
4.683,0.284
4.684,0.287
4.685,0.291
4.686,0.295
4.687,0.303
4.688,0.307
4.689,0.309
4.690,0.314
4.691,0.316
4.692,0.322
4.693,0.328
4.694,0.332
4.695,0.337
4.696,0.346
4.697,0.344
4.698,0.352
4.699,0.356
4.700,0.361
4.701,0.362
4.702,0.366
4.703,0.369
4.704,0.376
4.705,0.384
4.706,0.388
4.707,0.394
4.708,0.396
4.709,0.400
4.710,0.406
4.711,0.412
4.712,0.419
4.713,0.425
4.714,0.431
4.715,0.438
4.716,0.441
4.717,0.447
4.718,0.450
4.719,0.456
4.720,0.462
4.721,0.466
4.722,0.469
4.723,0.478
4.724,0.480
4.725,0.481
4.726,0.488
4.727,0.494
4.728,0.498
4.729,0.500
4.730,0.503
4.731,0.506
4.732,0.508
4.733,0.509
4.734,0.516
4.735,0.522
4.736,0.529
4.737,0.531
4.738,0.534
4.739,0.541
4.740,0.542
4.741,0.544
4.742,0.547
4.743,0.547
4.744,0.551
4.745,0.556
4.746,0.559
4.747,0.559
4.748,0.562
4.749,0.566
4.750,0.566
4.751,0.569
4.752,0.569
4.753,0.569
4.754,0.569
4.755,0.572
4.756,0.575
4.757,0.578
4.758,0.578
4.759,0.578
4.760,0.578
4.761,0.575
4.762,0.571
4.763,0.566
4.764,0.561
4.765,0.556
4.766,0.554
4.767,0.556
4.768,0.549
4.769,0.541
4.770,0.534
4.771,0.528
4.772,0.523
4.773,0.519
4.774,0.509
4.775,0.500
4.776,0.489
4.777,0.484
4.778,0.473
4.779,0.466
4.780,0.450
4.781,0.434
4.782,0.422
4.783,0.412
4.784,0.400
4.785,0.391
4.786,0.378
4.787,0.362
4.788,0.349
4.789,0.337
4.790,0.326
4.791,0.316
4.792,0.300
4.793,0.284
4.794,0.272
4.795,0.259
4.796,0.249
4.797,0.234
4.798,0.223
4.799,0.213
4.800,0.200
4.801,0.191
4.802,0.178
4.803,0.166
4.804,0.155
4.805,0.141
4.806,0.134
4.807,0.128
4.808,0.116
4.809,0.103
4.810,0.092
4.811,0.081
4.812,0.075
4.813,0.066
4.814,0.061
4.815,0.053
4.816,0.042
4.817,0.034
4.818,0.029
4.819,0.022
4.820,0.012
4.821,0.003
4.822,-0.001
4.823,-0.009
4.824,-0.012
4.825,-0.022
4.826,-0.026
4.827,-0.031
4.828,-0.031
4.829,-0.034
4.830,-0.041
4.831,-0.047
4.832,-0.055
4.833,-0.053
4.834,-0.055
4.835,-0.056
4.836,-0.059
4.837,-0.062
4.838,-0.070
4.839,-0.072
4.840,-0.074
4.841,-0.075
4.842,-0.073
4.843,-0.078
4.844,-0.081
4.845,-0.084
4.846,-0.086
4.847,-0.084
4.848,-0.088
4.849,-0.091
4.850,-0.091
4.851,-0.091
4.852,-0.094
4.853,-0.094
4.854,-0.092
4.855,-0.094
4.856,-0.095
4.857,-0.097
4.858,-0.097
4.859,-0.097
4.860,-0.096
4.861,-0.094
4.862,-0.097
4.863,-0.097
4.864,-0.096
4.865,-0.094
4.866,-0.094
4.867,-0.094
4.868,-0.091
4.869,-0.094
4.870,-0.098
4.871,-0.100
4.872,-0.097
4.873,-0.097
4.874,-0.097
4.875,-0.103
4.876,-0.100
4.877,-0.100
4.878,-0.100
4.879,-0.100
4.880,-0.100
4.881,-0.100
4.882,-0.102
4.883,-0.097
4.884,-0.094
4.885,-0.091
4.886,-0.092
4.887,-0.094
4.888,-0.092
4.889,-0.094
4.890,-0.092
4.891,-0.094
4.892,-0.092
4.893,-0.094
4.894,-0.095
4.895,-0.094
4.896,-0.094
4.897,-0.097
4.898,-0.097
4.899,-0.097
4.900,-0.097
4.901,-0.094
4.902,-0.097
4.903,-0.097
4.904,-0.092
4.905,-0.091
4.906,-0.088
4.907,-0.088
4.908,-0.089
4.909,-0.091
4.910,-0.091
4.911,-0.094
4.912,-0.091
4.913,-0.088
4.914,-0.089
4.915,-0.091
4.916,-0.089
4.917,-0.088
4.918,-0.086
4.919,-0.084
4.920,-0.084
4.921,-0.084
4.922,-0.086
4.923,-0.088
4.924,-0.086
4.925,-0.088
4.926,-0.086
4.927,-0.081
4.928,-0.081
4.929,-0.081
4.930,-0.081
4.931,-0.084
4.932,-0.084
4.933,-0.084
4.934,-0.086
4.935,-0.084
4.936,-0.086
4.937,-0.088
4.938,-0.088
4.939,-0.088
4.940,-0.083
4.941,-0.081
4.942,-0.078
4.943,-0.078
4.944,-0.078
4.945,-0.078
4.946,-0.079
4.947,-0.081
4.948,-0.084
4.949,-0.081
4.950,-0.083
4.951,-0.078
4.952,-0.082
4.953,-0.081
4.954,-0.081
4.955,-0.081
4.956,-0.084
4.957,-0.084
4.958,-0.084
4.959,-0.088
4.960,-0.084
4.961,-0.088
4.962,-0.088
4.963,-0.088
4.964,-0.088
4.965,-0.088
4.966,-0.089
4.967,-0.091
4.968,-0.086
4.969,-0.088
4.970,-0.089
4.971,-0.088
4.972,-0.092
4.973,-0.094
4.974,-0.091
4.975,-0.094
4.976,-0.094
4.977,-0.094
4.978,-0.094
4.979,-0.094
4.980,-0.094
4.981,-0.097
4.982,-0.097
4.983,-0.100
4.984,-0.097
4.985,-0.094
4.986,-0.095
4.987,-0.097
4.988,-0.097
4.989,-0.097
4.990,-0.098
4.991,-0.097
4.992,-0.101
4.993,-0.103
4.994,-0.103
4.995,-0.103
4.996,-0.106
4.997,-0.106
4.998,-0.106
4.999,-0.106
5.000,-0.106
5.001,-0.106
5.002,-0.106
5.003,-0.106
5.004,-0.105
5.005,-0.103
5.006,-0.108
5.007,-0.109
5.008,-0.111
5.009,-0.109
5.010,-0.114
5.011,-0.112
5.012,-0.116
5.013,-0.112
5.014,-0.119
5.015,-0.119
5.016,-0.122
5.017,-0.122
5.018,-0.122
5.019,-0.122
5.020,-0.123
5.021,-0.125
5.022,-0.126
5.023,-0.125
5.024,-0.124
5.025,-0.119
5.026,-0.119
5.027,-0.119
5.028,-0.118
5.029,-0.116
5.030,-0.119
5.031,-0.122
5.032,-0.120
5.033,-0.122
5.034,-0.121
5.035,-0.122
5.036,-0.123
5.037,-0.125
5.038,-0.126
5.039,-0.128
5.040,-0.127
5.041,-0.128
5.042,-0.128
5.043,-0.128
5.044,-0.128
5.045,-0.131
5.046,-0.129
5.047,-0.131
5.048,-0.130
5.049,-0.128
5.050,-0.128
5.051,-0.125
5.052,-0.126
5.053,-0.128
5.054,-0.126
5.055,-0.128
5.056,-0.130
5.057,-0.128
5.058,-0.128
5.059,-0.128
5.060,-0.128
5.061,-0.128
5.062,-0.131
5.063,-0.131
5.064,-0.127
5.065,-0.128
5.066,-0.125
5.067,-0.128
5.068,-0.128
5.069,-0.125
5.070,-0.128
5.071,-0.128
5.072,-0.129
5.073,-0.131
5.074,-0.133
5.075,-0.134
5.076,-0.134
5.077,-0.134
5.078,-0.131
5.079,-0.131
5.080,-0.136
5.081,-0.138
5.082,-0.138
5.083,-0.134
5.084,-0.136
5.085,-0.138
5.086,-0.136
5.087,-0.138
5.088,-0.141
5.089,-0.138
5.090,-0.134
5.091,-0.134
5.092,-0.131
5.093,-0.134
5.094,-0.136
5.095,-0.138
5.096,-0.136
5.097,-0.134
5.098,-0.141
5.099,-0.141
5.100,-0.144
5.101,-0.141
5.102,-0.141
5.103,-0.144
5.104,-0.143
5.105,-0.141
5.106,-0.141
5.107,-0.141
5.108,-0.145
5.109,-0.150
5.110,-0.144
5.111,-0.147
5.112,-0.148
5.113,-0.147
5.114,-0.146
5.115,-0.144
5.116,-0.143
5.117,-0.141
5.118,-0.139
5.119,-0.141
5.120,-0.142
5.121,-0.144
5.122,-0.143
5.123,-0.141
5.124,-0.139
5.125,-0.141
5.126,-0.142
5.127,-0.144
5.128,-0.144
5.129,-0.141
5.130,-0.141
5.131,-0.141
5.132,-0.141
5.133,-0.141
5.134,-0.144
5.135,-0.141
5.136,-0.141
5.137,-0.141
5.138,-0.141
5.139,-0.141
5.140,-0.141
5.141,-0.141
5.142,-0.141
5.143,-0.141
5.144,-0.141
5.145,-0.141
5.146,-0.142
5.147,-0.144
5.148,-0.144
5.149,-0.144
5.150,-0.143
5.151,-0.141
5.152,-0.142
5.153,-0.144
5.154,-0.143
5.155,-0.141
5.156,-0.142
5.157,-0.144
5.158,-0.144
5.159,-0.144
5.160,-0.143
5.161,-0.141
5.162,-0.141
5.163,-0.141
5.164,-0.142
5.165,-0.144
5.166,-0.144
5.167,-0.144
5.168,-0.144
5.169,-0.144
5.170,-0.145
5.171,-0.147
5.172,-0.147
5.173,-0.147
5.174,-0.147
5.175,-0.147
5.176,-0.147
5.177,-0.147
5.178,-0.146
5.179,-0.144
5.180,-0.145
5.181,-0.147
5.182,-0.146
5.183,-0.144
5.184,-0.144
5.185,-0.144
5.186,-0.143
5.187,-0.141
5.188,-0.141
5.189,-0.141
5.190,-0.141
5.191,-0.141
5.192,-0.141
5.193,-0.141
5.194,-0.141
5.195,-0.141
5.196,-0.142
5.197,-0.144
5.198,-0.145
5.199,-0.147
5.200,-0.147
5.201,-0.147
5.202,-0.147
5.203,-0.147
5.204,-0.146
5.205,-0.144
5.206,-0.143
5.207,-0.141
5.208,-0.141
5.209,-0.141
5.210,-0.142
5.211,-0.144
5.212,-0.144
5.213,-0.144
5.214,-0.145
5.215,-0.147
5.216,-0.147
5.217,-0.147
5.218,-0.147
5.219,-0.147
5.220,-0.147
5.221,-0.147
5.222,-0.147
5.223,-0.147
5.224,-0.146
5.225,-0.144
5.226,-0.145
5.227,-0.147
5.228,-0.146
5.229,-0.144
5.230,-0.144
5.231,-0.144
5.232,-0.145
5.233,-0.147
5.234,-0.146
5.235,-0.144
5.236,-0.139
5.237,-0.141
5.238,-0.142
5.239,-0.144
5.240,-0.144
5.241,-0.147
5.242,-0.150
5.243,-0.150
5.244,-0.150
5.245,-0.150
5.246,-0.149
5.247,-0.150
5.248,-0.147
5.249,-0.147
5.250,-0.147
5.251,-0.147
5.252,-0.147
5.253,-0.144
5.254,-0.147
5.255,-0.147
5.256,-0.147
5.257,-0.147
5.258,-0.144
5.259,-0.147
5.260,-0.147
5.261,-0.147
5.262,-0.148
5.263,-0.150
5.264,-0.150
5.265,-0.153
5.266,-0.149
5.267,-0.147
5.268,-0.147
5.269,-0.150
5.270,-0.147
5.271,-0.147
5.272,-0.150
5.273,-0.147
5.274,-0.147
5.275,-0.147
5.276,-0.144
5.277,-0.144
5.278,-0.147
5.279,-0.147
5.280,-0.150
5.281,-0.150
5.282,-0.147
5.283,-0.147
5.284,-0.146
5.285,-0.144
5.286,-0.144
5.287,-0.144
5.288,-0.141
5.289,-0.138
5.290,-0.138
5.291,-0.138
5.292,-0.142
5.293,-0.144
5.294,-0.144
5.295,-0.144
5.296,-0.141
5.297,-0.141
5.298,-0.142
5.299,-0.144
5.300,-0.143
5.301,-0.141
5.302,-0.138
5.303,-0.141
5.304,-0.141
5.305,-0.141
5.306,-0.141
5.307,-0.141
5.308,-0.141
5.309,-0.141
5.310,-0.141
5.311,-0.141
5.312,-0.142
5.313,-0.144
5.314,-0.144
5.315,-0.144
5.316,-0.144
5.317,-0.144
5.318,-0.143
5.319,-0.144
5.320,-0.145
5.321,-0.144
5.322,-0.143
5.323,-0.144
5.324,-0.144
5.325,-0.144
5.326,-0.145
5.327,-0.147
5.328,-0.144
5.329,-0.147
5.330,-0.147
5.331,-0.147
5.332,-0.147
5.333,-0.147
5.334,-0.149
5.335,-0.144
5.336,-0.147
5.337,-0.150
5.338,-0.147
5.339,-0.150
5.340,-0.146
5.341,-0.147
5.342,-0.147
5.343,-0.147
5.344,-0.147
5.345,-0.147
5.346,-0.148
5.347,-0.147
5.348,-0.151
5.349,-0.150
5.350,-0.146
5.351,-0.144
5.352,-0.144
5.353,-0.144
5.354,-0.145
5.355,-0.147
5.356,-0.150
5.357,-0.153
5.358,-0.154
5.359,-0.156
5.360,-0.153
5.361,-0.153
5.362,-0.150
5.363,-0.150
5.364,-0.150
5.365,-0.150
5.366,-0.150
5.367,-0.150
5.368,-0.149
5.369,-0.147
5.370,-0.146
5.371,-0.147
5.372,-0.148
5.373,-0.150
5.374,-0.149
5.375,-0.150
5.376,-0.148
5.377,-0.153
5.378,-0.150
5.379,-0.150
5.380,-0.150
5.381,-0.153
5.382,-0.153
5.383,-0.159
5.384,-0.156
5.385,-0.156
5.386,-0.155
5.387,-0.153
5.388,-0.154
5.389,-0.156
5.390,-0.158
5.391,-0.156
5.392,-0.156
5.393,-0.156
5.394,-0.155
5.395,-0.153
5.396,-0.152
5.397,-0.150
5.398,-0.154
5.399,-0.156
5.400,-0.149
5.401,-0.150
5.402,-0.149
5.403,-0.150
5.404,-0.148
5.405,-0.150
5.406,-0.149
5.407,-0.147
5.408,-0.148
5.409,-0.150
5.410,-0.150
5.411,-0.150
5.412,-0.149
5.413,-0.147
5.414,-0.147
5.415,-0.147
5.416,-0.144
5.417,-0.147
5.418,-0.147
5.419,-0.150
5.420,-0.147
5.421,-0.147
5.422,-0.148
5.423,-0.147
5.424,-0.143
5.425,-0.141
5.426,-0.142
5.427,-0.141
5.428,-0.141
5.429,-0.144
5.430,-0.147
5.431,-0.147
5.432,-0.150
5.433,-0.150
5.434,-0.150
5.435,-0.147
5.436,-0.148
5.437,-0.150
5.438,-0.149
5.439,-0.147
5.440,-0.146
5.441,-0.147
5.442,-0.148
5.443,-0.147
5.444,-0.147
5.445,-0.147
5.446,-0.147
5.447,-0.147
5.448,-0.146
5.449,-0.147
5.450,-0.143
5.451,-0.141
5.452,-0.145
5.453,-0.147
5.454,-0.144
5.455,-0.147
5.456,-0.148
5.457,-0.150
5.458,-0.147
5.459,-0.147
5.460,-0.150
5.461,-0.147
5.462,-0.147
5.463,-0.147
5.464,-0.147
5.465,-0.147
5.466,-0.146
5.467,-0.147
5.468,-0.147
5.469,-0.147
5.470,-0.146
5.471,-0.141
5.472,-0.139
5.473,-0.141
5.474,-0.141
5.475,-0.141
5.476,-0.142
5.477,-0.144
5.478,-0.142
5.479,-0.147
5.480,-0.147
5.481,-0.147
5.482,-0.146
5.483,-0.144
5.484,-0.145
5.485,-0.147
5.486,-0.145
5.487,-0.147
5.488,-0.148
5.489,-0.150
5.490,-0.147
5.491,-0.144
5.492,-0.147
5.493,-0.144
5.494,-0.144
5.495,-0.144
5.496,-0.143
5.497,-0.144
5.498,-0.145
5.499,-0.147
5.500,-0.144
5.501,-0.144
5.502,-0.145
5.503,-0.147
5.504,-0.147
5.505,-0.147
5.506,-0.147
5.507,-0.147
5.508,-0.147
5.509,-0.147
5.510,-0.147
5.511,-0.147
5.512,-0.146
5.513,-0.144
5.514,-0.142
5.515,-0.144
5.516,-0.143
5.517,-0.138
5.518,-0.136
5.519,-0.134
5.520,-0.134
5.521,-0.138
5.522,-0.139
5.523,-0.141
5.524,-0.139
5.525,-0.141
5.526,-0.134
5.527,-0.131
5.528,-0.133
5.529,-0.134
5.530,-0.134
5.531,-0.134
5.532,-0.133
5.533,-0.131
5.534,-0.127
5.535,-0.122
5.536,-0.120
5.537,-0.119
5.538,-0.122
5.539,-0.119
5.540,-0.114
5.541,-0.112
5.542,-0.108
5.543,-0.106
5.544,-0.100
5.545,-0.091
5.546,-0.083
5.547,-0.078
5.548,-0.078
5.549,-0.075
5.550,-0.064
5.551,-0.059
5.552,-0.053
5.553,-0.056
5.554,-0.061
5.555,-0.066
5.556,-0.078
5.557,-0.084
5.558,-0.091
5.559,-0.097
5.560,-0.097
5.561,-0.097
5.562,-0.098
5.563,-0.097
5.564,-0.088
5.565,-0.081
5.566,-0.074
5.567,-0.066
5.568,-0.061
5.569,-0.053
5.570,-0.044
5.571,-0.038
5.572,-0.027
5.573,-0.019
5.574,-0.018
5.575,-0.016
5.576,-0.018
5.577,-0.022
5.578,-0.028
5.579,-0.034
5.580,-0.045
5.581,-0.056
5.582,-0.069
5.583,-0.075
5.584,-0.082
5.585,-0.088
5.586,-0.095
5.587,-0.100
5.588,-0.103
5.589,-0.103
5.590,-0.111
5.591,-0.109
5.592,-0.109
5.593,-0.109
5.594,-0.114
5.595,-0.119
5.596,-0.119
5.597,-0.119
5.598,-0.118
5.599,-0.112
5.600,-0.114
5.601,-0.112
5.602,-0.112
5.603,-0.119
5.604,-0.125
5.605,-0.131
5.606,-0.138
5.607,-0.141
5.608,-0.147
5.609,-0.147
5.610,-0.146
5.611,-0.147
5.612,-0.146
5.613,-0.147
5.614,-0.154
5.615,-0.159
5.616,-0.159
5.617,-0.159
5.618,-0.159
5.619,-0.163
5.620,-0.163
5.621,-0.166
5.622,-0.166
5.623,-0.166
5.624,-0.166
5.625,-0.166
5.626,-0.166
5.627,-0.166
5.628,-0.166
5.629,-0.166
5.630,-0.166
5.631,-0.166
5.632,-0.169
5.633,-0.169
5.634,-0.164
5.635,-0.166
5.636,-0.164
5.637,-0.166
5.638,-0.169
5.639,-0.169
5.640,-0.166
5.641,-0.166
5.642,-0.163
5.643,-0.166
5.644,-0.166
5.645,-0.166
5.646,-0.159
5.647,-0.163
5.648,-0.167
5.649,-0.166
5.650,-0.161
5.651,-0.156
5.652,-0.159
5.653,-0.159
5.654,-0.163
5.655,-0.166
5.656,-0.167
5.657,-0.169
5.658,-0.164
5.659,-0.159
5.660,-0.159
5.661,-0.159
5.662,-0.163
5.663,-0.163
5.664,-0.161
5.665,-0.159
5.666,-0.156
5.667,-0.156
5.668,-0.152
5.669,-0.153
5.670,-0.154
5.671,-0.156
5.672,-0.158
5.673,-0.159
5.674,-0.164
5.675,-0.163
5.676,-0.159
5.677,-0.159
5.678,-0.161
5.679,-0.156
5.680,-0.153
5.681,-0.150
5.682,-0.152
5.683,-0.156
5.684,-0.161
5.685,-0.172
5.686,-0.181
5.687,-0.197
5.688,-0.219
5.689,-0.244
5.690,-0.272
5.691,-0.300
5.692,-0.328
5.693,-0.356
5.694,-0.383
5.695,-0.406
5.696,-0.425
5.697,-0.447
5.698,-0.464
5.699,-0.459
5.700,-0.451
5.701,-0.428
5.702,-0.403
5.703,-0.375
5.704,-0.345
5.705,-0.300
5.706,-0.256
5.707,-0.213
5.708,-0.159
5.709,-0.094
5.710,-0.014
5.711,0.072
5.712,0.156
5.713,0.241
5.714,0.331
5.715,0.447
5.716,0.564
5.717,0.678
5.718,0.802
5.719,0.944
5.720,1.093
5.721,1.256
5.722,1.434
5.723,1.619
5.724,1.802
5.725,1.975
5.726,2.145
5.727,2.275
5.728,2.382
5.729,2.422
5.730,2.432
5.731,2.388
5.732,2.332
5.733,2.262
5.734,2.167
5.735,2.012
5.736,1.829
5.737,1.625
5.738,1.419
5.739,1.219
5.740,1.024
5.741,0.850
5.742,0.683
5.743,0.534
5.744,0.392
5.745,0.256
5.746,0.130
5.747,0.031
5.748,-0.039
5.749,-0.081
5.750,-0.122
5.751,-0.150
5.752,-0.172
5.753,-0.181
5.754,-0.184
5.755,-0.184
5.756,-0.181
5.757,-0.178
5.758,-0.169
5.759,-0.156
5.760,-0.139
5.761,-0.109
5.762,-0.084
5.763,-0.056
5.764,-0.036
5.765,-0.019
5.766,-0.005
5.767,0.012
5.768,0.023
5.769,0.028
5.770,0.031
5.771,0.031
5.772,0.031
5.773,0.025
5.774,0.019
5.775,0.012
5.776,0.009
5.777,0.003
5.778,-0.002
5.779,-0.006
5.780,-0.008
5.781,-0.012
5.782,-0.012
5.783,-0.016
5.784,-0.011
5.785,-0.009
5.786,-0.014
5.787,-0.016
5.788,-0.012
5.789,-0.012
5.790,-0.017
5.791,-0.022
5.792,-0.023
5.793,-0.025
5.794,-0.021
5.795,-0.019
5.796,-0.020
5.797,-0.022
5.798,-0.022
5.799,-0.022
5.800,-0.021
5.801,-0.019
5.802,-0.020
5.803,-0.022
5.804,-0.025
5.805,-0.028
5.806,-0.026
5.807,-0.028
5.808,-0.026
5.809,-0.028
5.810,-0.022
5.811,-0.019
5.812,-0.018
5.813,-0.019
5.814,-0.017
5.815,-0.019
5.816,-0.016
5.817,-0.016
5.818,-0.012
5.819,-0.012
5.820,-0.008
5.821,-0.006
5.822,-0.003
5.823,-0.006
5.824,-0.003
5.825,-0.003
5.826,-0.004
5.827,-0.003
5.828,-0.003
5.829,-0.003
5.830,0.003
5.831,0.006
5.832,0.003
5.833,0.003
5.834,0.008
5.835,0.009
5.836,0.009
5.837,0.009
5.838,0.011
5.839,0.009
5.840,0.009
5.841,0.012
5.842,0.008
5.843,0.012
5.844,0.014
5.845,0.019
5.846,0.019
5.847,0.022
5.848,0.027
5.849,0.025
5.850,0.024
5.851,0.025
5.852,0.024
5.853,0.022
5.854,0.025
5.855,0.028
5.856,0.028
5.857,0.028
5.858,0.026
5.859,0.031
5.860,0.028
5.861,0.031
5.862,0.038
5.863,0.044
5.864,0.044
5.865,0.047
5.866,0.051
5.867,0.053
5.868,0.052
5.869,0.053
5.870,0.052
5.871,0.053
5.872,0.054
5.873,0.059
5.874,0.061
5.875,0.059
5.876,0.059
5.877,0.062
5.878,0.059
5.879,0.059
5.880,0.062
5.881,0.066
5.882,0.069
5.883,0.069
5.884,0.073
5.885,0.075
5.886,0.072
5.887,0.072
5.888,0.072
5.889,0.075
5.890,0.079
5.891,0.081
5.892,0.078
5.893,0.078
5.894,0.082
5.895,0.084
5.896,0.087
5.897,0.087
5.898,0.094
5.899,0.097
5.900,0.100
5.901,0.100
5.902,0.100
5.903,0.103
5.904,0.105
5.905,0.103
5.906,0.111
5.907,0.116
5.908,0.112
5.909,0.112
5.910,0.114
5.911,0.116
5.912,0.114
5.913,0.116
5.914,0.117
5.915,0.119
5.916,0.120
5.917,0.125
5.918,0.127
5.919,0.125
5.920,0.125
5.921,0.125
5.922,0.131
5.923,0.131
5.924,0.133
5.925,0.137
5.926,0.139
5.927,0.147
5.928,0.149
5.929,0.147
5.930,0.149
5.931,0.150
5.932,0.153
5.933,0.153
5.934,0.157
5.935,0.159
5.936,0.159
5.937,0.159
5.938,0.167
5.939,0.172
5.940,0.178
5.941,0.178
5.942,0.175
5.943,0.178
5.944,0.184
5.945,0.187
5.946,0.186
5.947,0.187
5.948,0.194
5.949,0.197
5.950,0.201
5.951,0.209
5.952,0.209
5.953,0.213
5.954,0.213
5.955,0.213
5.956,0.213
5.957,0.216
5.958,0.217
5.959,0.219
5.960,0.228
5.961,0.231
5.962,0.236
5.963,0.237
5.964,0.245
5.965,0.247
5.966,0.250
5.967,0.256
5.968,0.258
5.969,0.263
5.970,0.264
5.971,0.266
5.972,0.270
5.973,0.275
5.974,0.278
5.975,0.284
5.976,0.289
5.977,0.291
5.978,0.298
5.979,0.303
5.980,0.304
5.981,0.312
5.982,0.317
5.983,0.325
5.984,0.331
5.985,0.334
5.986,0.334
5.987,0.341
5.988,0.345
5.989,0.359
5.990,0.366
5.991,0.369
5.992,0.369
5.993,0.375
5.994,0.378
5.995,0.381
5.996,0.389
5.997,0.394
5.998,0.399
5.999,0.400
6.000,0.408
6.001,0.416
6.002,0.422
6.003,0.425
6.004,0.425
6.005,0.428
6.006,0.434
6.007,0.438
6.008,0.445
6.009,0.450
6.010,0.455
6.011,0.459
6.012,0.466
6.013,0.472
6.014,0.481
6.015,0.484
6.016,0.488
6.017,0.494
6.018,0.500
6.019,0.503
6.020,0.500
6.021,0.503
6.022,0.512
6.023,0.519
6.024,0.523
6.025,0.528
6.026,0.528
6.027,0.531
6.028,0.531
6.029,0.537
6.030,0.547
6.031,0.550
6.032,0.556
6.033,0.562
6.034,0.564
6.035,0.569
6.036,0.571
6.037,0.572
6.038,0.571
6.039,0.572
6.040,0.574
6.041,0.572
6.042,0.576
6.043,0.578
6.044,0.579
6.045,0.581
6.046,0.584
6.047,0.584
6.048,0.581
6.049,0.578
6.050,0.579
6.051,0.581
6.052,0.581
6.053,0.581
6.054,0.577
6.055,0.572
6.056,0.570
6.057,0.569
6.058,0.566
6.059,0.556
6.060,0.553
6.061,0.550
6.062,0.544
6.063,0.537
6.064,0.531
6.065,0.522
6.066,0.511
6.067,0.500
6.068,0.497
6.069,0.484
6.070,0.475
6.071,0.462
6.072,0.450
6.073,0.438
6.074,0.428
6.075,0.416
6.076,0.405
6.077,0.391
6.078,0.378
6.079,0.369
6.080,0.355
6.081,0.334
6.082,0.319
6.083,0.306
6.084,0.295
6.085,0.284
6.086,0.269
6.087,0.256
6.088,0.248
6.089,0.241
6.090,0.229
6.091,0.219
6.092,0.208
6.093,0.194
6.094,0.183
6.095,0.175
6.096,0.159
6.097,0.147
6.098,0.136
6.099,0.122
6.100,0.114
6.101,0.109
6.102,0.099
6.103,0.091
6.104,0.081
6.105,0.075
6.106,0.067
6.107,0.059
6.108,0.050
6.109,0.041
6.110,0.031
6.111,0.022
6.112,0.012
6.113,0.009
6.114,0.002
6.115,-0.003
6.116,-0.011
6.117,-0.012
6.118,-0.012
6.119,-0.012
6.120,-0.022
6.121,-0.028
6.122,-0.028
6.123,-0.034
6.124,-0.036
6.125,-0.041
6.126,-0.048
6.127,-0.056
6.128,-0.055
6.129,-0.056
6.130,-0.055
6.131,-0.056
6.132,-0.062
6.133,-0.062
6.134,-0.062
6.135,-0.062
6.136,-0.067
6.137,-0.072
6.138,-0.075
6.139,-0.081
6.140,-0.083
6.141,-0.081
6.142,-0.080
6.143,-0.081
6.144,-0.081
6.145,-0.081
6.146,-0.086
6.147,-0.088
6.148,-0.088
6.149,-0.088
6.150,-0.086
6.151,-0.084
6.152,-0.084
6.153,-0.088
6.154,-0.089
6.155,-0.091
6.156,-0.091
6.157,-0.091
6.158,-0.091
6.159,-0.088
6.160,-0.091
6.161,-0.094
6.162,-0.097
6.163,-0.097
6.164,-0.097
6.165,-0.094
6.166,-0.097
6.167,-0.094
6.168,-0.094
6.169,-0.094
6.170,-0.097
6.171,-0.100
6.172,-0.097
6.173,-0.097
6.174,-0.091
6.175,-0.088
6.176,-0.088
6.177,-0.088
6.178,-0.089
6.179,-0.088
6.180,-0.088
6.181,-0.088
6.182,-0.092
6.183,-0.091
6.184,-0.091
6.185,-0.091
6.186,-0.088
6.187,-0.088
6.188,-0.089
6.189,-0.088
6.190,-0.088
6.191,-0.088
6.192,-0.084
6.193,-0.088
6.194,-0.088
6.195,-0.084
6.196,-0.086
6.197,-0.084
6.198,-0.084
6.199,-0.084
6.200,-0.084
6.201,-0.084
6.202,-0.088
6.203,-0.084
6.204,-0.082
6.205,-0.084
6.206,-0.086
6.207,-0.088
6.208,-0.088
6.209,-0.088
6.210,-0.086
6.211,-0.084
6.212,-0.081
6.213,-0.078
6.214,-0.079
6.215,-0.081
6.216,-0.083
6.217,-0.081
6.218,-0.077
6.219,-0.075
6.220,-0.075
6.221,-0.075
6.222,-0.079
6.223,-0.081
6.224,-0.082
6.225,-0.084
6.226,-0.082
6.227,-0.084
6.228,-0.081
6.229,-0.078
6.230,-0.079
6.231,-0.081
6.232,-0.086
6.233,-0.084
6.234,-0.081
6.235,-0.078
6.236,-0.078
6.237,-0.078
6.238,-0.078
6.239,-0.081
6.240,-0.079
6.241,-0.084
6.242,-0.081
6.243,-0.084
6.244,-0.082
6.245,-0.084
6.246,-0.083
6.247,-0.084
6.248,-0.083
6.249,-0.081
6.250,-0.083
6.251,-0.078
6.252,-0.082
6.253,-0.084
6.254,-0.083
6.255,-0.081
6.256,-0.080
6.257,-0.078
6.258,-0.078
6.259,-0.075
6.260,-0.079
6.261,-0.084
6.262,-0.084
6.263,-0.088
6.264,-0.088
6.265,-0.084
6.266,-0.089
6.267,-0.091
6.268,-0.091
6.269,-0.091
6.270,-0.091
6.271,-0.091
6.272,-0.092
6.273,-0.091
6.274,-0.094
6.275,-0.094
6.276,-0.097
6.277,-0.100
6.278,-0.097
6.279,-0.094
6.280,-0.094
6.281,-0.094
6.282,-0.091
6.283,-0.094
6.284,-0.092
6.285,-0.091
6.286,-0.089
6.287,-0.091
6.288,-0.091
6.289,-0.091
6.290,-0.095
6.291,-0.100
6.292,-0.100
6.293,-0.100
6.294,-0.100
6.295,-0.100
6.296,-0.099
6.297,-0.100
6.298,-0.100
6.299,-0.103
6.300,-0.103
6.301,-0.106
6.302,-0.103
6.303,-0.106
6.304,-0.103
6.305,-0.106
6.306,-0.103
6.307,-0.106
6.308,-0.106
6.309,-0.106
6.310,-0.103
6.311,-0.100
6.312,-0.100
6.313,-0.100
6.314,-0.097
6.315,-0.100
6.316,-0.099
6.317,-0.097
6.318,-0.098
6.319,-0.100
6.320,-0.100
6.321,-0.103
6.322,-0.108
6.323,-0.106
6.324,-0.108
6.325,-0.109
6.326,-0.111
6.327,-0.109
6.328,-0.109
6.329,-0.109
6.330,-0.109
6.331,-0.109
6.332,-0.112
6.333,-0.112
6.334,-0.112
6.335,-0.112
6.336,-0.117
6.337,-0.116
6.338,-0.117
6.339,-0.119
6.340,-0.116
6.341,-0.116
6.342,-0.119
6.343,-0.122
6.344,-0.122
6.345,-0.119
6.346,-0.116
6.347,-0.116
6.348,-0.117
6.349,-0.119
6.350,-0.120
6.351,-0.122
6.352,-0.122
6.353,-0.125
6.354,-0.126
6.355,-0.125
6.356,-0.128
6.357,-0.125
6.358,-0.128
6.359,-0.128
6.360,-0.124
6.361,-0.125
6.362,-0.126
6.363,-0.128
6.364,-0.128
6.365,-0.128
6.366,-0.127
6.367,-0.125
6.368,-0.126
6.369,-0.125
6.370,-0.124
6.371,-0.125
6.372,-0.125
6.373,-0.125
6.374,-0.121
6.375,-0.122
6.376,-0.126
6.377,-0.125
6.378,-0.124
6.379,-0.125
6.380,-0.121
6.381,-0.122
6.382,-0.129
6.383,-0.125
6.384,-0.125
6.385,-0.125
6.386,-0.128
6.387,-0.131
6.388,-0.131
6.389,-0.134
6.390,-0.128
6.391,-0.128
6.392,-0.124
6.393,-0.122
6.394,-0.125
6.395,-0.125
6.396,-0.126
6.397,-0.128
6.398,-0.125
6.399,-0.125
6.400,-0.129
6.401,-0.125
6.402,-0.128
6.403,-0.128
6.404,-0.126
6.405,-0.128
6.406,-0.128
6.407,-0.128
6.408,-0.128
6.409,-0.128
6.410,-0.130
6.411,-0.128
6.412,-0.128
6.413,-0.128
6.414,-0.128
6.415,-0.128
6.416,-0.131
6.417,-0.131
6.418,-0.130
6.419,-0.128
6.420,-0.126
6.421,-0.128
6.422,-0.128
6.423,-0.128
6.424,-0.128
6.425,-0.131
6.426,-0.129
6.427,-0.131
6.428,-0.133
6.429,-0.134
6.430,-0.133
6.431,-0.131
6.432,-0.133
6.433,-0.131
6.434,-0.130
6.435,-0.128
6.436,-0.129
6.437,-0.131
6.438,-0.131
6.439,-0.131
6.440,-0.131
6.441,-0.131
6.442,-0.131
6.443,-0.131
6.444,-0.131
6.445,-0.131
6.446,-0.134
6.447,-0.138
6.448,-0.138
6.449,-0.138
6.450,-0.138
6.451,-0.138
6.452,-0.138
6.453,-0.138
6.454,-0.136
6.455,-0.134
6.456,-0.133
6.457,-0.131
6.458,-0.133
6.459,-0.134
6.460,-0.136
6.461,-0.138
6.462,-0.138
6.463,-0.138
6.464,-0.138
6.465,-0.138
6.466,-0.138
6.467,-0.138
6.468,-0.138
6.469,-0.138
6.470,-0.138
6.471,-0.138
6.472,-0.138
6.473,-0.138
6.474,-0.139
6.475,-0.141
6.476,-0.141
6.477,-0.141
6.478,-0.141
6.479,-0.141
6.480,-0.141
6.481,-0.141
6.482,-0.141
6.483,-0.141
6.484,-0.141
6.485,-0.141
6.486,-0.141
6.487,-0.141
6.488,-0.142
6.489,-0.144
6.490,-0.145
6.491,-0.147
6.492,-0.150
6.493,-0.153
6.494,-0.150
6.495,-0.147
6.496,-0.147
6.497,-0.147
6.498,-0.147
6.499,-0.147
6.500,-0.143
6.501,-0.138
6.502,-0.139
6.503,-0.141
6.504,-0.142
6.505,-0.144
6.506,-0.144
6.507,-0.144
6.508,-0.144
6.509,-0.144
6.510,-0.144
6.511,-0.144
6.512,-0.144
6.513,-0.144
6.514,-0.144
6.515,-0.144
6.516,-0.141
6.517,-0.138
6.518,-0.139
6.519,-0.141
6.520,-0.141
6.521,-0.141
6.522,-0.142
6.523,-0.144
6.524,-0.143
6.525,-0.141
6.526,-0.142
6.527,-0.144
6.528,-0.145
6.529,-0.147
6.530,-0.147
6.531,-0.147
6.532,-0.147
6.533,-0.147
6.534,-0.149
6.535,-0.150
6.536,-0.147
6.537,-0.150
6.538,-0.150
6.539,-0.150
6.540,-0.149
6.541,-0.150
6.542,-0.150
6.543,-0.147
6.544,-0.147
6.545,-0.147
6.546,-0.147
6.547,-0.150
6.548,-0.148
6.549,-0.150
6.550,-0.149
6.551,-0.147
6.552,-0.148
6.553,-0.147
6.554,-0.149
6.555,-0.147
6.556,-0.147
6.557,-0.147
6.558,-0.144
6.559,-0.147
6.560,-0.147
6.561,-0.147
6.562,-0.147
6.563,-0.147
6.564,-0.147
6.565,-0.150
6.566,-0.148
6.567,-0.150
6.568,-0.147
6.569,-0.147
6.570,-0.147
6.571,-0.150
6.572,-0.153
6.573,-0.150
6.574,-0.150
6.575,-0.150
6.576,-0.147
6.577,-0.147
6.578,-0.150
6.579,-0.150
6.580,-0.153
6.581,-0.153
6.582,-0.149
6.583,-0.147
6.584,-0.147
6.585,-0.147
6.586,-0.147
6.587,-0.147
6.588,-0.147
6.589,-0.147
6.590,-0.146
6.591,-0.144
6.592,-0.147
6.593,-0.147
6.594,-0.148
6.595,-0.150
6.596,-0.148
6.597,-0.150
6.598,-0.150
6.599,-0.150
6.600,-0.150
6.601,-0.150
6.602,-0.147
6.603,-0.150
6.604,-0.149
6.605,-0.147
6.606,-0.147
6.607,-0.147
6.608,-0.147
6.609,-0.147
6.610,-0.147
6.611,-0.147
6.612,-0.148
6.613,-0.150
6.614,-0.150
6.615,-0.150
6.616,-0.150
6.617,-0.150
6.618,-0.149
6.619,-0.150
6.620,-0.154
6.621,-0.156
6.622,-0.152
6.623,-0.150
6.624,-0.150
6.625,-0.150
6.626,-0.151
6.627,-0.153
6.628,-0.147
6.629,-0.147
6.630,-0.147
6.631,-0.147
6.632,-0.147
6.633,-0.147
6.634,-0.151
6.635,-0.150
6.636,-0.151
6.637,-0.153
6.638,-0.149
6.639,-0.150
6.640,-0.148
6.641,-0.153
6.642,-0.154
6.643,-0.156
6.644,-0.156
6.645,-0.156
6.646,-0.155
6.647,-0.150
6.648,-0.153
6.649,-0.150
6.650,-0.147
6.651,-0.147
6.652,-0.150
6.653,-0.153
6.654,-0.156
6.655,-0.159
6.656,-0.158
6.657,-0.156
6.658,-0.158
6.659,-0.159
6.660,-0.156
6.661,-0.156
6.662,-0.153
6.663,-0.153
6.664,-0.153
6.665,-0.153
6.666,-0.152
6.667,-0.150
6.668,-0.150
6.669,-0.150
6.670,-0.149
6.671,-0.150
6.672,-0.151
6.673,-0.153
6.674,-0.154
6.675,-0.159
6.676,-0.158
6.677,-0.163
6.678,-0.161
6.679,-0.163
6.680,-0.161
6.681,-0.163
6.682,-0.156
6.683,-0.156
6.684,-0.153
6.685,-0.153
6.686,-0.154
6.687,-0.156
6.688,-0.155
6.689,-0.153
6.690,-0.150
6.691,-0.144
6.692,-0.144
6.693,-0.144
6.694,-0.144
6.695,-0.144
6.696,-0.145
6.697,-0.147
6.698,-0.151
6.699,-0.153
6.700,-0.147
6.701,-0.150
6.702,-0.149
6.703,-0.150
6.704,-0.148
6.705,-0.150
6.706,-0.150
6.707,-0.150
6.708,-0.149
6.709,-0.147
6.710,-0.147
6.711,-0.147
6.712,-0.147
6.713,-0.147
6.714,-0.147
6.715,-0.147
6.716,-0.144
6.717,-0.147
6.718,-0.146
6.719,-0.147
6.720,-0.145
6.721,-0.147
6.722,-0.148
6.723,-0.147
6.724,-0.146
6.725,-0.147
6.726,-0.148
6.727,-0.147
6.728,-0.143
6.729,-0.141
6.730,-0.142
6.731,-0.141
6.732,-0.144
6.733,-0.144
6.734,-0.145
6.735,-0.144
6.736,-0.145
6.737,-0.147
6.738,-0.147
6.739,-0.147
6.740,-0.146
6.741,-0.147
6.742,-0.148
6.743,-0.147
6.744,-0.144
6.745,-0.141
6.746,-0.141
6.747,-0.141
6.748,-0.139
6.749,-0.141
6.750,-0.134
6.751,-0.131
6.752,-0.138
6.753,-0.141
6.754,-0.138
6.755,-0.141
6.756,-0.141
6.757,-0.141
6.758,-0.139
6.759,-0.141
6.760,-0.144
6.761,-0.141
6.762,-0.142
6.763,-0.144
6.764,-0.143
6.765,-0.141
6.766,-0.139
6.767,-0.141
6.768,-0.141
6.769,-0.141
6.770,-0.142
6.771,-0.141
6.772,-0.141
6.773,-0.144
6.774,-0.144
6.775,-0.144
6.776,-0.148
6.777,-0.153
6.778,-0.147
6.779,-0.147
6.780,-0.147
6.781,-0.147
6.782,-0.147
6.783,-0.147
6.784,-0.146
6.785,-0.144
6.786,-0.141
6.787,-0.141
6.788,-0.142
6.789,-0.144
6.790,-0.145
6.791,-0.147
6.792,-0.151
6.793,-0.150
6.794,-0.150
6.795,-0.150
6.796,-0.149
6.797,-0.150
6.798,-0.150
6.799,-0.150
6.800,-0.147
6.801,-0.147
6.802,-0.147
6.803,-0.147
6.804,-0.147
6.805,-0.147
6.806,-0.147
6.807,-0.147
6.808,-0.147
6.809,-0.147
6.810,-0.147
6.811,-0.147
6.812,-0.147
6.813,-0.147
6.814,-0.145
6.815,-0.147
6.816,-0.147
6.817,-0.144
6.818,-0.144
6.819,-0.144
6.820,-0.141
6.821,-0.141
6.822,-0.142
6.823,-0.144
6.824,-0.142
6.825,-0.144
6.826,-0.142
6.827,-0.144
6.828,-0.143
6.829,-0.141
6.830,-0.141
6.831,-0.141
6.832,-0.138
6.833,-0.134
6.834,-0.133
6.835,-0.131
6.836,-0.128
6.837,-0.125
6.838,-0.127
6.839,-0.122
6.840,-0.116
6.841,-0.112
6.842,-0.109
6.843,-0.109
6.844,-0.105
6.845,-0.097
6.846,-0.092
6.847,-0.091
6.848,-0.086
6.849,-0.078
6.850,-0.068
6.851,-0.062
6.852,-0.061
6.853,-0.069
6.854,-0.075
6.855,-0.081
6.856,-0.091
6.857,-0.094
6.858,-0.097
6.859,-0.100
6.860,-0.099
6.861,-0.097
6.862,-0.092
6.863,-0.084
6.864,-0.078
6.865,-0.075
6.866,-0.072
6.867,-0.069
6.868,-0.062
6.869,-0.053
6.870,-0.045
6.871,-0.041
6.872,-0.028
6.873,-0.019
6.874,-0.019
6.875,-0.019
6.876,-0.025
6.877,-0.034
6.878,-0.041
6.879,-0.047
6.880,-0.055
6.881,-0.062
6.882,-0.075
6.883,-0.081
6.884,-0.086
6.885,-0.088
6.886,-0.095
6.887,-0.100
6.888,-0.103
6.889,-0.103
6.890,-0.109
6.891,-0.106
6.892,-0.106
6.893,-0.106
6.894,-0.108
6.895,-0.109
6.896,-0.108
6.897,-0.106
6.898,-0.108
6.899,-0.106
6.900,-0.109
6.901,-0.109
6.902,-0.112
6.903,-0.122
6.904,-0.129
6.905,-0.138
6.906,-0.141
6.907,-0.141
6.908,-0.147
6.909,-0.147
6.910,-0.146
6.911,-0.147
6.912,-0.146
6.913,-0.147
6.914,-0.151
6.915,-0.153
6.916,-0.150
6.917,-0.147
6.918,-0.146
6.919,-0.147
6.920,-0.151
6.921,-0.159
6.922,-0.158
6.923,-0.156
6.924,-0.158
6.925,-0.159
6.926,-0.161
6.927,-0.163
6.928,-0.159
6.929,-0.156
6.930,-0.156
6.931,-0.156
6.932,-0.159
6.933,-0.159
6.934,-0.156
6.935,-0.159
6.936,-0.158
6.937,-0.159
6.938,-0.161
6.939,-0.159
6.940,-0.159
6.941,-0.163
6.942,-0.158
6.943,-0.159
6.944,-0.159
6.945,-0.159
6.946,-0.153
6.947,-0.156
6.948,-0.161
6.949,-0.159
6.950,-0.156
6.951,-0.153
6.952,-0.153
6.953,-0.150
6.954,-0.152
6.955,-0.153
6.956,-0.153
6.957,-0.153
6.958,-0.153
6.959,-0.153
6.960,-0.154
6.961,-0.156
6.962,-0.161
6.963,-0.163
6.964,-0.161
6.965,-0.159
6.966,-0.156
6.967,-0.156
6.968,-0.152
6.969,-0.153
6.970,-0.153
6.971,-0.153
6.972,-0.150
6.973,-0.147
6.974,-0.153
6.975,-0.153
6.976,-0.151
6.977,-0.153
6.978,-0.156
6.979,-0.153
6.980,-0.154
6.981,-0.156
6.982,-0.158
6.983,-0.163
6.984,-0.163
6.985,-0.169
6.986,-0.181
6.987,-0.200
6.988,-0.222
6.989,-0.247
6.990,-0.275
6.991,-0.303
6.992,-0.333
6.993,-0.363
6.994,-0.386
6.995,-0.406
6.996,-0.428
6.997,-0.453
6.998,-0.473
6.999,-0.472
7.000,-0.461
7.001,-0.434
7.002,-0.405
7.003,-0.372
7.004,-0.339
7.005,-0.291
7.006,-0.247
7.007,-0.203
7.008,-0.146
7.009,-0.075
7.010,0.003
7.011,0.087
7.012,0.173
7.013,0.259
7.014,0.351
7.015,0.469
7.016,0.583
7.017,0.694
7.018,0.814
7.019,0.953
7.020,1.097
7.021,1.256
7.022,1.431
7.023,1.613
7.024,1.804
7.025,1.987
7.026,2.157
7.027,2.288
7.028,2.392
7.029,2.428
7.030,2.428
7.031,2.372
7.032,2.312
7.033,2.237
7.034,2.139
7.035,1.981
7.036,1.796
7.037,1.587
7.038,1.372
7.039,1.163
7.040,0.971
7.041,0.800
7.042,0.642
7.043,0.503
7.044,0.364
7.045,0.231
7.046,0.108
7.047,0.012
7.048,-0.059
7.049,-0.103
7.050,-0.141
7.051,-0.166
7.052,-0.187
7.053,-0.197
7.054,-0.200
7.055,-0.200
7.056,-0.193
7.057,-0.184
7.058,-0.168
7.059,-0.147
7.060,-0.134
7.061,-0.109
7.062,-0.088
7.063,-0.062
7.064,-0.042
7.065,-0.025
7.066,-0.017
7.067,-0.006
7.068,0.004
7.069,0.009
7.070,0.014
7.071,0.016
7.072,0.020
7.073,0.019
7.074,0.019
7.075,0.019
7.076,0.017
7.077,0.012
7.078,0.006
7.079,0.000
7.080,-0.004
7.081,-0.012
7.082,-0.017
7.083,-0.025
7.084,-0.024
7.085,-0.025
7.086,-0.029
7.087,-0.031
7.088,-0.028
7.089,-0.028
7.090,-0.028
7.091,-0.028
7.092,-0.029
7.093,-0.031
7.094,-0.028
7.095,-0.028
7.096,-0.028
7.097,-0.028
7.098,-0.031
7.099,-0.034
7.100,-0.034
7.101,-0.034
7.102,-0.033
7.103,-0.031
7.104,-0.031
7.105,-0.031
7.106,-0.025
7.107,-0.022
7.108,-0.020
7.109,-0.022
7.110,-0.019
7.111,-0.019
7.112,-0.018
7.113,-0.019
7.114,-0.017
7.115,-0.019
7.116,-0.016
7.117,-0.016
7.118,-0.012
7.119,-0.012
7.120,-0.006
7.121,-0.003
7.122,0.000
7.123,-0.003
7.124,-0.001
7.125,-0.003
7.126,-0.004
7.127,-0.003
7.128,-0.002
7.129,0.000
7.130,0.002
7.131,0.000
7.132,-0.001
7.133,0.000
7.134,0.004
7.135,0.006
7.136,0.006
7.137,0.006
7.138,0.009
7.139,0.009
7.140,0.012
7.141,0.019
7.142,0.016
7.143,0.022
7.144,0.022
7.145,0.025
7.146,0.021
7.147,0.019
7.148,0.022
7.149,0.019
7.150,0.022
7.151,0.028
7.152,0.028
7.153,0.028
7.154,0.028
7.155,0.028
7.156,0.031
7.157,0.034
7.158,0.030
7.159,0.031
7.160,0.028
7.161,0.031
7.162,0.032
7.163,0.034
7.164,0.034
7.165,0.038
7.166,0.041
7.167,0.041
7.168,0.042
7.169,0.047
7.170,0.047
7.171,0.050
7.172,0.050
7.173,0.053
7.174,0.056
7.175,0.056
7.176,0.053
7.177,0.053
7.178,0.056
7.179,0.062
7.180,0.062
7.181,0.062
7.182,0.069
7.183,0.072
7.184,0.075
7.185,0.075
7.186,0.072
7.187,0.072
7.188,0.072
7.189,0.075
7.190,0.081
7.191,0.084
7.192,0.083
7.193,0.084
7.194,0.086
7.195,0.084
7.196,0.086
7.197,0.084
7.198,0.089
7.199,0.091
7.200,0.095
7.201,0.097
7.202,0.096
7.203,0.097
7.204,0.099
7.205,0.097
7.206,0.103
7.207,0.106
7.208,0.105
7.209,0.106
7.210,0.106
7.211,0.106
7.212,0.103
7.213,0.103
7.214,0.109
7.215,0.116
7.216,0.116
7.217,0.119
7.218,0.122
7.219,0.122
7.220,0.121
7.221,0.119
7.222,0.126
7.223,0.128
7.224,0.128
7.225,0.131
7.226,0.128
7.227,0.131
7.228,0.134
7.229,0.134
7.230,0.137
7.231,0.141
7.232,0.144
7.233,0.144
7.234,0.151
7.235,0.156
7.236,0.156
7.237,0.156
7.238,0.159
7.239,0.159
7.240,0.164
7.241,0.163
7.242,0.161
7.243,0.166
7.244,0.170
7.245,0.172
7.246,0.172
7.247,0.175
7.248,0.181
7.249,0.184
7.250,0.186
7.251,0.191
7.252,0.191
7.253,0.194
7.254,0.196
7.255,0.197
7.256,0.203
7.257,0.213
7.258,0.213
7.259,0.213
7.260,0.220
7.261,0.222
7.262,0.228
7.263,0.231
7.264,0.241
7.265,0.244
7.266,0.243
7.267,0.244
7.268,0.247
7.269,0.253
7.270,0.256
7.271,0.259
7.272,0.267
7.273,0.275
7.274,0.277
7.275,0.281
7.276,0.284
7.277,0.284
7.278,0.289
7.279,0.291
7.280,0.289
7.281,0.294
7.282,0.298
7.283,0.306
7.284,0.314
7.285,0.319
7.286,0.321
7.287,0.328
7.288,0.329
7.289,0.341
7.290,0.347
7.291,0.350
7.292,0.351
7.293,0.359
7.294,0.366
7.295,0.372
7.296,0.378
7.297,0.381
7.298,0.386
7.299,0.388
7.300,0.392
7.301,0.397
7.302,0.404
7.303,0.409
7.304,0.411
7.305,0.416
7.306,0.422
7.307,0.425
7.308,0.431
7.309,0.434
7.310,0.441
7.311,0.447
7.312,0.451
7.313,0.456
7.314,0.461
7.315,0.459
7.316,0.466
7.317,0.475
7.318,0.481
7.319,0.484
7.320,0.483
7.321,0.488
7.322,0.497
7.323,0.503
7.324,0.508
7.325,0.512
7.326,0.511
7.327,0.512
7.328,0.512
7.329,0.519
7.330,0.527
7.331,0.528
7.332,0.530
7.333,0.531
7.334,0.537
7.335,0.547
7.336,0.549
7.337,0.550
7.338,0.551
7.339,0.556
7.340,0.561
7.341,0.562
7.342,0.562
7.343,0.559
7.344,0.561
7.345,0.562
7.346,0.564
7.347,0.562
7.348,0.564
7.349,0.566
7.350,0.566
7.351,0.566
7.352,0.561
7.353,0.556
7.354,0.556
7.355,0.556
7.356,0.554
7.357,0.553
7.358,0.553
7.359,0.547
7.360,0.537
7.361,0.528
7.362,0.522
7.363,0.516
7.364,0.511
7.365,0.503
7.366,0.494
7.367,0.484
7.368,0.482
7.369,0.472
7.370,0.462
7.371,0.450
7.372,0.439
7.373,0.428
7.374,0.420
7.375,0.409
7.376,0.400
7.377,0.388
7.378,0.372
7.379,0.359
7.380,0.351
7.381,0.337
7.382,0.321
7.383,0.306
7.384,0.295
7.385,0.284
7.386,0.267
7.387,0.253
7.388,0.241
7.389,0.228
7.390,0.219
7.391,0.209
7.392,0.201
7.393,0.191
7.394,0.175
7.395,0.163
7.396,0.151
7.397,0.144
7.398,0.134
7.399,0.122
7.400,0.114
7.401,0.109
7.402,0.096
7.403,0.084
7.404,0.075
7.405,0.069
7.406,0.059
7.407,0.050
7.408,0.044
7.409,0.038
7.410,0.031
7.411,0.025
7.412,0.014
7.413,0.009
7.414,0.004
7.415,0.003
7.416,-0.008
7.417,-0.012
7.418,-0.019
7.419,-0.025
7.420,-0.032
7.421,-0.038
7.422,-0.039
7.423,-0.047
7.424,-0.047
7.425,-0.050
7.426,-0.054
7.427,-0.059
7.428,-0.061
7.429,-0.066
7.430,-0.067
7.431,-0.072
7.432,-0.076
7.433,-0.075
7.434,-0.075
7.435,-0.075
7.436,-0.078
7.437,-0.081
7.438,-0.081
7.439,-0.084
7.440,-0.086
7.441,-0.084
7.442,-0.084
7.443,-0.088
7.444,-0.091
7.445,-0.094
7.446,-0.098
7.447,-0.100
7.448,-0.100
7.449,-0.100
7.450,-0.097
7.451,-0.094
7.452,-0.094
7.453,-0.097
7.454,-0.098
7.455,-0.100
7.456,-0.101
7.457,-0.103
7.458,-0.103
7.459,-0.100
7.460,-0.102
7.461,-0.103
7.462,-0.104
7.463,-0.103
7.464,-0.103
7.465,-0.100
7.466,-0.104
7.467,-0.103
7.468,-0.103
7.469,-0.103
7.470,-0.103
7.471,-0.103
7.472,-0.100
7.473,-0.100
7.474,-0.098
7.475,-0.100
7.476,-0.100
7.477,-0.100
7.478,-0.101
7.479,-0.100
7.480,-0.097
7.481,-0.094
7.482,-0.096
7.483,-0.091
7.484,-0.089
7.485,-0.088
7.486,-0.084
7.487,-0.084
7.488,-0.088
7.489,-0.088
7.490,-0.089
7.491,-0.091
7.492,-0.086
7.493,-0.088
7.494,-0.091
7.495,-0.091
7.496,-0.092
7.497,-0.091
7.498,-0.088
7.499,-0.084
7.500,-0.084
7.501,-0.084
7.502,-0.088
7.503,-0.084
7.504,-0.081
7.505,-0.081
7.506,-0.080
7.507,-0.078
7.508,-0.079
7.509,-0.081
7.510,-0.082
7.511,-0.084
7.512,-0.083
7.513,-0.081
7.514,-0.081
7.515,-0.081
7.516,-0.084
7.517,-0.084
7.518,-0.082
7.519,-0.084
7.520,-0.084
7.521,-0.084
7.522,-0.088
7.523,-0.088
7.524,-0.088
7.525,-0.088
7.526,-0.086
7.527,-0.088
7.528,-0.084
7.529,-0.081
7.530,-0.081
7.531,-0.081
7.532,-0.086
7.533,-0.084
7.534,-0.084
7.535,-0.084
7.536,-0.084
7.537,-0.084
7.538,-0.083
7.539,-0.084
7.540,-0.081
7.541,-0.084
7.542,-0.084
7.543,-0.091
7.544,-0.089
7.545,-0.091
7.546,-0.089
7.547,-0.091
7.548,-0.089
7.549,-0.088
7.550,-0.091
7.551,-0.088
7.552,-0.091
7.553,-0.091
7.554,-0.091
7.555,-0.091
7.556,-0.091
7.557,-0.091
7.558,-0.091
7.559,-0.088
7.560,-0.091
7.561,-0.094
7.562,-0.092
7.563,-0.094
7.564,-0.095
7.565,-0.094
7.566,-0.098
7.567,-0.100
7.568,-0.099
7.569,-0.097
7.570,-0.097
7.571,-0.097
7.572,-0.099
7.573,-0.097
7.574,-0.100
7.575,-0.100
7.576,-0.101
7.577,-0.103
7.578,-0.103
7.579,-0.103
7.580,-0.104
7.581,-0.106
7.582,-0.102
7.583,-0.103
7.584,-0.103
7.585,-0.103
7.586,-0.103
7.587,-0.106
7.588,-0.106
7.589,-0.106
7.590,-0.106
7.591,-0.106
7.592,-0.106
7.593,-0.106
7.594,-0.106
7.595,-0.106
7.596,-0.106
7.597,-0.109
7.598,-0.109
7.599,-0.112
7.600,-0.116
7.601,-0.122
7.602,-0.118
7.603,-0.119
7.604,-0.114
7.605,-0.116
7.606,-0.109
7.607,-0.109
7.608,-0.109
7.609,-0.109
7.610,-0.111
7.611,-0.112
7.612,-0.114
7.613,-0.116
7.614,-0.112
7.615,-0.116
7.616,-0.117
7.617,-0.119
7.618,-0.119
7.619,-0.119
7.620,-0.119
7.621,-0.122
7.622,-0.125
7.623,-0.122
7.624,-0.121
7.625,-0.119
7.626,-0.122
7.627,-0.122
7.628,-0.122
7.629,-0.122
7.630,-0.122
7.631,-0.122
7.632,-0.125
7.633,-0.125
7.634,-0.124
7.635,-0.122
7.636,-0.126
7.637,-0.125
7.638,-0.125
7.639,-0.125
7.640,-0.124
7.641,-0.125
7.642,-0.125
7.643,-0.125
7.644,-0.128
7.645,-0.128
7.646,-0.127
7.647,-0.128
7.648,-0.129
7.649,-0.131
7.650,-0.130
7.651,-0.128
7.652,-0.127
7.653,-0.128
7.654,-0.129
7.655,-0.128
7.656,-0.130
7.657,-0.125
7.658,-0.128
7.659,-0.128
7.660,-0.124
7.661,-0.125
7.662,-0.125
7.663,-0.125
7.664,-0.125
7.665,-0.125
7.666,-0.126
7.667,-0.128
7.668,-0.128
7.669,-0.125
7.670,-0.125
7.671,-0.128
7.672,-0.128
7.673,-0.128
7.674,-0.122
7.675,-0.122
7.676,-0.126
7.677,-0.125
7.678,-0.125
7.679,-0.128
7.680,-0.124
7.681,-0.125
7.682,-0.136
7.683,-0.134
7.684,-0.134
7.685,-0.134
7.686,-0.134
7.687,-0.134
7.688,-0.133
7.689,-0.134
7.690,-0.130
7.691,-0.131
7.692,-0.129
7.693,-0.131
7.694,-0.134
7.695,-0.134
7.696,-0.134
7.697,-0.134
7.698,-0.136
7.699,-0.141
7.700,-0.145
7.701,-0.141
7.702,-0.141
7.703,-0.138
7.704,-0.133
7.705,-0.131
7.706,-0.133
7.707,-0.134
7.708,-0.136
7.709,-0.138
7.710,-0.142
7.711,-0.144
7.712,-0.144
7.713,-0.144
7.714,-0.144
7.715,-0.144
7.716,-0.146
7.717,-0.144
7.718,-0.145
7.719,-0.147
7.720,-0.145
7.721,-0.147
7.722,-0.144
7.723,-0.141
7.724,-0.141
7.725,-0.144
7.726,-0.142
7.727,-0.144
7.728,-0.143
7.729,-0.141
7.730,-0.141
7.731,-0.141
7.732,-0.144
7.733,-0.144
7.734,-0.141
7.735,-0.138
7.736,-0.139
7.737,-0.141
7.738,-0.144
7.739,-0.147
7.740,-0.146
7.741,-0.144
7.742,-0.144
7.743,-0.144
7.744,-0.143
7.745,-0.141
7.746,-0.141
7.747,-0.141
7.748,-0.141
7.749,-0.141
7.750,-0.139
7.751,-0.138
7.752,-0.138
7.753,-0.138
7.754,-0.141
7.755,-0.144
7.756,-0.144
7.757,-0.144
7.758,-0.144
7.759,-0.144
7.760,-0.145
7.761,-0.147
7.762,-0.144
7.763,-0.141
7.764,-0.141
7.765,-0.141
7.766,-0.141
7.767,-0.141
7.768,-0.142
7.769,-0.144
7.770,-0.144
7.771,-0.144
7.772,-0.144
7.773,-0.144
7.774,-0.144
7.775,-0.144
7.776,-0.145
7.777,-0.147
7.778,-0.144
7.779,-0.141
7.780,-0.141
7.781,-0.141
7.782,-0.141
7.783,-0.141
7.784,-0.138
7.785,-0.134
7.786,-0.138
7.787,-0.141
7.788,-0.141
7.789,-0.141
7.790,-0.142
7.791,-0.144
7.792,-0.144
7.793,-0.144
7.794,-0.144
7.795,-0.144
7.796,-0.144
7.797,-0.144
7.798,-0.143
7.799,-0.141
7.800,-0.141
7.801,-0.141
7.802,-0.141
7.803,-0.141
7.804,-0.142
7.805,-0.144
7.806,-0.144
7.807,-0.144
7.808,-0.145
7.809,-0.147
7.810,-0.147
7.811,-0.147
7.812,-0.146
7.813,-0.144
7.814,-0.144
7.815,-0.144
7.816,-0.144
7.817,-0.144
7.818,-0.145
7.819,-0.147
7.820,-0.147
7.821,-0.147
7.822,-0.144
7.823,-0.141
7.824,-0.141
7.825,-0.141
7.826,-0.144
7.827,-0.147
7.828,-0.147
7.829,-0.147
7.830,-0.148
7.831,-0.150
7.832,-0.150
7.833,-0.150
7.834,-0.150
7.835,-0.150
7.836,-0.149
7.837,-0.147
7.838,-0.147
7.839,-0.147
7.840,-0.147
7.841,-0.147
7.842,-0.147
7.843,-0.147
7.844,-0.148
7.845,-0.150
7.846,-0.150
7.847,-0.150
7.848,-0.150
7.849,-0.150
7.850,-0.151
7.851,-0.150
7.852,-0.146
7.853,-0.147
7.854,-0.147
7.855,-0.147
7.856,-0.144
7.857,-0.144
7.858,-0.145
7.859,-0.144
7.860,-0.144
7.861,-0.144
7.862,-0.145
7.863,-0.150
7.864,-0.147
7.865,-0.147
7.866,-0.147
7.867,-0.147
7.868,-0.148
7.869,-0.147
7.870,-0.149
7.871,-0.147
7.872,-0.147
7.873,-0.147
7.874,-0.144
7.875,-0.147
7.876,-0.150
7.877,-0.153
7.878,-0.150
7.879,-0.147
7.880,-0.146
7.881,-0.147
7.882,-0.145
7.883,-0.147
7.884,-0.147
7.885,-0.150
7.886,-0.147
7.887,-0.147
7.888,-0.151
7.889,-0.150
7.890,-0.149
7.891,-0.147
7.892,-0.147
7.893,-0.150
7.894,-0.152
7.895,-0.150
7.896,-0.153
7.897,-0.153
7.898,-0.151
7.899,-0.153
7.900,-0.152
7.901,-0.150
7.902,-0.149
7.903,-0.147
7.904,-0.147
7.905,-0.147
7.906,-0.147
7.907,-0.147
7.908,-0.153
7.909,-0.156
7.910,-0.155
7.911,-0.153
7.912,-0.149
7.913,-0.147
7.914,-0.147
7.915,-0.147
7.916,-0.148
7.917,-0.150
7.918,-0.146
7.919,-0.147
7.920,-0.147
7.921,-0.147
7.922,-0.147
7.923,-0.147
7.924,-0.148
7.925,-0.150
7.926,-0.150
7.927,-0.150
7.928,-0.151
7.929,-0.153
7.930,-0.152
7.931,-0.150
7.932,-0.149
7.933,-0.147
7.934,-0.146
7.935,-0.147
7.936,-0.148
7.937,-0.147
7.938,-0.151
7.939,-0.159
7.940,-0.159
7.941,-0.159
7.942,-0.156
7.943,-0.153
7.944,-0.150
7.945,-0.153
7.946,-0.152
7.947,-0.150
7.948,-0.149
7.949,-0.147
7.950,-0.150
7.951,-0.147
7.952,-0.147
7.953,-0.147
7.954,-0.147
7.955,-0.153
7.956,-0.149
7.957,-0.150
7.958,-0.150
7.959,-0.150
7.960,-0.150
7.961,-0.150
7.962,-0.149
7.963,-0.144
7.964,-0.148
7.965,-0.147
7.966,-0.144
7.967,-0.144
7.968,-0.143
7.969,-0.141
7.970,-0.144
7.971,-0.147
7.972,-0.147
7.973,-0.147
7.974,-0.147
7.975,-0.147
7.976,-0.146
7.977,-0.147
7.978,-0.145
7.979,-0.147
7.980,-0.147
7.981,-0.147
7.982,-0.147
7.983,-0.147
7.984,-0.146
7.985,-0.144
7.986,-0.143
7.987,-0.144
7.988,-0.145
7.989,-0.147
7.990,-0.146
7.991,-0.147
7.992,-0.145
7.993,-0.150
7.994,-0.147
7.995,-0.147
7.996,-0.144
7.997,-0.144
7.998,-0.141
7.999,-0.144
8.000,-0.141
8.001,-0.141
8.002,-0.141
8.003,-0.141
8.004,-0.142
8.005,-0.144
8.006,-0.145
8.007,-0.144
8.008,-0.145
8.009,-0.147
8.010,-0.147
8.011,-0.147
8.012,-0.147
8.013,-0.147
8.014,-0.150
8.015,-0.150
8.016,-0.144
8.017,-0.147
8.018,-0.146
8.019,-0.147
8.020,-0.145
8.021,-0.147
8.022,-0.147
8.023,-0.147
8.024,-0.147
8.025,-0.147
8.026,-0.147
8.027,-0.147
8.028,-0.148
8.029,-0.150
8.030,-0.150
8.031,-0.150
8.032,-0.146
8.033,-0.147
8.034,-0.144
8.035,-0.144
8.036,-0.144
8.037,-0.147
8.038,-0.150
8.039,-0.150
8.040,-0.149
8.041,-0.150
8.042,-0.154
8.043,-0.156
8.044,-0.153
8.045,-0.153
8.046,-0.153
8.047,-0.150
8.048,-0.153
8.049,-0.153
8.050,-0.152
8.051,-0.147
8.052,-0.147
8.053,-0.147
8.054,-0.147
8.055,-0.147
8.056,-0.147
8.057,-0.150
8.058,-0.151
8.059,-0.150
8.060,-0.150
8.061,-0.150
8.062,-0.151
8.063,-0.153
8.064,-0.153
8.065,-0.156
8.066,-0.153
8.067,-0.153
8.068,-0.155
8.069,-0.153
8.070,-0.149
8.071,-0.150
8.072,-0.151
8.073,-0.153
8.074,-0.150
8.075,-0.150
8.076,-0.154
8.077,-0.153
8.078,-0.150
8.079,-0.147
8.080,-0.147
8.081,-0.147
8.082,-0.147
8.083,-0.150
8.084,-0.150
8.085,-0.150
8.086,-0.151
8.087,-0.150
8.088,-0.149
8.089,-0.150
8.090,-0.150
8.091,-0.150
8.092,-0.150
8.093,-0.150
8.094,-0.147
8.095,-0.150
8.096,-0.150
8.097,-0.150
8.098,-0.151
8.099,-0.153
8.100,-0.153
8.101,-0.153
8.102,-0.149
8.103,-0.147
8.104,-0.147
8.105,-0.147
8.106,-0.147
8.107,-0.147
8.108,-0.154
8.109,-0.156
8.110,-0.155
8.111,-0.153
8.112,-0.152
8.113,-0.153
8.114,-0.154
8.115,-0.156
8.116,-0.154
8.117,-0.156
8.118,-0.153
8.119,-0.150
8.120,-0.151
8.121,-0.153
8.122,-0.153
8.123,-0.153
8.124,-0.152
8.125,-0.150
8.126,-0.150
8.127,-0.150
8.128,-0.151
8.129,-0.153
8.130,-0.150
8.131,-0.150
8.132,-0.151
8.133,-0.150
8.134,-0.150
8.135,-0.150
8.136,-0.148
8.137,-0.150
8.138,-0.150
8.139,-0.150
8.140,-0.146
8.141,-0.144
8.142,-0.142
8.143,-0.144
8.144,-0.143
8.145,-0.141
8.146,-0.142
8.147,-0.144
8.148,-0.141
8.149,-0.138
8.150,-0.133
8.151,-0.128
8.152,-0.124
8.153,-0.119
8.154,-0.123
8.155,-0.122
8.156,-0.116
8.157,-0.112
8.158,-0.106
8.159,-0.103
8.160,-0.100
8.161,-0.094
8.162,-0.089
8.163,-0.088
8.164,-0.084
8.165,-0.078
8.166,-0.072
8.167,-0.072
8.168,-0.069
8.169,-0.075
8.170,-0.082
8.171,-0.091
8.172,-0.099
8.173,-0.100
8.174,-0.103
8.175,-0.106
8.176,-0.106
8.177,-0.106
8.178,-0.102
8.179,-0.094
8.180,-0.088
8.181,-0.084
8.182,-0.078
8.183,-0.072
8.184,-0.066
8.185,-0.056
8.186,-0.047
8.187,-0.041
8.188,-0.034
8.189,-0.031
8.190,-0.031
8.191,-0.031
8.192,-0.036
8.193,-0.044
8.194,-0.049
8.195,-0.053
8.196,-0.069
8.197,-0.084
8.198,-0.096
8.199,-0.100
8.200,-0.103
8.201,-0.103
8.202,-0.109
8.203,-0.112
8.204,-0.116
8.205,-0.116
8.206,-0.122
8.207,-0.119
8.208,-0.116
8.209,-0.112
8.210,-0.116
8.211,-0.119
8.212,-0.122
8.213,-0.125
8.214,-0.126
8.215,-0.125
8.216,-0.127
8.217,-0.125
8.218,-0.122
8.219,-0.125
8.220,-0.133
8.221,-0.141
8.222,-0.144
8.223,-0.144
8.224,-0.150
8.225,-0.150
8.226,-0.154
8.227,-0.163
8.228,-0.159
8.229,-0.159
8.230,-0.166
8.231,-0.169
8.232,-0.170
8.233,-0.172
8.234,-0.169
8.235,-0.169
8.236,-0.169
8.237,-0.172
8.238,-0.171
8.239,-0.169
8.240,-0.169
8.241,-0.169
8.242,-0.169
8.243,-0.169
8.244,-0.169
8.245,-0.169
8.246,-0.168
8.247,-0.166
8.248,-0.169
8.249,-0.169
8.250,-0.167
8.251,-0.172
8.252,-0.168
8.253,-0.166
8.254,-0.169
8.255,-0.169
8.256,-0.168
8.257,-0.169
8.258,-0.166
8.259,-0.169
8.260,-0.170
8.261,-0.172
8.262,-0.163
8.263,-0.163
8.264,-0.167
8.265,-0.166
8.266,-0.166
8.267,-0.166
8.268,-0.167
8.269,-0.166
8.270,-0.168
8.271,-0.169
8.272,-0.168
8.273,-0.166
8.274,-0.164
8.275,-0.163
8.276,-0.163
8.277,-0.163
8.278,-0.166
8.279,-0.166
8.280,-0.166
8.281,-0.166
8.282,-0.164
8.283,-0.166
8.284,-0.161
8.285,-0.163
8.286,-0.163
8.287,-0.163
8.288,-0.163
8.289,-0.163
8.290,-0.163
8.291,-0.156
8.292,-0.153
8.293,-0.153
8.294,-0.158
8.295,-0.156
8.296,-0.155
8.297,-0.153
8.298,-0.156
8.299,-0.163
8.300,-0.166
8.301,-0.175
8.302,-0.184
8.303,-0.200
8.304,-0.223
8.305,-0.250
8.306,-0.277
8.307,-0.303
8.308,-0.331
8.309,-0.359
8.310,-0.384
8.311,-0.406
8.312,-0.424
8.313,-0.444
8.314,-0.462
8.315,-0.459
8.316,-0.450
8.317,-0.425
8.318,-0.400
8.319,-0.372
8.320,-0.345
8.321,-0.303
8.322,-0.259
8.323,-0.216
8.324,-0.166
8.325,-0.103
8.326,-0.028
8.327,0.053
8.328,0.139
8.329,0.225
8.330,0.309
8.331,0.419
8.332,0.536
8.333,0.650
8.334,0.774
8.335,0.916
8.336,1.069
8.337,1.237
8.338,1.419
8.339,1.606
8.340,1.797
8.341,1.978
8.342,2.156
8.343,2.294
8.344,2.412
8.345,2.462
8.346,2.472
8.347,2.425
8.348,2.378
8.349,2.316
8.350,2.214
8.351,2.053
8.352,1.869
8.353,1.663
8.354,1.453
8.355,1.250
8.356,1.056
8.357,0.884
8.358,0.713
8.359,0.559
8.360,0.406
8.361,0.259
8.362,0.128
8.363,0.025
8.364,-0.041
8.365,-0.078
8.366,-0.117
8.367,-0.144
8.368,-0.159
8.369,-0.163
8.370,-0.167
8.371,-0.169
8.372,-0.167
8.373,-0.166
8.374,-0.150
8.375,-0.131
8.376,-0.116
8.377,-0.088
8.378,-0.064
8.379,-0.038
8.380,-0.020
8.381,-0.006
8.382,0.000
8.383,0.009
8.384,0.019
8.385,0.022
8.386,0.025
8.387,0.025
8.388,0.026
8.389,0.022
8.390,0.018
8.391,0.012
8.392,0.009
8.393,0.003
8.394,-0.003
8.395,-0.009
8.396,-0.014
8.397,-0.022
8.398,-0.025
8.399,-0.031
8.400,-0.030
8.401,-0.031
8.402,-0.034
8.403,-0.034
8.404,-0.030
8.405,-0.028
8.406,-0.028
8.407,-0.028
8.408,-0.028
8.409,-0.028
8.410,-0.028
8.411,-0.031
8.412,-0.031
8.413,-0.031
8.414,-0.032
8.415,-0.034
8.416,-0.034
8.417,-0.034
8.418,-0.033
8.419,-0.031
8.420,-0.032
8.421,-0.034
8.422,-0.028
8.423,-0.025
8.424,-0.023
8.425,-0.025
8.426,-0.023
8.427,-0.025
8.428,-0.025
8.429,-0.028
8.430,-0.026
8.431,-0.028
8.432,-0.026
8.433,-0.028
8.434,-0.022
8.435,-0.019
8.436,-0.017
8.437,-0.019
8.438,-0.014
8.439,-0.016
8.440,-0.012
8.441,-0.012
8.442,-0.014
8.443,-0.012
8.444,-0.012
8.445,-0.012
8.446,-0.006
8.447,-0.003
8.448,-0.003
8.449,0.000
8.450,0.003
8.451,0.003
8.452,0.002
8.453,0.000
8.454,0.003
8.455,0.003
8.456,0.003
8.457,0.006
8.458,0.003
8.459,0.009
8.460,0.008
8.461,0.009
8.462,0.009
8.463,0.012
8.464,0.019
8.465,0.019
8.466,0.016
8.467,0.016
8.468,0.017
8.469,0.019
8.470,0.021
8.471,0.022
8.472,0.025
8.473,0.028
8.474,0.025
8.475,0.028
8.476,0.025
8.477,0.028
8.478,0.029
8.479,0.031
8.480,0.032
8.481,0.038
8.482,0.041
8.483,0.041
8.484,0.041
8.485,0.044
8.486,0.042
8.487,0.044
8.488,0.044
8.489,0.047
8.490,0.053
8.491,0.056
8.492,0.055
8.493,0.056
8.494,0.055
8.495,0.056
8.496,0.056
8.497,0.056
8.498,0.059
8.499,0.059
8.500,0.064
8.501,0.066
8.502,0.064
8.503,0.066
8.504,0.064
8.505,0.066
8.506,0.069
8.507,0.069
8.508,0.070
8.509,0.075
8.510,0.078
8.511,0.078
8.512,0.081
8.513,0.081
8.514,0.084
8.515,0.084
8.516,0.086
8.517,0.084
8.518,0.089
8.519,0.097
8.520,0.099
8.521,0.097
8.522,0.100
8.523,0.100
8.524,0.099
8.525,0.100
8.526,0.101
8.527,0.103
8.528,0.102
8.529,0.103
8.530,0.105
8.531,0.106
8.532,0.107
8.533,0.112
8.534,0.117
8.535,0.119
8.536,0.119
8.537,0.119
8.538,0.126
8.539,0.128
8.540,0.127
8.541,0.128
8.542,0.127
8.543,0.131
8.544,0.134
8.545,0.134
8.546,0.137
8.547,0.141
8.548,0.147
8.549,0.150
8.550,0.153
8.551,0.153
8.552,0.153
8.553,0.153
8.554,0.156
8.555,0.156
8.556,0.164
8.557,0.166
8.558,0.164
8.559,0.169
8.560,0.173
8.561,0.175
8.562,0.176
8.563,0.181
8.564,0.186
8.565,0.187
8.566,0.189
8.567,0.194
8.568,0.197
8.569,0.203
8.570,0.205
8.571,0.206
8.572,0.206
8.573,0.209
8.574,0.213
8.575,0.216
8.576,0.219
8.577,0.216
8.578,0.223
8.579,0.228
8.580,0.234
8.581,0.234
8.582,0.237
8.583,0.244
8.584,0.250
8.585,0.259
8.586,0.261
8.587,0.263
8.588,0.269
8.589,0.275
8.590,0.275
8.591,0.278
8.592,0.284
8.593,0.287
8.594,0.297
8.595,0.303
8.596,0.302
8.597,0.306
8.598,0.305
8.599,0.306
8.600,0.317
8.601,0.325
8.602,0.329
8.603,0.341
8.604,0.337
8.605,0.344
8.606,0.353
8.607,0.359
8.608,0.359
8.609,0.366
8.610,0.372
8.611,0.378
8.612,0.384
8.613,0.388
8.614,0.392
8.615,0.394
8.616,0.400
8.617,0.406
8.618,0.414
8.619,0.419
8.620,0.419
8.621,0.422
8.622,0.434
8.623,0.444
8.624,0.450
8.625,0.453
8.626,0.456
8.627,0.459
8.628,0.464
8.629,0.469
8.630,0.479
8.631,0.484
8.632,0.488
8.633,0.494
8.634,0.497
8.635,0.497
8.636,0.498
8.637,0.506
8.638,0.511
8.639,0.512
8.640,0.517
8.641,0.522
8.642,0.524
8.643,0.528
8.644,0.528
8.645,0.534
8.646,0.547
8.647,0.553
8.648,0.555
8.649,0.556
8.650,0.557
8.651,0.562
8.652,0.566
8.653,0.569
8.654,0.567
8.655,0.569
8.656,0.573
8.657,0.575
8.658,0.577
8.659,0.575
8.660,0.575
8.661,0.575
8.662,0.578
8.663,0.578
8.664,0.578
8.665,0.578
8.666,0.578
8.667,0.578
8.668,0.578
8.669,0.578
8.670,0.575
8.671,0.572
8.672,0.566
8.673,0.559
8.674,0.561
8.675,0.556
8.676,0.549
8.677,0.541
8.678,0.537
8.679,0.534
8.680,0.528
8.681,0.519
8.682,0.509
8.683,0.500
8.684,0.496
8.685,0.481
8.686,0.472
8.687,0.459
8.688,0.447
8.689,0.434
8.690,0.426
8.691,0.416
8.692,0.405
8.693,0.391
8.694,0.375
8.695,0.362
8.696,0.353
8.697,0.337
8.698,0.322
8.699,0.309
8.700,0.298
8.701,0.287
8.702,0.275
8.703,0.266
8.704,0.250
8.705,0.234
8.706,0.222
8.707,0.209
8.708,0.200
8.709,0.187
8.710,0.174
8.711,0.163
8.712,0.151
8.713,0.144
8.714,0.133
8.715,0.119
8.716,0.106
8.717,0.097
8.718,0.087
8.719,0.081
8.720,0.069
8.721,0.059
8.722,0.050
8.723,0.041
8.724,0.033
8.725,0.025
8.726,0.020
8.727,0.016
8.728,0.008
8.729,0.006
8.730,-0.003
8.731,-0.009
8.732,-0.020
8.733,-0.025
8.734,-0.025
8.735,-0.025
8.736,-0.032
8.737,-0.038
8.738,-0.041
8.739,-0.050
8.740,-0.049
8.741,-0.050
8.742,-0.056
8.743,-0.062
8.744,-0.064
8.745,-0.069
8.746,-0.070
8.747,-0.075
8.748,-0.078
8.749,-0.075
8.750,-0.078
8.751,-0.081
8.752,-0.083
8.753,-0.084
8.754,-0.084
8.755,-0.088
8.756,-0.091
8.757,-0.091
8.758,-0.091
8.759,-0.094
8.760,-0.095
8.761,-0.097
8.762,-0.100
8.763,-0.100
8.764,-0.100
8.765,-0.100
8.766,-0.100
8.767,-0.100
8.768,-0.099
8.769,-0.100
8.770,-0.100
8.771,-0.100
8.772,-0.100
8.773,-0.100
8.774,-0.101
8.775,-0.100
8.776,-0.102
8.777,-0.103
8.778,-0.103
8.779,-0.100
8.780,-0.100
8.781,-0.097
8.782,-0.100
8.783,-0.097
8.784,-0.096
8.785,-0.094
8.786,-0.095
8.787,-0.097
8.788,-0.096
8.789,-0.097
8.790,-0.095
8.791,-0.097
8.792,-0.098
8.793,-0.100
8.794,-0.101
8.795,-0.100
8.796,-0.096
8.797,-0.091
8.798,-0.095
8.799,-0.094
8.800,-0.092
8.801,-0.091
8.802,-0.086
8.803,-0.084
8.804,-0.088
8.805,-0.088
8.806,-0.089
8.807,-0.091
8.808,-0.086
8.809,-0.088
8.810,-0.089
8.811,-0.088
8.812,-0.089
8.813,-0.088
8.814,-0.089
8.815,-0.091
8.816,-0.089
8.817,-0.088
8.818,-0.091
8.819,-0.088
8.820,-0.084
8.821,-0.084
8.822,-0.081
8.823,-0.078
8.824,-0.078
8.825,-0.078
8.826,-0.078
8.827,-0.078
8.828,-0.079
8.829,-0.081
8.830,-0.081
8.831,-0.081
8.832,-0.084
8.833,-0.084
8.834,-0.082
8.835,-0.084
8.836,-0.083
8.837,-0.081
8.838,-0.086
8.839,-0.088
8.840,-0.086
8.841,-0.084
8.842,-0.080
8.843,-0.078
8.844,-0.078
8.845,-0.078
8.846,-0.075
8.847,-0.072
8.848,-0.076
8.849,-0.075
8.850,-0.075
8.851,-0.075
8.852,-0.074
8.853,-0.072
8.854,-0.072
8.855,-0.075
8.856,-0.072
8.857,-0.075
8.858,-0.073
8.859,-0.078
8.860,-0.076
8.861,-0.078
8.862,-0.075
8.863,-0.075
8.864,-0.076
8.865,-0.078
8.866,-0.082
8.867,-0.081
8.868,-0.083
8.869,-0.081
8.870,-0.081
8.871,-0.081
8.872,-0.082
8.873,-0.084
8.874,-0.084
8.875,-0.081
8.876,-0.084
8.877,-0.088
8.878,-0.086
8.879,-0.088
8.880,-0.088
8.881,-0.084
8.882,-0.088
8.883,-0.088
8.884,-0.088
8.885,-0.088
8.886,-0.088
8.887,-0.088
8.888,-0.091
8.889,-0.091
8.890,-0.092
8.891,-0.091
8.892,-0.092
8.893,-0.094
8.894,-0.097
8.895,-0.100
8.896,-0.099
8.897,-0.097
8.898,-0.097
8.899,-0.103
8.900,-0.104
8.901,-0.106
8.902,-0.103
8.903,-0.103
8.904,-0.104
8.905,-0.106
8.906,-0.105
8.907,-0.103
8.908,-0.103
8.909,-0.103
8.910,-0.103
8.911,-0.103
8.912,-0.099
8.913,-0.097
8.914,-0.098
8.915,-0.103
8.916,-0.103
8.917,-0.106
8.918,-0.104
8.919,-0.109
8.920,-0.105
8.921,-0.106
8.922,-0.102
8.923,-0.103
8.924,-0.103
8.925,-0.103
8.926,-0.103
8.927,-0.103
8.928,-0.104
8.929,-0.106
8.930,-0.104
8.931,-0.109
8.932,-0.109
8.933,-0.109
8.934,-0.109
8.935,-0.109
8.936,-0.108
8.937,-0.109
8.938,-0.114
8.939,-0.112
8.940,-0.111
8.941,-0.109
8.942,-0.111
8.943,-0.109
8.944,-0.112
8.945,-0.116
8.946,-0.117
8.947,-0.119
8.948,-0.122
8.949,-0.122
8.950,-0.121
8.951,-0.119
8.952,-0.121
8.953,-0.116
8.954,-0.116
8.955,-0.116
8.956,-0.116
8.957,-0.119
8.958,-0.119
8.959,-0.119
8.960,-0.122
8.961,-0.122
8.962,-0.121
8.963,-0.122
8.964,-0.122
8.965,-0.122
8.966,-0.122
8.967,-0.122
8.968,-0.119
8.969,-0.119
8.970,-0.120
8.971,-0.119
8.972,-0.122
8.973,-0.119
8.974,-0.122
8.975,-0.122
8.976,-0.119
8.977,-0.122
8.978,-0.122
8.979,-0.122
8.980,-0.122
8.981,-0.122
8.982,-0.123
8.983,-0.125
8.984,-0.124
8.985,-0.119
8.986,-0.118
8.987,-0.119
8.988,-0.120
8.989,-0.122
8.990,-0.119
8.991,-0.122
8.992,-0.126
8.993,-0.125
8.994,-0.124
8.995,-0.125
8.996,-0.121
8.997,-0.122
8.998,-0.131
8.999,-0.128
9.000,-0.127
9.001,-0.125
9.002,-0.125
9.003,-0.125
9.004,-0.125
9.005,-0.128
9.006,-0.125
9.007,-0.128
9.008,-0.126
9.009,-0.128
9.010,-0.131
9.011,-0.131
9.012,-0.133
9.013,-0.134
9.014,-0.133
9.015,-0.134
9.016,-0.136
9.017,-0.128
9.018,-0.130
9.019,-0.128
9.020,-0.128
9.021,-0.131
9.022,-0.133
9.023,-0.134
9.024,-0.131
9.025,-0.128
9.026,-0.131
9.027,-0.131
9.028,-0.130
9.029,-0.128
9.030,-0.129
9.031,-0.131
9.032,-0.136
9.033,-0.138
9.034,-0.133
9.035,-0.128
9.036,-0.128
9.037,-0.131
9.038,-0.133
9.039,-0.134
9.040,-0.133
9.041,-0.134
9.042,-0.133
9.043,-0.134
9.044,-0.131
9.045,-0.128
9.046,-0.129
9.047,-0.131
9.048,-0.138
9.049,-0.141
9.050,-0.141
9.051,-0.141
9.052,-0.136
9.053,-0.131
9.054,-0.133
9.055,-0.134
9.056,-0.134
9.057,-0.134
9.058,-0.131
9.059,-0.128
9.060,-0.131
9.061,-0.134
9.062,-0.136
9.063,-0.138
9.064,-0.138
9.065,-0.138
9.066,-0.138
9.067,-0.138
9.068,-0.139
9.069,-0.141
9.070,-0.141
9.071,-0.141
9.072,-0.141
9.073,-0.141
9.074,-0.134
9.075,-0.128
9.076,-0.131
9.077,-0.134
9.078,-0.134
9.079,-0.134
9.080,-0.134
9.081,-0.134
9.082,-0.136
9.083,-0.138
9.084,-0.138
9.085,-0.138
9.086,-0.138
9.087,-0.138
9.088,-0.138
9.089,-0.138
9.090,-0.139
9.091,-0.141
9.092,-0.141
9.093,-0.141
9.094,-0.138
9.095,-0.134
9.096,-0.134
9.097,-0.134
9.098,-0.136
9.099,-0.138
9.100,-0.138
9.101,-0.138
9.102,-0.134
9.103,-0.131
9.104,-0.133
9.105,-0.134
9.106,-0.133
9.107,-0.131
9.108,-0.131
9.109,-0.131
9.110,-0.134
9.111,-0.138
9.112,-0.139
9.113,-0.141
9.114,-0.138
9.115,-0.134
9.116,-0.134
9.117,-0.134
9.118,-0.134
9.119,-0.134
9.120,-0.136
9.121,-0.138
9.122,-0.138
9.123,-0.138
9.124,-0.138
9.125,-0.138
9.126,-0.138
9.127,-0.138
9.128,-0.134
9.129,-0.131
9.130,-0.133
9.131,-0.134
9.132,-0.133
9.133,-0.131
9.134,-0.131
9.135,-0.131
9.136,-0.131
9.137,-0.131
9.138,-0.131
9.139,-0.131
9.140,-0.131
9.141,-0.131
9.142,-0.131
9.143,-0.131
9.144,-0.133
9.145,-0.134
9.146,-0.133
9.147,-0.131
9.148,-0.131
9.149,-0.131
9.150,-0.133
9.151,-0.134
9.152,-0.136
9.153,-0.138
9.154,-0.138
9.155,-0.138
9.156,-0.138
9.157,-0.138
9.158,-0.139
9.159,-0.141
9.160,-0.141
9.161,-0.141
9.162,-0.141
9.163,-0.141
9.164,-0.138
9.165,-0.134
9.166,-0.134
9.167,-0.134
9.168,-0.133
9.169,-0.131
9.170,-0.133
9.171,-0.134
9.172,-0.136
9.173,-0.138
9.174,-0.138
9.175,-0.138
9.176,-0.140
9.177,-0.141
9.178,-0.138
9.179,-0.141
9.180,-0.141
9.181,-0.141
9.182,-0.134
9.183,-0.131
9.184,-0.131
9.185,-0.128
9.186,-0.131
9.187,-0.134
9.188,-0.136
9.189,-0.141
9.190,-0.134
9.191,-0.131
9.192,-0.133
9.193,-0.134
9.194,-0.136
9.195,-0.134
9.196,-0.136
9.197,-0.134
9.198,-0.138
9.199,-0.141
9.200,-0.138
9.201,-0.141
9.202,-0.139
9.203,-0.138
9.204,-0.134
9.205,-0.131
9.206,-0.130
9.207,-0.131
9.208,-0.129
9.209,-0.131
9.210,-0.131
9.211,-0.134
9.212,-0.131
9.213,-0.131
9.214,-0.136
9.215,-0.134
9.216,-0.134
9.217,-0.134
9.218,-0.130
9.219,-0.128
9.220,-0.133
9.221,-0.134
9.222,-0.138
9.223,-0.138
9.224,-0.133
9.225,-0.131
9.226,-0.131
9.227,-0.131
9.228,-0.131
9.229,-0.131
9.230,-0.133
9.231,-0.134
9.232,-0.136
9.233,-0.138
9.234,-0.138
9.235,-0.134
9.236,-0.134
9.237,-0.134
9.238,-0.134
9.239,-0.138
9.240,-0.134
9.241,-0.131
9.242,-0.131
9.243,-0.131
9.244,-0.128
9.245,-0.131
9.246,-0.131
9.247,-0.131
9.248,-0.133
9.249,-0.134
9.250,-0.134
9.251,-0.134
9.252,-0.136
9.253,-0.138
9.254,-0.138
9.255,-0.138
9.256,-0.134
9.257,-0.131
9.258,-0.131
9.259,-0.131
9.260,-0.130
9.261,-0.131
9.262,-0.133
9.263,-0.131
9.264,-0.131
9.265,-0.134
9.266,-0.136
9.267,-0.138
9.268,-0.136
9.269,-0.134
9.270,-0.131
9.271,-0.134
9.272,-0.138
9.273,-0.141
9.274,-0.138
9.275,-0.134
9.276,-0.138
9.277,-0.134
9.278,-0.136
9.279,-0.138
9.280,-0.134
9.281,-0.138
9.282,-0.134
9.283,-0.138
9.284,-0.138
9.285,-0.138
9.286,-0.138
9.287,-0.138
9.288,-0.139
9.289,-0.138
9.290,-0.142
9.291,-0.141
9.292,-0.141
9.293,-0.144
9.294,-0.144
9.295,-0.144
9.296,-0.143
9.297,-0.141
9.298,-0.141
9.299,-0.141
9.300,-0.141
9.301,-0.141
9.302,-0.138
9.303,-0.138
9.304,-0.136
9.305,-0.138
9.306,-0.138
9.307,-0.138
9.308,-0.138
9.309,-0.138
9.310,-0.138
9.311,-0.138
9.312,-0.136
9.313,-0.138
9.314,-0.139
9.315,-0.141
9.316,-0.141
9.317,-0.144
9.318,-0.138
9.319,-0.138
9.320,-0.136
9.321,-0.138
9.322,-0.136
9.323,-0.138
9.324,-0.134
9.325,-0.138
9.326,-0.138
9.327,-0.141
9.328,-0.141
9.329,-0.141
9.330,-0.142
9.331,-0.144
9.332,-0.145
9.333,-0.144
9.334,-0.143
9.335,-0.141
9.336,-0.142
9.337,-0.144
9.338,-0.143
9.339,-0.141
9.340,-0.109
9.341,-0.075
9.342,-0.034
9.343,-0.003
9.344,-0.002
9.345,-0.003
9.346,-0.001
9.347,-0.003
9.348,-0.039
9.349,-0.075
9.350,-0.111
9.351,-0.147
9.352,-0.147
9.353,-0.147
9.354,-0.148
9.355,-0.150
9.356,-0.151
9.357,-0.153
9.358,-0.150
9.359,-0.153
9.360,-0.153
9.361,-0.156
9.362,-0.152
9.363,-0.150
9.364,-0.150
9.365,-0.147
9.366,-0.146
9.367,-0.147
9.368,-0.148
9.369,-0.147
9.370,-0.146
9.371,-0.147
9.372,-0.148
9.373,-0.147
9.374,-0.150
9.375,-0.150
9.376,-0.153
9.377,-0.153
9.378,-0.152
9.379,-0.150
9.380,-0.149
9.381,-0.147
9.382,-0.146
9.383,-0.147
9.384,-0.148
9.385,-0.147
9.386,-0.146
9.387,-0.144
9.388,-0.145
9.389,-0.147
9.390,-0.146
9.391,-0.147
9.392,-0.144
9.393,-0.144
9.394,-0.147
9.395,-0.147
9.396,-0.144
9.397,-0.147
9.398,-0.147
9.399,-0.147
9.400,-0.144
9.401,-0.144
9.402,-0.148
9.403,-0.147
9.404,-0.147
9.405,-0.147
9.406,-0.147
