'Elapsed time','II'
'seconds','mV'
0.000,-0.083
0.001,-0.081
0.002,-0.080
0.003,-0.078
0.004,-0.077
0.005,-0.075
0.006,-0.084
0.007,-0.094
0.008,-0.097
0.009,-0.100
0.010,-0.103
0.011,-0.106
0.012,-0.111
0.013,-0.116
0.014,-0.119
0.015,-0.122
0.016,-0.125
0.017,-0.128
0.018,-0.133
0.019,-0.138
0.020,-0.138
0.021,-0.138
0.022,-0.133
0.023,-0.128
0.024,-0.128
0.025,-0.128
0.026,-0.131
0.027,-0.134
0.028,-0.136
0.029,-0.138
0.030,-0.134
0.031,-0.131
0.032,-0.133
0.033,-0.134
0.034,-0.138
0.035,-0.141
0.036,-0.144
0.037,-0.147
0.038,-0.148
0.039,-0.150
0.040,-0.149
0.041,-0.147
0.042,-0.144
0.043,-0.141
0.044,-0.139
0.045,-0.138
0.046,-0.139
0.047,-0.141
0.048,-0.139
0.049,-0.138
0.050,-0.138
0.051,-0.138
0.052,-0.139
0.053,-0.141
0.054,-0.138
0.055,-0.134
0.056,-0.139
0.057,-0.144
0.058,-0.144
0.059,-0.144
0.060,-0.144
0.061,-0.144
0.062,-0.148
0.063,-0.153
0.064,-0.152
0.065,-0.150
0.066,-0.150
0.067,-0.150
0.068,-0.147
0.069,-0.144
0.070,-0.143
0.071,-0.144
0.072,-0.141
0.073,-0.141
0.074,-0.144
0.075,-0.144
0.076,-0.147
0.077,-0.147
0.078,-0.143
0.079,-0.141
0.080,-0.141
0.081,-0.138
0.082,-0.138
0.083,-0.138
0.084,-0.130
0.085,-0.125
0.086,-0.121
0.087,-0.113
0.088,-0.116
0.089,-0.116
0.090,-0.119
0.091,-0.122
0.092,-0.123
0.093,-0.125
0.094,-0.123
0.095,-0.125
0.096,-0.122
0.097,-0.122
0.098,-0.122
0.099,-0.125
0.100,-0.129
0.101,-0.134
0.102,-0.134
0.103,-0.134
0.104,-0.125
0.105,-0.116
0.106,-0.116
0.107,-0.116
0.108,-0.119
0.109,-0.119
0.110,-0.119
0.111,-0.116
0.112,-0.109
0.113,-0.106
0.114,-0.099
0.115,-0.094
0.116,-0.097
0.117,-0.094
0.118,-0.097
0.119,-0.103
0.120,-0.099
0.121,-0.097
0.122,-0.091
0.123,-0.088
0.124,-0.092
0.125,-0.094
0.126,-0.098
0.127,-0.097
0.128,-0.089
0.129,-0.084
0.130,-0.081
0.131,-0.078
0.132,-0.078
0.133,-0.075
0.134,-0.078
0.135,-0.075
0.136,-0.075
0.137,-0.072
0.138,-0.066
0.139,-0.066
0.140,-0.070
0.141,-0.072
0.142,-0.069
0.143,-0.072
0.144,-0.071
0.145,-0.069
0.146,-0.063
0.147,-0.056
0.148,-0.056
0.149,-0.056
0.150,-0.054
0.151,-0.056
0.152,-0.054
0.153,-0.056
0.154,-0.053
0.155,-0.053
0.156,-0.058
0.157,-0.053
0.158,-0.055
0.159,-0.053
0.160,-0.053
0.161,-0.053
0.162,-0.050
0.163,-0.050
0.164,-0.047
0.165,-0.047
0.166,-0.047
0.167,-0.047
0.168,-0.046
0.169,-0.047
0.170,-0.045
0.171,-0.047
0.172,-0.051
0.173,-0.056
0.174,-0.063
0.175,-0.066
0.176,-0.063
0.177,-0.056
0.178,-0.056
0.179,-0.056
0.180,-0.056
0.181,-0.059
0.182,-0.059
0.183,-0.059
0.184,-0.058
0.185,-0.053
0.186,-0.050
0.187,-0.050
0.188,-0.050
0.189,-0.050
0.190,-0.044
0.191,-0.047
0.192,-0.047
0.193,-0.050
0.194,-0.051
0.195,-0.053
0.196,-0.053
0.197,-0.050
0.198,-0.052
0.199,-0.053
0.200,-0.050
0.201,-0.050
0.202,-0.057
0.203,-0.063
0.204,-0.064
0.205,-0.066
0.206,-0.061
0.207,-0.053
0.208,-0.050
0.209,-0.053
0.210,-0.050
0.211,-0.050
0.212,-0.049
0.213,-0.044
0.214,-0.041
0.215,-0.038
0.216,-0.039
0.217,-0.044
0.218,-0.045
0.219,-0.044
0.220,-0.038
0.221,-0.034
0.222,-0.031
0.223,-0.028
0.224,-0.025
0.225,-0.022
0.226,-0.024
0.227,-0.025
0.228,-0.021
0.229,-0.019
0.230,-0.016
0.231,-0.016
0.232,-0.019
0.233,-0.022
0.234,-0.011
0.235,-0.003
0.236,-0.003
0.237,0.003
0.238,0.000
0.239,0.000
0.240,-0.003
0.241,-0.003
0.242,-0.005
0.243,-0.006
0.244,-0.006
0.245,-0.006
0.246,-0.009
0.247,-0.009
0.248,-0.008
0.249,-0.009
0.250,-0.012
0.251,-0.019
0.252,-0.020
0.253,-0.022
0.254,-0.019
0.255,-0.022
0.256,-0.028
0.257,-0.031
0.258,-0.031
0.259,-0.034
0.260,-0.030
0.261,-0.025
0.262,-0.028
0.263,-0.028
0.264,-0.036
0.265,-0.044
0.266,-0.044
0.267,-0.047
0.268,-0.044
0.269,-0.044
0.270,-0.041
0.271,-0.041
0.272,-0.045
0.273,-0.044
0.274,-0.045
0.275,-0.047
0.276,-0.050
0.277,-0.053
0.278,-0.052
0.279,-0.053
0.280,-0.053
0.281,-0.053
0.282,-0.054
0.283,-0.056
0.284,-0.059
0.285,-0.066
0.286,-0.066
0.287,-0.069
0.288,-0.067
0.289,-0.066
0.290,-0.063
0.291,-0.056
0.292,-0.053
0.293,-0.050
0.294,-0.044
0.295,-0.044
0.296,-0.047
0.297,-0.047
0.298,-0.054
0.299,-0.059
0.300,-0.055
0.301,-0.050
0.302,-0.048
0.303,-0.053
0.304,-0.049
0.305,-0.044
0.306,-0.044
0.307,-0.044
0.308,-0.045
0.309,-0.047
0.310,-0.051
0.311,-0.056
0.312,-0.052
0.313,-0.047
0.314,-0.043
0.315,-0.031
0.316,-0.036
0.317,-0.038
0.318,-0.033
0.319,-0.034
0.320,-0.038
0.321,-0.041
0.322,-0.044
0.323,-0.044
0.324,-0.038
0.325,-0.034
0.326,-0.038
0.327,-0.041
0.328,-0.039
0.329,-0.038
0.330,-0.038
0.331,-0.041
0.332,-0.044
0.333,-0.044
0.334,-0.044
0.335,-0.044
0.336,-0.044
0.337,-0.050
0.338,-0.051
0.339,-0.053
0.340,-0.052
0.341,-0.047
0.342,-0.047
0.343,-0.044
0.344,-0.046
0.345,-0.047
0.346,-0.050
0.347,-0.050
0.348,-0.046
0.349,-0.041
0.350,-0.044
0.351,-0.044
0.352,-0.046
0.353,-0.047
0.354,-0.051
0.355,-0.056
0.356,-0.059
0.357,-0.059
0.358,-0.057
0.359,-0.063
0.360,-0.063
0.361,-0.063
0.362,-0.056
0.363,-0.050
0.364,-0.052
0.365,-0.047
0.366,-0.050
0.367,-0.050
0.368,-0.049
0.369,-0.050
0.370,-0.051
0.371,-0.053
0.372,-0.056
0.373,-0.056
0.374,-0.053
0.375,-0.050
0.376,-0.056
0.377,-0.056
0.378,-0.061
0.379,-0.066
0.380,-0.066
0.381,-0.066
0.382,-0.069
0.383,-0.069
0.384,-0.072
0.385,-0.075
0.386,-0.074
0.387,-0.069
0.388,-0.064
0.389,-0.063
0.390,-0.066
0.391,-0.066
0.392,-0.072
0.393,-0.078
0.394,-0.081
0.395,-0.084
0.396,-0.081
0.397,-0.081
0.398,-0.078
0.399,-0.075
0.400,-0.074
0.401,-0.066
0.402,-0.061
0.403,-0.056
0.404,-0.049
0.405,-0.041
0.406,-0.030
0.407,-0.019
0.408,-0.016
0.409,-0.009
0.410,-0.009
0.411,-0.012
0.412,-0.008
0.413,-0.006
0.414,0.000
0.415,0.003
0.416,0.003
0.417,0.003
0.418,0.007
0.419,0.006
0.420,0.002
0.421,0.003
0.422,0.005
0.423,0.006
0.424,0.017
0.425,0.028
0.426,0.031
0.427,0.031
0.428,0.036
0.429,0.044
0.430,0.059
0.431,0.072
0.432,0.089
0.433,0.103
0.434,0.111
0.435,0.116
0.436,0.127
0.437,0.131
0.438,0.147
0.439,0.163
0.440,0.170
0.441,0.178
0.442,0.175
0.443,0.172
0.444,0.166
0.445,0.156
0.446,0.147
0.447,0.137
0.448,0.125
0.449,0.116
0.450,0.117
0.451,0.116
0.452,0.114
0.453,0.119
0.454,0.126
0.455,0.128
0.456,0.127
0.457,0.128
0.458,0.128
0.459,0.128
0.460,0.125
0.461,0.119
0.462,0.109
0.463,0.100
0.464,0.089
0.465,0.078
0.466,0.069
0.467,0.053
0.468,0.044
0.469,0.034
0.470,0.022
0.471,0.006
0.472,-0.006
0.473,-0.016
0.474,-0.024
0.475,-0.031
0.476,-0.048
0.477,-0.056
0.478,-0.067
0.479,-0.075
0.480,-0.081
0.481,-0.081
0.482,-0.083
0.483,-0.084
0.484,-0.084
0.485,-0.088
0.486,-0.086
0.487,-0.091
0.488,-0.100
0.489,-0.100
0.490,-0.108
0.491,-0.113
0.492,-0.118
0.493,-0.116
0.494,-0.117
0.495,-0.119
0.496,-0.122
0.497,-0.122
0.498,-0.122
0.499,-0.122
0.500,-0.119
0.501,-0.113
0.502,-0.113
0.503,-0.116
0.504,-0.119
0.505,-0.122
0.506,-0.122
0.507,-0.125
0.508,-0.122
0.509,-0.122
0.510,-0.131
0.511,-0.141
0.512,-0.139
0.513,-0.141
0.514,-0.138
0.515,-0.131
0.516,-0.128
0.517,-0.131
0.518,-0.138
0.519,-0.138
0.520,-0.141
0.521,-0.150
0.522,-0.154
0.523,-0.159
0.524,-0.176
0.525,-0.197
0.526,-0.213
0.527,-0.231
0.528,-0.251
0.529,-0.272
0.530,-0.289
0.531,-0.306
0.532,-0.319
0.533,-0.328
0.534,-0.338
0.535,-0.338
0.536,-0.339
0.537,-0.341
0.538,-0.334
0.539,-0.319
0.540,-0.294
0.541,-0.266
0.542,-0.230
0.543,-0.187
0.544,-0.133
0.545,-0.069
0.546,0.026
0.547,0.125
0.548,0.229
0.549,0.341
0.550,0.444
0.551,0.550
0.552,0.642
0.553,0.737
0.554,0.812
0.555,0.894
0.556,0.989
0.557,1.094
0.558,1.198
0.559,1.309
0.560,1.406
0.561,1.506
0.562,1.600
0.563,1.681
0.564,1.756
0.565,1.822
0.566,1.849
0.567,1.869
0.568,1.846
0.569,1.813
0.570,1.753
0.571,1.691
0.572,1.549
0.573,1.394
0.574,1.200
0.575,0.972
0.576,0.775
0.577,0.559
0.578,0.412
0.579,0.291
0.580,0.169
0.581,0.066
0.582,-0.027
0.583,-0.106
0.584,-0.149
0.585,-0.178
0.586,-0.186
0.587,-0.184
0.588,-0.186
0.589,-0.184
0.590,-0.184
0.591,-0.178
0.592,-0.166
0.593,-0.156
0.594,-0.149
0.595,-0.141
0.596,-0.136
0.597,-0.131
0.598,-0.122
0.599,-0.119
0.600,-0.119
0.601,-0.113
0.602,-0.108
0.603,-0.106
0.604,-0.097
0.605,-0.094
0.606,-0.103
0.607,-0.106
0.608,-0.108
0.609,-0.113
0.610,-0.108
0.611,-0.106
0.612,-0.113
0.613,-0.113
0.614,-0.114
0.615,-0.116
0.616,-0.121
0.617,-0.122
0.618,-0.122
0.619,-0.125
0.620,-0.134
0.621,-0.144
0.622,-0.145
0.623,-0.147
0.624,-0.141
0.625,-0.141
0.626,-0.142
0.627,-0.144
0.628,-0.143
0.629,-0.141
0.630,-0.142
0.631,-0.147
0.632,-0.147
0.633,-0.147
0.634,-0.144
0.635,-0.141
0.636,-0.138
0.637,-0.134
0.638,-0.138
0.639,-0.144
0.640,-0.147
0.641,-0.153
0.642,-0.154
0.643,-0.156
0.644,-0.152
0.645,-0.147
0.646,-0.147
0.647,-0.147
0.648,-0.149
0.649,-0.150
0.650,-0.151
0.651,-0.150
0.652,-0.151
0.653,-0.156
0.654,-0.158
0.655,-0.156
0.656,-0.158
0.657,-0.159
0.658,-0.163
0.659,-0.163
0.660,-0.156
0.661,-0.150
0.662,-0.151
0.663,-0.153
0.664,-0.151
0.665,-0.156
0.666,-0.163
0.667,-0.163
0.668,-0.155
0.669,-0.150
0.670,-0.148
0.671,-0.150
0.672,-0.146
0.673,-0.141
0.674,-0.139
0.675,-0.138
0.676,-0.141
0.677,-0.138
0.678,-0.142
0.679,-0.141
0.680,-0.138
0.681,-0.131
0.682,-0.133
0.683,-0.134
0.684,-0.134
0.685,-0.131
0.686,-0.136
0.687,-0.141
0.688,-0.142
0.689,-0.144
0.690,-0.141
0.691,-0.144
0.692,-0.142
0.693,-0.144
0.694,-0.142
0.695,-0.141
0.696,-0.141
0.697,-0.138
0.698,-0.134
0.699,-0.134
0.700,-0.130
0.701,-0.128
0.702,-0.125
0.703,-0.128
0.704,-0.131
0.705,-0.134
0.706,-0.131
0.707,-0.128
0.708,-0.126
0.709,-0.125
0.710,-0.125
0.711,-0.125
0.712,-0.128
0.713,-0.128
0.714,-0.121
0.715,-0.119
0.716,-0.114
0.717,-0.109
0.718,-0.109
0.719,-0.109
0.720,-0.111
0.721,-0.113
0.722,-0.113
0.723,-0.116
0.724,-0.114
0.725,-0.113
0.726,-0.113
0.727,-0.113
0.728,-0.109
0.729,-0.100
0.730,-0.099
0.731,-0.094
0.732,-0.094
0.733,-0.097
0.734,-0.097
0.735,-0.097
0.736,-0.096
0.737,-0.094
0.738,-0.089
0.739,-0.091
0.740,-0.091
0.741,-0.091
0.742,-0.089
0.743,-0.091
0.744,-0.095
0.745,-0.094
0.746,-0.091
0.747,-0.088
0.748,-0.089
0.749,-0.091
0.750,-0.089
0.751,-0.091
0.752,-0.083
0.753,-0.078
0.754,-0.074
0.755,-0.069
0.756,-0.072
0.757,-0.075
0.758,-0.073
0.759,-0.075
0.760,-0.069
0.761,-0.063
0.762,-0.067
0.763,-0.069
0.764,-0.072
0.765,-0.075
0.766,-0.071
0.767,-0.069
0.768,-0.068
0.769,-0.066
0.770,-0.069
0.771,-0.072
0.772,-0.072
0.773,-0.075
0.774,-0.073
0.775,-0.078
0.776,-0.078
0.777,-0.081
0.778,-0.078
0.779,-0.075
0.780,-0.077
0.781,-0.075
0.782,-0.079
0.783,-0.084
0.784,-0.086
0.785,-0.088
0.786,-0.078
0.787,-0.075
0.788,-0.074
0.789,-0.072
0.790,-0.076
0.791,-0.078
0.792,-0.077
0.793,-0.075
0.794,-0.076
0.795,-0.078
0.796,-0.074
0.797,-0.069
0.798,-0.070
0.799,-0.072
0.800,-0.076
0.801,-0.081
0.802,-0.081
0.803,-0.081
0.804,-0.079
0.805,-0.081
0.806,-0.078
0.807,-0.075
0.808,-0.072
0.809,-0.069
0.810,-0.070
0.811,-0.069
0.812,-0.067
0.813,-0.066
0.814,-0.068
0.815,-0.066
0.816,-0.066
0.817,-0.059
0.818,-0.052
0.819,-0.047
0.820,-0.043
0.821,-0.041
0.822,-0.033
0.823,-0.025
0.824,-0.026
0.825,-0.028
0.826,-0.026
0.827,-0.028
0.828,-0.028
0.829,-0.028
0.830,-0.033
0.831,-0.034
0.832,-0.031
0.833,-0.031
0.834,-0.019
0.835,-0.016
0.836,-0.016
0.837,-0.019
0.838,-0.020
0.839,-0.025
0.840,-0.025
0.841,-0.022
0.842,-0.025
0.843,-0.028
0.844,-0.031
0.845,-0.031
0.846,-0.033
0.847,-0.034
0.848,-0.034
0.849,-0.034
0.850,-0.033
0.851,-0.034
0.852,-0.031
0.853,-0.034
0.854,-0.038
0.855,-0.038
0.856,-0.036
0.857,-0.034
0.858,-0.039
0.859,-0.044
0.860,-0.053
0.861,-0.059
0.862,-0.063
0.863,-0.063
0.864,-0.064
0.865,-0.066
0.866,-0.070
0.867,-0.075
0.868,-0.072
0.869,-0.072
0.870,-0.064
0.871,-0.059
0.872,-0.061
0.873,-0.063
0.874,-0.063
0.875,-0.066
0.876,-0.067
0.877,-0.069
0.878,-0.069
0.879,-0.066
0.880,-0.069
0.881,-0.072
0.882,-0.070
0.883,-0.072
0.884,-0.072
0.885,-0.072
0.886,-0.078
0.887,-0.084
0.888,-0.086
0.889,-0.088
0.890,-0.083
0.891,-0.078
0.892,-0.078
0.893,-0.075
0.894,-0.072
0.895,-0.072
0.896,-0.072
0.897,-0.072
0.898,-0.069
0.899,-0.069
0.900,-0.070
0.901,-0.069
0.902,-0.069
0.903,-0.072
0.904,-0.071
0.905,-0.069
0.906,-0.064
0.907,-0.066
0.908,-0.069
0.909,-0.069
0.910,-0.064
0.911,-0.066
0.912,-0.066
0.913,-0.066
0.914,-0.067
0.915,-0.066
0.916,-0.069
0.917,-0.069
0.918,-0.061
0.919,-0.056
0.920,-0.053
0.921,-0.053
0.922,-0.056
0.923,-0.063
0.924,-0.063
0.925,-0.059
0.926,-0.055
0.927,-0.053
0.928,-0.056
0.929,-0.059
0.930,-0.061
0.931,-0.066
0.932,-0.072
0.933,-0.072
0.934,-0.066
0.935,-0.056
0.936,-0.055
0.937,-0.053
0.938,-0.053
0.939,-0.059
0.940,-0.056
0.941,-0.056
0.942,-0.061
0.943,-0.063
0.944,-0.061
0.945,-0.063
0.946,-0.059
0.947,-0.059
0.948,-0.056
0.949,-0.056
0.950,-0.061
0.951,-0.063
0.952,-0.067
0.953,-0.072
0.954,-0.072
0.955,-0.072
0.956,-0.074
0.957,-0.072
0.958,-0.072
0.959,-0.072
0.960,-0.069
0.961,-0.069
0.962,-0.064
0.963,-0.066
0.964,-0.070
0.965,-0.075
0.966,-0.077
0.967,-0.075
0.968,-0.074
0.969,-0.075
0.970,-0.075
0.971,-0.075
0.972,-0.074
0.973,-0.075
0.974,-0.072
0.975,-0.072
0.976,-0.076
0.977,-0.081
0.978,-0.081
0.979,-0.084
0.980,-0.083
0.981,-0.081
0.982,-0.078
0.983,-0.078
0.984,-0.081
0.985,-0.081
0.986,-0.083
0.987,-0.088
0.988,-0.088
0.989,-0.088
0.990,-0.084
0.991,-0.081
0.992,-0.078
0.993,-0.072
0.994,-0.075
0.995,-0.075
0.996,-0.072
0.997,-0.072
0.998,-0.063
0.999,-0.053
1.000,-0.048
1.001,-0.044
1.002,-0.044
1.003,-0.041
1.004,-0.034
1.005,-0.034
1.006,-0.029
1.007,-0.025
1.008,-0.022
1.009,-0.016
1.010,-0.012
1.011,-0.006
1.012,-0.004
1.013,-0.006
1.014,-0.011
1.015,-0.016
1.016,-0.022
1.017,-0.025
1.018,-0.021
1.019,-0.012
1.020,-0.006
1.021,0.003
1.022,0.012
1.023,0.022
1.024,0.028
1.025,0.037
1.026,0.049
1.027,0.062
1.028,0.078
1.029,0.094
1.030,0.106
1.031,0.122
1.032,0.131
1.033,0.144
1.034,0.149
1.035,0.153
1.036,0.158
1.037,0.159
1.038,0.164
1.039,0.163
1.040,0.159
1.041,0.153
1.042,0.141
1.043,0.128
1.044,0.123
1.045,0.122
1.046,0.120
1.047,0.122
1.048,0.120
1.049,0.119
1.050,0.119
1.051,0.119
1.052,0.117
1.053,0.119
1.054,0.121
1.055,0.119
1.056,0.122
1.057,0.119
1.058,0.109
1.059,0.103
1.060,0.096
1.061,0.084
1.062,0.072
1.063,0.059
1.064,0.045
1.065,0.034
1.066,0.029
1.067,0.022
1.068,0.000
1.069,-0.012
1.070,-0.022
1.071,-0.034
1.072,-0.045
1.073,-0.053
1.074,-0.050
1.075,-0.059
1.076,-0.061
1.077,-0.066
1.078,-0.073
1.079,-0.084
1.080,-0.092
1.081,-0.097
1.082,-0.099
1.083,-0.097
1.084,-0.108
1.085,-0.116
1.086,-0.114
1.087,-0.116
1.088,-0.111
1.089,-0.116
1.090,-0.116
1.091,-0.116
1.092,-0.116
1.093,-0.119
1.094,-0.122
1.095,-0.125
1.096,-0.125
1.097,-0.128
1.098,-0.128
1.099,-0.128
1.100,-0.133
1.101,-0.134
1.102,-0.134
1.103,-0.134
1.104,-0.139
1.105,-0.138
1.106,-0.133
1.107,-0.131
1.108,-0.134
1.109,-0.131
1.110,-0.130
1.111,-0.128
1.112,-0.126
1.113,-0.125
1.114,-0.125
1.115,-0.125
1.116,-0.125
1.117,-0.125
1.118,-0.131
1.119,-0.138
1.120,-0.147
1.121,-0.163
1.122,-0.181
1.123,-0.200
1.124,-0.225
1.125,-0.250
1.126,-0.270
1.127,-0.291
1.128,-0.309
1.129,-0.322
1.130,-0.327
1.131,-0.331
1.132,-0.333
1.133,-0.328
1.134,-0.316
1.135,-0.300
1.136,-0.289
1.137,-0.272
1.138,-0.247
1.139,-0.222
1.140,-0.180
1.141,-0.128
1.142,-0.061
1.143,0.031
1.144,0.123
1.145,0.228
1.146,0.330
1.147,0.431
1.148,0.528
1.149,0.612
1.150,0.706
1.151,0.772
1.152,0.857
1.153,0.950
1.154,1.051
1.155,1.147
1.156,1.237
1.157,1.328
1.158,1.421
1.159,1.506
1.160,1.586
1.161,1.662
1.162,1.714
1.163,1.744
1.164,1.759
1.165,1.741
1.166,1.727
1.167,1.675
1.168,1.611
1.169,1.481
1.170,1.299
1.171,1.081
1.172,0.872
1.173,0.641
1.174,0.448
1.175,0.325
1.176,0.222
1.177,0.131
1.178,0.044
1.179,-0.028
1.180,-0.100
1.181,-0.134
1.182,-0.166
1.183,-0.175
1.184,-0.184
1.185,-0.191
1.186,-0.183
1.187,-0.178
1.188,-0.171
1.189,-0.159
1.190,-0.154
1.191,-0.150
1.192,-0.151
1.193,-0.153
1.194,-0.150
1.195,-0.144
1.196,-0.131
1.197,-0.119
1.198,-0.106
1.199,-0.103
1.200,-0.105
1.201,-0.103
1.202,-0.109
1.203,-0.113
1.204,-0.108
1.205,-0.106
1.206,-0.106
1.207,-0.103
1.208,-0.108
1.209,-0.116
1.210,-0.116
1.211,-0.119
1.212,-0.118
1.213,-0.119
1.214,-0.119
1.215,-0.116
1.216,-0.119
1.217,-0.119
1.218,-0.120
1.219,-0.122
1.220,-0.125
1.221,-0.128
1.222,-0.131
1.223,-0.128
1.224,-0.128
1.225,-0.128
1.226,-0.136
1.227,-0.144
1.228,-0.143
1.229,-0.138
1.230,-0.131
1.231,-0.125
1.232,-0.131
1.233,-0.138
1.234,-0.133
1.235,-0.128
1.236,-0.133
1.237,-0.131
1.238,-0.134
1.239,-0.134
1.240,-0.133
1.241,-0.134
1.242,-0.136
1.243,-0.141
1.244,-0.141
1.245,-0.141
1.246,-0.144
1.247,-0.144
1.248,-0.138
1.249,-0.134
1.250,-0.136
1.251,-0.134
1.252,-0.130
1.253,-0.128
1.254,-0.129
1.255,-0.131
1.256,-0.129
1.257,-0.131
1.258,-0.130
1.259,-0.128
1.260,-0.129
1.261,-0.128
1.262,-0.134
1.263,-0.141
1.264,-0.139
1.265,-0.141
1.266,-0.143
1.267,-0.138
1.268,-0.138
1.269,-0.134
1.270,-0.134
1.271,-0.138
1.272,-0.136
1.273,-0.138
1.274,-0.131
1.275,-0.131
1.276,-0.128
1.277,-0.128
1.278,-0.126
1.279,-0.128
1.280,-0.129
1.281,-0.131
1.282,-0.128
1.283,-0.128
1.284,-0.127
1.285,-0.125
1.286,-0.125
1.287,-0.122
1.288,-0.126
1.289,-0.125
1.290,-0.125
1.291,-0.122
1.292,-0.118
1.293,-0.116
1.294,-0.113
1.295,-0.113
1.296,-0.117
1.297,-0.116
1.298,-0.117
1.299,-0.116
1.300,-0.118
1.301,-0.116
1.302,-0.117
1.303,-0.116
1.304,-0.116
1.305,-0.116
1.306,-0.106
1.307,-0.100
1.308,-0.100
1.309,-0.100
1.310,-0.097
1.311,-0.091
1.312,-0.091
1.313,-0.091
1.314,-0.092
1.315,-0.094
1.316,-0.095
1.317,-0.094
1.318,-0.094
1.319,-0.094
1.320,-0.098
1.321,-0.103
1.322,-0.103
1.323,-0.100
1.324,-0.096
1.325,-0.094
1.326,-0.091
1.327,-0.097
1.328,-0.094
1.329,-0.088
1.330,-0.084
1.331,-0.078
1.332,-0.075
1.333,-0.075
1.334,-0.076
1.335,-0.072
1.336,-0.072
1.337,-0.072
1.338,-0.073
1.339,-0.072
1.340,-0.073
1.341,-0.075
1.342,-0.072
1.343,-0.072
1.344,-0.063
1.345,-0.056
1.346,-0.057
1.347,-0.056
1.348,-0.057
1.349,-0.056
1.350,-0.059
1.351,-0.063
1.352,-0.063
1.353,-0.063
1.354,-0.069
1.355,-0.069
1.356,-0.066
1.357,-0.066
1.358,-0.063
1.359,-0.059
1.360,-0.057
1.361,-0.059
1.362,-0.064
1.363,-0.066
1.364,-0.063
1.365,-0.059
1.366,-0.061
1.367,-0.063
1.368,-0.064
1.369,-0.063
1.370,-0.066
1.371,-0.066
1.372,-0.069
1.373,-0.066
1.374,-0.069
1.375,-0.069
1.376,-0.067
1.377,-0.072
1.378,-0.071
1.379,-0.072
1.380,-0.072
1.381,-0.069
1.382,-0.070
1.383,-0.066
1.384,-0.066
1.385,-0.066
1.386,-0.064
1.387,-0.066
1.388,-0.069
1.389,-0.072
1.390,-0.076
1.391,-0.081
1.392,-0.081
1.393,-0.078
1.394,-0.072
1.395,-0.069
1.396,-0.070
1.397,-0.072
1.398,-0.068
1.399,-0.063
1.400,-0.063
1.401,-0.059
1.402,-0.064
1.403,-0.069
1.404,-0.069
1.405,-0.069
1.406,-0.069
1.407,-0.069
1.408,-0.067
1.409,-0.066
1.410,-0.056
1.411,-0.053
1.412,-0.054
1.413,-0.056
1.414,-0.050
1.415,-0.047
1.416,-0.041
1.417,-0.031
1.418,-0.028
1.419,-0.022
1.420,-0.026
1.421,-0.034
1.422,-0.036
1.423,-0.034
1.424,-0.030
1.425,-0.025
1.426,-0.021
1.427,-0.019
1.428,-0.020
1.429,-0.016
1.430,-0.014
1.431,-0.012
1.432,-0.016
1.433,-0.012
1.434,-0.012
1.435,-0.009
1.436,-0.006
1.437,0.000
1.438,0.002
1.439,-0.003
1.440,-0.005
1.441,-0.006
1.442,-0.012
1.443,-0.022
1.444,-0.028
1.445,-0.034
1.446,-0.039
1.447,-0.041
1.448,-0.039
1.449,-0.034
1.450,-0.033
1.451,-0.031
1.452,-0.031
1.453,-0.028
1.454,-0.027
1.455,-0.028
1.456,-0.030
1.457,-0.031
1.458,-0.028
1.459,-0.028
1.460,-0.027
1.461,-0.028
1.462,-0.031
1.463,-0.031
1.464,-0.028
1.465,-0.028
1.466,-0.034
1.467,-0.034
1.468,-0.034
1.469,-0.034
1.470,-0.042
1.471,-0.047
1.472,-0.050
1.473,-0.050
1.474,-0.049
1.475,-0.050
1.476,-0.047
1.477,-0.047
1.478,-0.053
1.479,-0.053
1.480,-0.053
1.481,-0.053
1.482,-0.053
1.483,-0.053
1.484,-0.050
1.485,-0.050
1.486,-0.057
1.487,-0.059
1.488,-0.057
1.489,-0.063
1.490,-0.061
1.491,-0.056
1.492,-0.053
1.493,-0.050
1.494,-0.049
1.495,-0.044
1.496,-0.045
1.497,-0.047
1.498,-0.044
1.499,-0.044
1.500,-0.047
1.501,-0.047
1.502,-0.048
1.503,-0.044
1.504,-0.038
1.505,-0.034
1.506,-0.036
1.507,-0.034
1.508,-0.036
1.509,-0.034
1.510,-0.038
1.511,-0.041
1.512,-0.041
1.513,-0.044
1.514,-0.041
1.515,-0.038
1.516,-0.041
1.517,-0.041
1.518,-0.039
1.519,-0.038
1.520,-0.041
1.521,-0.038
1.522,-0.031
1.523,-0.028
1.524,-0.030
1.525,-0.031
1.526,-0.028
1.527,-0.028
1.528,-0.031
1.529,-0.028
1.530,-0.031
1.531,-0.031
1.532,-0.031
1.533,-0.031
1.534,-0.028
1.535,-0.031
1.536,-0.028
1.537,-0.028
1.538,-0.033
1.539,-0.034
1.540,-0.033
1.541,-0.034
1.542,-0.034
1.543,-0.038
1.544,-0.034
1.545,-0.034
1.546,-0.038
1.547,-0.038
1.548,-0.039
1.549,-0.041
1.550,-0.039
1.551,-0.038
1.552,-0.042
1.553,-0.044
1.554,-0.045
1.555,-0.047
1.556,-0.043
1.557,-0.041
1.558,-0.039
1.559,-0.044
1.560,-0.043
1.561,-0.041
1.562,-0.044
1.563,-0.044
1.564,-0.045
1.565,-0.050
1.566,-0.050
1.567,-0.050
1.568,-0.050
1.569,-0.053
1.570,-0.050
1.571,-0.050
1.572,-0.049
1.573,-0.047
1.574,-0.044
1.575,-0.044
1.576,-0.043
1.577,-0.041
1.578,-0.042
1.579,-0.047
1.580,-0.050
1.581,-0.050
1.582,-0.053
1.583,-0.059
1.584,-0.061
1.585,-0.063
1.586,-0.067
1.587,-0.072
1.588,-0.075
1.589,-0.075
1.590,-0.075
1.591,-0.072
1.592,-0.059
1.593,-0.050
1.594,-0.044
1.595,-0.038
1.596,-0.025
1.597,-0.012
1.598,-0.009
1.599,-0.003
1.600,0.005
1.601,0.006
1.602,0.012
1.603,0.019
1.604,0.022
1.605,0.028
1.606,0.031
1.607,0.037
1.608,0.036
1.609,0.031
1.610,0.030
1.611,0.028
1.612,0.019
1.613,0.012
1.614,0.017
1.615,0.025
1.616,0.034
1.617,0.047
1.618,0.055
1.619,0.062
1.620,0.075
1.621,0.091
1.622,0.104
1.623,0.122
1.624,0.130
1.625,0.137
1.626,0.144
1.627,0.153
1.628,0.167
1.629,0.184
1.630,0.189
1.631,0.194
1.632,0.200
1.633,0.203
1.634,0.205
1.635,0.200
1.636,0.192
1.637,0.181
1.638,0.171
1.639,0.159
1.640,0.156
1.641,0.156
1.642,0.150
1.643,0.147
1.644,0.144
1.645,0.141
1.646,0.143
1.647,0.144
1.648,0.142
1.649,0.144
1.650,0.146
1.651,0.144
1.652,0.145
1.653,0.141
1.654,0.130
1.655,0.122
1.656,0.119
1.657,0.112
1.658,0.103
1.659,0.094
1.660,0.081
1.661,0.072
1.662,0.061
1.663,0.047
1.664,0.024
1.665,0.009
1.666,0.003
1.667,-0.006
1.668,-0.019
1.669,-0.028
1.670,-0.028
1.671,-0.041
1.672,-0.050
1.673,-0.063
1.674,-0.061
1.675,-0.063
1.676,-0.068
1.677,-0.069
1.678,-0.069
1.679,-0.066
1.680,-0.072
1.681,-0.075
1.682,-0.073
1.683,-0.075
1.684,-0.073
1.685,-0.081
1.686,-0.081
1.687,-0.081
1.688,-0.078
1.689,-0.078
1.690,-0.083
1.691,-0.088
1.692,-0.095
1.693,-0.106
1.694,-0.105
1.695,-0.103
1.696,-0.106
1.697,-0.106
1.698,-0.105
1.699,-0.103
1.700,-0.105
1.701,-0.100
1.702,-0.099
1.703,-0.100
1.704,-0.102
1.705,-0.097
1.706,-0.096
1.707,-0.094
1.708,-0.095
1.709,-0.097
1.710,-0.100
1.711,-0.103
1.712,-0.104
1.713,-0.106
1.714,-0.116
1.715,-0.125
1.716,-0.134
1.717,-0.150
1.718,-0.169
1.719,-0.187
1.720,-0.206
1.721,-0.225
1.722,-0.248
1.723,-0.272
1.724,-0.291
1.725,-0.303
1.726,-0.309
1.727,-0.316
1.728,-0.320
1.729,-0.319
1.730,-0.309
1.731,-0.297
1.732,-0.275
1.733,-0.247
1.734,-0.216
1.735,-0.184
1.736,-0.136
1.737,-0.078
1.738,-0.006
1.739,0.091
1.740,0.182
1.741,0.287
1.742,0.389
1.743,0.491
1.744,0.586
1.745,0.669
1.746,0.762
1.747,0.828
1.748,0.911
1.749,1.000
1.750,1.103
1.751,1.200
1.752,1.297
1.753,1.394
1.754,1.487
1.755,1.575
1.756,1.650
1.757,1.722
1.758,1.772
1.759,1.800
1.760,1.819
1.761,1.803
1.762,1.791
1.763,1.741
1.764,1.672
1.765,1.537
1.766,1.359
1.767,1.147
1.768,0.941
1.769,0.713
1.770,0.520
1.771,0.397
1.772,0.287
1.773,0.191
1.774,0.087
1.775,0.000
1.776,-0.075
1.777,-0.113
1.778,-0.141
1.779,-0.147
1.780,-0.150
1.781,-0.150
1.782,-0.148
1.783,-0.150
1.784,-0.143
1.785,-0.131
1.786,-0.125
1.787,-0.119
1.788,-0.111
1.789,-0.103
1.790,-0.100
1.791,-0.094
1.792,-0.091
1.793,-0.088
1.794,-0.081
1.795,-0.084
1.796,-0.091
1.797,-0.094
1.798,-0.096
1.799,-0.094
1.800,-0.088
1.801,-0.084
1.802,-0.083
1.803,-0.078
1.804,-0.078
1.805,-0.081
1.806,-0.080
1.807,-0.081
1.808,-0.081
1.809,-0.084
1.810,-0.089
1.811,-0.091
1.812,-0.100
1.813,-0.106
1.814,-0.106
1.815,-0.106
1.816,-0.106
1.817,-0.106
1.818,-0.113
1.819,-0.113
1.820,-0.117
1.821,-0.122
1.822,-0.122
1.823,-0.122
1.824,-0.125
1.825,-0.125
1.826,-0.129
1.827,-0.134
1.828,-0.131
1.829,-0.128
1.830,-0.121
1.831,-0.113
1.832,-0.116
1.833,-0.113
1.834,-0.120
1.835,-0.125
1.836,-0.122
1.837,-0.122
1.838,-0.122
1.839,-0.125
1.840,-0.127
1.841,-0.128
1.842,-0.130
1.843,-0.128
1.844,-0.125
1.845,-0.125
1.846,-0.127
1.847,-0.125
1.848,-0.118
1.849,-0.113
1.850,-0.111
1.851,-0.109
1.852,-0.114
1.853,-0.122
1.854,-0.122
1.855,-0.122
1.856,-0.125
1.857,-0.125
1.858,-0.127
1.859,-0.128
1.860,-0.125
1.861,-0.125
1.862,-0.128
1.863,-0.125
1.864,-0.128
1.865,-0.128
1.866,-0.126
1.867,-0.128
1.868,-0.122
1.869,-0.119
1.870,-0.116
1.871,-0.119
1.872,-0.114
1.873,-0.113
1.874,-0.111
1.875,-0.113
1.876,-0.114
1.877,-0.116
1.878,-0.113
1.879,-0.113
1.880,-0.116
1.881,-0.119
1.882,-0.120
1.883,-0.119
1.884,-0.119
1.885,-0.113
1.886,-0.108
1.887,-0.100
1.888,-0.097
1.889,-0.097
1.890,-0.097
1.891,-0.100
1.892,-0.103
1.893,-0.100
1.894,-0.096
1.895,-0.088
1.896,-0.089
1.897,-0.088
1.898,-0.094
1.899,-0.097
1.900,-0.097
1.901,-0.097
1.902,-0.089
1.903,-0.084
1.904,-0.084
1.905,-0.084
1.906,-0.086
1.907,-0.084
1.908,-0.086
1.909,-0.088
1.910,-0.089
1.911,-0.091
1.912,-0.092
1.913,-0.091
1.914,-0.086
1.915,-0.081
1.916,-0.080
1.917,-0.078
1.918,-0.083
1.919,-0.084
1.920,-0.089
1.921,-0.097
1.922,-0.086
1.923,-0.084
1.924,-0.083
1.925,-0.078
1.926,-0.075
1.927,-0.069
1.928,-0.058
1.929,-0.050
1.930,-0.054
1.931,-0.053
1.932,-0.053
1.933,-0.053
1.934,-0.056
1.935,-0.056
1.936,-0.057
1.937,-0.059
1.938,-0.057
1.939,-0.059
1.940,-0.057
1.941,-0.059
1.942,-0.058
1.943,-0.053
1.944,-0.053
1.945,-0.050
1.946,-0.053
1.947,-0.056
1.948,-0.055
1.949,-0.053
1.950,-0.054
1.951,-0.050
1.952,-0.047
1.953,-0.047
1.954,-0.046
1.955,-0.044
1.956,-0.042
1.957,-0.044
1.958,-0.045
1.959,-0.044
1.960,-0.043
1.961,-0.041
1.962,-0.041
1.963,-0.041
1.964,-0.047
1.965,-0.050
1.966,-0.051
1.967,-0.050
1.968,-0.050
1.969,-0.044
1.970,-0.048
1.971,-0.050
1.972,-0.050
1.973,-0.056
1.974,-0.056
1.975,-0.059
1.976,-0.063
1.977,-0.063
1.978,-0.061
1.979,-0.053
1.980,-0.052
1.981,-0.050
1.982,-0.049
1.983,-0.050
1.984,-0.053
1.985,-0.056
1.986,-0.053
1.987,-0.050
1.988,-0.050
1.989,-0.047
1.990,-0.047
1.991,-0.050
1.992,-0.051
1.993,-0.053
1.994,-0.056
1.995,-0.059
1.996,-0.061
1.997,-0.059
1.998,-0.061
1.999,-0.063
2.000,-0.058
2.001,-0.053
2.002,-0.050
2.003,-0.047
2.004,-0.047
2.005,-0.047
2.006,-0.039
2.007,-0.038
2.008,-0.036
2.009,-0.034
2.010,-0.029
2.011,-0.028
2.012,-0.025
2.013,-0.019
2.014,-0.020
2.015,-0.019
2.016,-0.019
2.017,-0.022
2.018,-0.021
2.019,-0.016
2.020,-0.014
2.021,-0.012
2.022,-0.011
2.023,-0.012
2.024,-0.016
2.025,-0.012
2.026,-0.011
2.027,-0.009
2.028,-0.012
2.029,-0.009
2.030,-0.016
2.031,-0.019
2.032,-0.021
2.033,-0.019
2.034,-0.016
2.035,-0.019
2.036,-0.014
2.037,-0.009
2.038,-0.008
2.039,-0.009
2.040,-0.011
2.041,-0.012
2.042,-0.020
2.043,-0.025
2.044,-0.028
2.045,-0.028
2.046,-0.034
2.047,-0.041
2.048,-0.045
2.049,-0.047
2.050,-0.043
2.051,-0.041
2.052,-0.039
2.053,-0.038
2.054,-0.039
2.055,-0.044
2.056,-0.047
2.057,-0.053
2.058,-0.055
2.059,-0.053
2.060,-0.056
2.061,-0.063
2.062,-0.064
2.063,-0.059
2.064,-0.056
2.065,-0.053
2.066,-0.059
2.067,-0.063
2.068,-0.067
2.069,-0.069
2.070,-0.066
2.071,-0.066
2.072,-0.064
2.073,-0.066
2.074,-0.070
2.075,-0.069
2.076,-0.068
2.077,-0.066
2.078,-0.066
2.079,-0.066
2.080,-0.064
2.081,-0.066
2.082,-0.069
2.083,-0.066
2.084,-0.063
2.085,-0.066
2.086,-0.067
2.087,-0.066
2.088,-0.069
2.089,-0.072
2.090,-0.073
2.091,-0.072
2.092,-0.068
2.093,-0.063
2.094,-0.056
2.095,-0.053
2.096,-0.056
2.097,-0.056
2.098,-0.056
2.099,-0.050
2.100,-0.051
2.101,-0.056
2.102,-0.059
2.103,-0.059
2.104,-0.058
2.105,-0.053
2.106,-0.054
2.107,-0.056
2.108,-0.054
2.109,-0.056
2.110,-0.056
2.111,-0.056
2.112,-0.057
2.113,-0.056
2.114,-0.053
2.115,-0.050
2.116,-0.052
2.117,-0.050
2.118,-0.047
2.119,-0.050
2.120,-0.054
2.121,-0.059
2.122,-0.059
2.123,-0.059
2.124,-0.056
2.125,-0.059
2.126,-0.059
2.127,-0.059
2.128,-0.051
2.129,-0.044
2.130,-0.043
2.131,-0.044
2.132,-0.046
2.133,-0.044
2.134,-0.048
2.135,-0.053
2.136,-0.050
2.137,-0.053
2.138,-0.056
2.139,-0.059
2.140,-0.061
2.141,-0.059
2.142,-0.064
2.143,-0.066
2.144,-0.068
2.145,-0.069
2.146,-0.069
2.147,-0.066
2.148,-0.064
2.149,-0.063
2.150,-0.064
2.151,-0.063
2.152,-0.064
2.153,-0.066
2.154,-0.066
2.155,-0.066
2.156,-0.070
2.157,-0.072
2.158,-0.070
2.159,-0.075
2.160,-0.074
2.161,-0.072
2.162,-0.071
2.163,-0.069
2.164,-0.072
2.165,-0.069
2.166,-0.072
2.167,-0.072
2.168,-0.075
2.169,-0.081
2.170,-0.084
2.171,-0.088
2.172,-0.084
2.173,-0.078
2.174,-0.077
2.175,-0.075
2.176,-0.078
2.177,-0.075
2.178,-0.075
2.179,-0.075
2.180,-0.078
2.181,-0.081
2.182,-0.083
2.183,-0.081
2.184,-0.081
2.185,-0.081
2.186,-0.084
2.187,-0.084
2.188,-0.088
2.189,-0.094
2.190,-0.096
2.191,-0.094
2.192,-0.089
2.193,-0.084
2.194,-0.089
2.195,-0.094
2.196,-0.092
2.197,-0.094
2.198,-0.088
2.199,-0.081
2.200,-0.084
2.201,-0.081
2.202,-0.074
2.203,-0.066
2.204,-0.059
2.205,-0.053
2.206,-0.047
2.207,-0.041
2.208,-0.041
2.209,-0.038
2.210,-0.025
2.211,-0.016
2.212,-0.002
2.213,0.009
2.214,0.016
2.215,0.019
2.216,0.017
2.217,0.016
2.218,0.016
2.219,0.009
2.220,0.005
2.221,0.006
2.222,0.006
2.223,0.006
2.224,0.016
2.225,0.025
2.226,0.034
2.227,0.041
2.228,0.053
2.229,0.069
2.230,0.086
2.231,0.100
2.232,0.114
2.233,0.125
2.234,0.130
2.235,0.131
2.236,0.145
2.237,0.153
2.238,0.159
2.239,0.166
2.240,0.166
2.241,0.166
2.242,0.164
2.243,0.163
2.244,0.157
2.245,0.150
2.246,0.142
2.247,0.134
2.248,0.129
2.249,0.128
2.250,0.129
2.251,0.128
2.252,0.124
2.253,0.125
2.254,0.122
2.255,0.112
2.256,0.112
2.257,0.116
2.258,0.112
2.259,0.109
2.260,0.102
2.261,0.091
2.262,0.086
2.263,0.081
2.264,0.076
2.265,0.072
2.266,0.061
2.267,0.044
2.268,0.030
2.269,0.016
2.270,0.001
2.271,-0.016
2.272,-0.024
2.273,-0.028
2.274,-0.041
2.275,-0.053
2.276,-0.067
2.277,-0.072
2.278,-0.083
2.279,-0.091
2.280,-0.096
2.281,-0.094
2.282,-0.099
2.283,-0.103
2.284,-0.099
2.285,-0.097
2.286,-0.100
2.287,-0.109
2.288,-0.119
2.289,-0.119
2.290,-0.122
2.291,-0.122
2.292,-0.127
2.293,-0.125
2.294,-0.124
2.295,-0.122
2.296,-0.128
2.297,-0.131
2.298,-0.131
2.299,-0.131
2.300,-0.131
2.301,-0.128
2.302,-0.127
2.303,-0.128
2.304,-0.128
2.305,-0.128
2.306,-0.133
2.307,-0.141
2.308,-0.142
2.309,-0.147
2.310,-0.144
2.311,-0.141
2.312,-0.136
2.313,-0.134
2.314,-0.136
2.315,-0.134
2.316,-0.136
2.317,-0.144
2.318,-0.150
2.319,-0.150
2.320,-0.150
2.321,-0.156
2.322,-0.158
2.323,-0.159
2.324,-0.169
2.325,-0.181
2.326,-0.197
2.327,-0.216
2.328,-0.238
2.329,-0.259
2.330,-0.278
2.331,-0.297
2.332,-0.303
2.333,-0.306
2.334,-0.309
2.335,-0.303
2.336,-0.301
2.337,-0.300
2.338,-0.289
2.339,-0.269
2.340,-0.244
2.341,-0.216
2.342,-0.177
2.343,-0.131
2.344,-0.078
2.345,-0.016
2.346,0.062
2.347,0.144
2.348,0.247
2.349,0.356
2.350,0.466
2.351,0.578
2.352,0.668
2.353,0.759
2.354,0.828
2.355,0.903
2.356,0.995
2.357,1.097
2.358,1.191
2.359,1.291
2.360,1.382
2.361,1.478
2.362,1.578
2.363,1.666
2.364,1.737
2.365,1.800
2.366,1.839
2.367,1.872
2.368,1.871
2.369,1.859
2.370,1.811
2.371,1.759
2.372,1.637
2.373,1.503
2.374,1.314
2.375,1.091
2.376,0.872
2.377,0.634
2.378,0.481
2.379,0.353
2.380,0.214
2.381,0.094
2.382,-0.004
2.383,-0.091
2.384,-0.136
2.385,-0.169
2.386,-0.177
2.387,-0.175
2.388,-0.174
2.389,-0.169
2.390,-0.172
2.391,-0.169
2.392,-0.158
2.393,-0.150
2.394,-0.144
2.395,-0.138
2.396,-0.136
2.397,-0.134
2.398,-0.121
2.399,-0.113
2.400,-0.114
2.401,-0.109
2.402,-0.106
2.403,-0.106
2.404,-0.102
2.405,-0.103
2.406,-0.108
2.407,-0.106
2.408,-0.106
2.409,-0.109
2.410,-0.111
2.411,-0.116
2.412,-0.123
2.413,-0.125
2.414,-0.127
2.415,-0.128
2.416,-0.133
2.417,-0.134
2.418,-0.136
2.419,-0.141
2.420,-0.138
2.421,-0.134
2.422,-0.138
2.423,-0.141
2.424,-0.139
2.425,-0.144
2.426,-0.143
2.427,-0.141
2.428,-0.141
2.429,-0.141
2.430,-0.141
2.431,-0.144
2.432,-0.145
2.433,-0.147
2.434,-0.148
2.435,-0.150
2.436,-0.151
2.437,-0.153
2.438,-0.156
2.439,-0.163
2.440,-0.159
2.441,-0.159
2.442,-0.156
2.443,-0.153
2.444,-0.152
2.445,-0.150
2.446,-0.152
2.447,-0.153
2.448,-0.156
2.449,-0.159
2.450,-0.156
2.451,-0.150
2.452,-0.147
2.453,-0.147
2.454,-0.148
2.455,-0.147
2.456,-0.147
2.457,-0.147
2.458,-0.148
2.459,-0.147
2.460,-0.147
2.461,-0.147
2.462,-0.147
2.463,-0.147
2.464,-0.143
2.465,-0.144
2.466,-0.153
2.467,-0.156
2.468,-0.156
2.469,-0.159
2.470,-0.153
2.471,-0.150
2.472,-0.148
2.473,-0.147
2.474,-0.148
2.475,-0.150
2.476,-0.154
2.477,-0.153
2.478,-0.156
2.479,-0.153
2.480,-0.152
2.481,-0.147
2.482,-0.147
2.483,-0.147
2.484,-0.148
2.485,-0.147
2.486,-0.146
2.487,-0.144
2.488,-0.144
2.489,-0.144
2.490,-0.142
2.491,-0.147
2.492,-0.144
2.493,-0.144
2.494,-0.142
2.495,-0.141
2.496,-0.138
2.497,-0.131
2.498,-0.130
2.499,-0.131
2.500,-0.128
2.501,-0.128
2.502,-0.124
2.503,-0.125
2.504,-0.126
2.505,-0.128
2.506,-0.126
2.507,-0.125
2.508,-0.123
2.509,-0.122
2.510,-0.123
2.511,-0.125
2.512,-0.128
2.513,-0.128
2.514,-0.121
2.515,-0.119
2.516,-0.113
2.517,-0.106
2.518,-0.105
2.519,-0.103
2.520,-0.103
2.521,-0.103
2.522,-0.101
2.523,-0.103
2.524,-0.100
2.525,-0.097
2.526,-0.097
2.527,-0.097
2.528,-0.098
2.529,-0.094
2.530,-0.097
2.531,-0.097
2.532,-0.094
2.533,-0.094
2.534,-0.094
2.535,-0.094
2.536,-0.089
2.537,-0.084
2.538,-0.077
2.539,-0.075
2.540,-0.079
2.541,-0.084
2.542,-0.083
2.543,-0.084
2.544,-0.084
2.545,-0.078
2.546,-0.072
2.547,-0.066
2.548,-0.072
2.549,-0.078
2.550,-0.079
2.551,-0.084
2.552,-0.078
2.553,-0.075
2.554,-0.069
2.555,-0.063
2.556,-0.059
2.557,-0.056
2.558,-0.049
2.559,-0.044
2.560,-0.043
2.561,-0.041
2.562,-0.044
2.563,-0.044
2.564,-0.041
2.565,-0.038
2.566,-0.042
2.567,-0.050
2.568,-0.050
2.569,-0.050
2.570,-0.047
2.571,-0.044
2.572,-0.041
2.573,-0.041
2.574,-0.044
2.575,-0.053
2.576,-0.054
2.577,-0.059
2.578,-0.056
2.579,-0.053
2.580,-0.053
2.581,-0.050
2.582,-0.050
2.583,-0.050
2.584,-0.050
2.585,-0.050
2.586,-0.045
2.587,-0.047
2.588,-0.047
2.589,-0.047
2.590,-0.050
2.591,-0.050
2.592,-0.050
2.593,-0.050
2.594,-0.051
2.595,-0.053
2.596,-0.053
2.597,-0.053
2.598,-0.053
2.599,-0.053
2.600,-0.052
2.601,-0.050
2.602,-0.046
2.603,-0.041
2.604,-0.039
2.605,-0.041
2.606,-0.041
2.607,-0.041
2.608,-0.041
2.609,-0.041
2.610,-0.044
2.611,-0.044
2.612,-0.042
2.613,-0.041
2.614,-0.041
2.615,-0.038
2.616,-0.039
2.617,-0.034
2.618,-0.028
2.619,-0.025
2.620,-0.023
2.621,-0.025
2.622,-0.022
2.623,-0.019
2.624,-0.020
2.625,-0.022
2.626,-0.019
2.627,-0.019
2.628,-0.019
2.629,-0.019
2.630,-0.021
2.631,-0.019
2.632,-0.017
2.633,-0.019
2.634,-0.014
2.635,-0.019
2.636,-0.016
2.637,-0.016
2.638,-0.017
2.639,-0.022
2.640,-0.023
2.641,-0.022
2.642,-0.019
2.643,-0.016
2.644,-0.019
2.645,-0.019
2.646,-0.019
2.647,-0.019
2.648,-0.022
2.649,-0.025
2.650,-0.026
2.651,-0.031
2.652,-0.031
2.653,-0.038
2.654,-0.044
2.655,-0.047
2.656,-0.048
2.657,-0.050
2.658,-0.050
2.659,-0.050
2.660,-0.056
2.661,-0.059
2.662,-0.067
2.663,-0.072
2.664,-0.074
2.665,-0.075
2.666,-0.072
2.667,-0.069
2.668,-0.066
2.669,-0.066
2.670,-0.064
2.671,-0.066
2.672,-0.072
2.673,-0.078
2.674,-0.078
2.675,-0.081
2.676,-0.081
2.677,-0.081
2.678,-0.083
2.679,-0.081
2.680,-0.078
2.681,-0.075
2.682,-0.078
2.683,-0.084
2.684,-0.088
2.685,-0.091
2.686,-0.092
2.687,-0.094
2.688,-0.097
2.689,-0.100
2.690,-0.097
2.691,-0.094
2.692,-0.093
2.693,-0.088
2.694,-0.084
2.695,-0.084
2.696,-0.083
2.697,-0.081
2.698,-0.078
2.699,-0.078
2.700,-0.075
2.701,-0.069
2.702,-0.068
2.703,-0.069
2.704,-0.072
2.705,-0.075
2.706,-0.064
2.707,-0.059
2.708,-0.066
2.709,-0.069
2.710,-0.072
2.711,-0.081
2.712,-0.083
2.713,-0.084
2.714,-0.084
2.715,-0.081
2.716,-0.074
2.717,-0.063
2.718,-0.056
2.719,-0.053
2.720,-0.050
2.721,-0.050
2.722,-0.049
2.723,-0.050
2.724,-0.051
2.725,-0.050
2.726,-0.061
2.727,-0.069
2.728,-0.069
2.729,-0.069
2.730,-0.066
2.731,-0.059
2.732,-0.059
2.733,-0.056
2.734,-0.057
2.735,-0.056
2.736,-0.056
2.737,-0.056
2.738,-0.064
2.739,-0.066
2.740,-0.068
2.741,-0.066
2.742,-0.066
2.743,-0.063
2.744,-0.058
2.745,-0.056
2.746,-0.056
2.747,-0.053
2.748,-0.057
2.749,-0.059
2.750,-0.063
2.751,-0.063
2.752,-0.056
2.753,-0.053
2.754,-0.052
2.755,-0.050
2.756,-0.051
2.757,-0.056
2.758,-0.069
2.759,-0.075
2.760,-0.081
2.761,-0.084
2.762,-0.081
2.763,-0.078
2.764,-0.071
2.765,-0.069
2.766,-0.068
2.767,-0.069
2.768,-0.073
2.769,-0.075
2.770,-0.073
2.771,-0.075
2.772,-0.076
2.773,-0.081
2.774,-0.072
2.775,-0.066
2.776,-0.069
2.777,-0.069
2.778,-0.070
2.779,-0.072
2.780,-0.072
2.781,-0.072
2.782,-0.074
2.783,-0.072
2.784,-0.071
2.785,-0.069
2.786,-0.069
2.787,-0.072
2.788,-0.075
2.789,-0.084
2.790,-0.083
2.791,-0.081
2.792,-0.084
2.793,-0.084
2.794,-0.084
2.795,-0.088
2.796,-0.091
2.797,-0.094
2.798,-0.091
2.799,-0.091
2.800,-0.086
2.801,-0.084
2.802,-0.081
2.803,-0.078
2.804,-0.078
2.805,-0.081
2.806,-0.088
2.807,-0.094
2.808,-0.095
2.809,-0.100
2.810,-0.099
2.811,-0.094
2.812,-0.091
2.813,-0.091
2.814,-0.091
2.815,-0.091
2.816,-0.094
2.817,-0.097
2.818,-0.097
2.819,-0.094
2.820,-0.094
2.821,-0.091
2.822,-0.089
2.823,-0.091
2.824,-0.084
2.825,-0.078
2.826,-0.071
2.827,-0.063
2.828,-0.057
2.829,-0.050
2.830,-0.039
2.831,-0.034
2.832,-0.027
2.833,-0.019
2.834,-0.014
2.835,-0.006
2.836,-0.004
2.837,0.000
2.838,0.006
2.839,0.009
2.840,0.009
2.841,0.009
2.842,0.004
2.843,0.003
2.844,0.005
2.845,0.009
2.846,0.019
2.847,0.031
2.848,0.039
2.849,0.047
2.850,0.053
2.851,0.062
2.852,0.075
2.853,0.091
2.854,0.102
2.855,0.112
2.856,0.117
2.857,0.125
2.858,0.133
2.859,0.144
2.860,0.151
2.861,0.159
2.862,0.167
2.863,0.172
2.864,0.178
2.865,0.178
2.866,0.179
2.867,0.178
2.868,0.169
2.869,0.159
2.870,0.146
2.871,0.134
2.872,0.132
2.873,0.134
2.874,0.131
2.875,0.128
2.876,0.128
2.877,0.128
2.878,0.131
2.879,0.137
2.880,0.141
2.881,0.141
2.882,0.137
2.883,0.128
2.884,0.120
2.885,0.116
2.886,0.108
2.887,0.097
2.888,0.086
2.889,0.075
2.890,0.059
2.891,0.047
2.892,0.041
2.893,0.031
2.894,0.009
2.895,-0.003
2.896,-0.014
2.897,-0.028
2.898,-0.042
2.899,-0.053
2.900,-0.050
2.901,-0.059
2.902,-0.059
2.903,-0.063
2.904,-0.061
2.905,-0.063
2.906,-0.064
2.907,-0.063
2.908,-0.068
2.909,-0.069
2.910,-0.078
2.911,-0.084
2.912,-0.089
2.913,-0.097
2.914,-0.094
2.915,-0.100
2.916,-0.100
2.917,-0.100
2.918,-0.100
2.919,-0.103
2.920,-0.104
2.921,-0.106
2.922,-0.109
2.923,-0.116
2.924,-0.117
2.925,-0.119
2.926,-0.121
2.927,-0.119
2.928,-0.114
2.929,-0.109
2.930,-0.113
2.931,-0.109
2.932,-0.108
2.933,-0.109
2.934,-0.114
2.935,-0.113
2.936,-0.113
2.937,-0.113
2.938,-0.113
2.939,-0.113
2.940,-0.113
2.941,-0.113
2.942,-0.111
2.943,-0.109
2.944,-0.116
2.945,-0.122
2.946,-0.125
2.947,-0.134
2.948,-0.147
2.949,-0.159
2.950,-0.178
2.951,-0.197
2.952,-0.211
2.953,-0.225
2.954,-0.245
2.955,-0.259
2.956,-0.266
2.957,-0.272
2.958,-0.273
2.959,-0.269
2.960,-0.266
2.961,-0.259
2.962,-0.227
2.963,-0.187
2.964,-0.149
2.965,-0.109
2.966,-0.069
2.967,-0.019
2.968,0.044
2.969,0.131
2.970,0.220
2.971,0.322
2.972,0.425
2.973,0.528
2.974,0.636
2.975,0.731
2.976,0.821
2.977,0.881
2.978,0.964
2.979,1.053
2.980,1.153
2.981,1.247
2.982,1.342
2.983,1.438
2.984,1.531
2.985,1.619
2.986,1.700
2.987,1.778
2.988,1.839
2.989,1.878
2.990,1.914
2.991,1.916
2.992,1.902
2.993,1.850
2.994,1.801
2.995,1.687
2.996,1.541
2.997,1.359
2.998,1.152
2.999,0.922
3.000,0.695
3.001,0.538
3.002,0.394
3.003,0.262
3.004,0.139
3.005,0.031
3.006,-0.056
3.007,-0.106
3.008,-0.142
3.009,-0.156
3.010,-0.161
3.011,-0.163
3.012,-0.149
3.013,-0.138
3.014,-0.131
3.015,-0.122
3.016,-0.113
3.017,-0.103
3.018,-0.093
3.019,-0.081
3.020,-0.078
3.021,-0.072
3.022,-0.073
3.023,-0.075
3.024,-0.066
3.025,-0.066
3.026,-0.066
3.027,-0.063
3.028,-0.073
3.029,-0.081
3.030,-0.083
3.031,-0.088
3.032,-0.091
3.033,-0.091
3.034,-0.084
3.035,-0.081
3.036,-0.081
3.037,-0.084
3.038,-0.088
3.039,-0.094
3.040,-0.101
3.041,-0.106
3.042,-0.111
3.043,-0.113
3.044,-0.116
3.045,-0.119
3.046,-0.119
3.047,-0.119
3.048,-0.124
3.049,-0.122
3.050,-0.122
3.051,-0.122
3.052,-0.119
3.053,-0.116
3.054,-0.120
3.055,-0.122
3.056,-0.119
3.057,-0.116
3.058,-0.116
3.059,-0.116
3.060,-0.116
3.061,-0.116
3.062,-0.120
3.063,-0.119
3.064,-0.118
3.065,-0.113
3.066,-0.111
3.067,-0.113
3.068,-0.114
3.069,-0.119
3.070,-0.123
3.071,-0.128
3.072,-0.130
3.073,-0.128
3.074,-0.121
3.075,-0.116
3.076,-0.116
3.077,-0.113
3.078,-0.113
3.079,-0.116
3.080,-0.119
3.081,-0.122
3.082,-0.118
3.083,-0.116
3.084,-0.114
3.085,-0.113
3.086,-0.114
3.087,-0.113
3.088,-0.116
3.089,-0.119
3.090,-0.116
3.091,-0.116
3.092,-0.118
3.093,-0.113
3.094,-0.111
3.095,-0.106
3.096,-0.104
3.097,-0.106
3.098,-0.106
3.099,-0.109
3.100,-0.113
3.101,-0.122
3.102,-0.120
3.103,-0.122
3.104,-0.113
3.105,-0.106
3.106,-0.105
3.107,-0.103
3.108,-0.101
3.109,-0.103
3.110,-0.099
3.111,-0.094
3.112,-0.097
3.113,-0.097
3.114,-0.101
3.115,-0.100
3.116,-0.101
3.117,-0.100
3.118,-0.100
3.119,-0.103
3.120,-0.101
3.121,-0.103
3.122,-0.108
3.123,-0.106
3.124,-0.103
3.125,-0.097
3.126,-0.094
3.127,-0.088
3.128,-0.089
3.129,-0.088
3.130,-0.086
3.131,-0.084
3.132,-0.083
3.133,-0.084
3.134,-0.084
3.135,-0.084
3.136,-0.083
3.137,-0.078
3.138,-0.079
3.139,-0.081
3.140,-0.077
3.141,-0.072
3.142,-0.073
3.143,-0.072
3.144,-0.069
3.145,-0.066
3.146,-0.059
3.147,-0.053
3.148,-0.054
3.149,-0.053
3.150,-0.049
3.151,-0.047
3.152,-0.039
3.153,-0.041
3.154,-0.047
3.155,-0.050
3.156,-0.050
3.157,-0.047
3.158,-0.041
3.159,-0.038
3.160,-0.042
3.161,-0.041
3.162,-0.044
3.163,-0.047
3.164,-0.044
3.165,-0.038
3.166,-0.036
3.167,-0.034
3.168,-0.027
3.169,-0.022
3.170,-0.025
3.171,-0.031
3.172,-0.030
3.173,-0.025
3.174,-0.025
3.175,-0.022
3.176,-0.022
3.177,-0.022
3.178,-0.019
3.179,-0.016
3.180,-0.019
3.181,-0.016
3.182,-0.014
3.183,-0.016
3.184,-0.012
3.185,-0.009
3.186,-0.008
3.187,-0.009
3.188,-0.011
3.189,-0.009
3.190,-0.012
3.191,-0.016
3.192,-0.016
3.193,-0.016
3.194,-0.011
3.195,-0.003
3.196,0.000
3.197,0.006
3.198,-0.001
3.199,-0.003
3.200,-0.004
3.201,-0.003
3.202,0.001
3.203,0.000
3.204,0.001
3.205,0.000
3.206,-0.002
3.207,0.000
3.208,-0.004
3.209,-0.003
3.210,-0.004
3.211,-0.006
3.212,-0.006
3.213,-0.009
3.214,-0.006
3.215,-0.003
3.216,-0.004
3.217,-0.006
3.218,-0.006
3.219,-0.003
3.220,0.000
3.221,0.000
3.222,-0.001
3.223,-0.003
3.224,-0.002
3.225,0.000
3.226,0.003
3.227,0.009
3.228,0.009
3.229,0.009
3.230,0.009
3.231,0.009
3.232,0.006
3.233,0.003
3.234,0.003
3.235,0.003
3.236,0.007
3.237,0.006
3.238,0.006
3.239,0.006
3.240,0.009
3.241,0.009
3.242,0.009
3.243,0.012
3.244,0.014
3.245,0.019
3.246,0.022
3.247,0.022
3.248,0.022
3.249,0.025
3.250,0.029
3.251,0.034
3.252,0.037
3.253,0.037
3.254,0.028
3.255,0.025
3.256,0.027
3.257,0.028
3.258,0.026
3.259,0.031
3.260,0.029
3.261,0.031
3.262,0.031
3.263,0.034
3.264,0.036
3.265,0.031
3.266,0.021
3.267,0.009
3.268,0.014
3.269,0.016
3.270,0.016
3.271,0.016
3.272,0.014
3.273,0.016
3.274,0.009
3.275,0.006
3.276,0.000
3.277,-0.006
3.278,-0.011
3.279,-0.012
3.280,-0.011
3.281,-0.012
3.282,-0.012
3.283,-0.012
3.284,-0.011
3.285,-0.012
3.286,-0.011
3.287,-0.012
3.288,-0.022
3.289,-0.028
3.290,-0.027
3.291,-0.028
3.292,-0.034
3.293,-0.034
3.294,-0.034
3.295,-0.034
3.296,-0.034
3.297,-0.031
3.298,-0.038
3.299,-0.041
3.300,-0.041
3.301,-0.044
3.302,-0.041
3.303,-0.041
3.304,-0.051
3.305,-0.056
3.306,-0.056
3.307,-0.056
3.308,-0.055
3.309,-0.053
3.310,-0.052
3.311,-0.053
3.312,-0.057
3.313,-0.056
3.314,-0.054
3.315,-0.059
3.316,-0.061
3.317,-0.059
3.318,-0.056
3.319,-0.053
3.320,-0.053
3.321,-0.050
3.322,-0.047
3.323,-0.044
3.324,-0.039
3.325,-0.038
3.326,-0.038
3.327,-0.034
3.328,-0.034
3.329,-0.028
3.330,-0.027
3.331,-0.028
3.332,-0.029
3.333,-0.028
3.334,-0.036
3.335,-0.041
3.336,-0.044
3.337,-0.047
3.338,-0.047
3.339,-0.050
3.340,-0.050
3.341,-0.050
3.342,-0.049
3.343,-0.044
3.344,-0.039
3.345,-0.034
3.346,-0.036
3.347,-0.034
3.348,-0.031
3.349,-0.034
3.350,-0.031
3.351,-0.028
3.352,-0.025
3.353,-0.022
3.354,-0.022
3.355,-0.028
3.356,-0.029
3.357,-0.031
3.358,-0.031
3.359,-0.031
3.360,-0.034
3.361,-0.047
3.362,-0.048
3.363,-0.053
3.364,-0.052
3.365,-0.053
3.366,-0.050
3.367,-0.044
3.368,-0.036
3.369,-0.028
3.370,-0.025
3.371,-0.028
3.372,-0.028
3.373,-0.028
3.374,-0.028
3.375,-0.028
3.376,-0.031
3.377,-0.031
3.378,-0.031
3.379,-0.038
3.380,-0.041
3.381,-0.044
3.382,-0.048
3.383,-0.053
3.384,-0.049
3.385,-0.050
3.386,-0.053
3.387,-0.053
3.388,-0.056
3.389,-0.063
3.390,-0.066
3.391,-0.066
3.392,-0.063
3.393,-0.063
3.394,-0.059
3.395,-0.056
3.396,-0.055
3.397,-0.056
3.398,-0.059
3.399,-0.056
3.400,-0.053
3.401,-0.047
3.402,-0.048
3.403,-0.050
3.404,-0.047
3.405,-0.050
3.406,-0.053
3.407,-0.059
3.408,-0.067
3.409,-0.072
3.410,-0.070
3.411,-0.072
3.412,-0.073
3.413,-0.078
3.414,-0.075
3.415,-0.075
3.416,-0.077
3.417,-0.075
3.418,-0.079
3.419,-0.084
3.420,-0.083
3.421,-0.081
3.422,-0.083
3.423,-0.081
3.424,-0.081
3.425,-0.081
3.426,-0.081
3.427,-0.084
3.428,-0.078
3.429,-0.078
3.430,-0.078
3.431,-0.078
3.432,-0.084
3.433,-0.088
3.434,-0.091
3.435,-0.097
3.436,-0.091
3.437,-0.084
3.438,-0.084
3.439,-0.088
3.440,-0.086
3.441,-0.088
3.442,-0.091
3.443,-0.094
3.444,-0.093
3.445,-0.094
3.446,-0.094
3.447,-0.094
3.448,-0.095
3.449,-0.100
3.450,-0.097
3.451,-0.091
3.452,-0.088
3.453,-0.088
3.454,-0.091
3.455,-0.094
3.456,-0.094
3.457,-0.094
3.458,-0.100
3.459,-0.103
3.460,-0.104
3.461,-0.103
3.462,-0.103
3.463,-0.106
3.464,-0.100
3.465,-0.094
3.466,-0.080
3.467,-0.066
3.468,-0.061
3.469,-0.053
3.470,-0.043
3.471,-0.038
3.472,-0.028
3.473,-0.019
3.474,-0.016
3.475,-0.009
3.476,-0.012
3.477,-0.012
3.478,-0.006
3.479,-0.003
3.480,-0.002
3.481,0.000
3.482,-0.006
3.483,-0.009
3.484,-0.008
3.485,-0.003
3.486,0.002
3.487,0.009
3.488,0.017
3.489,0.025
3.490,0.037
3.491,0.053
3.492,0.062
3.493,0.075
3.494,0.083
3.495,0.091
3.496,0.096
3.497,0.103
3.498,0.109
3.499,0.119
3.500,0.128
3.501,0.137
3.502,0.145
3.503,0.150
3.504,0.161
3.505,0.166
3.506,0.170
3.507,0.172
3.508,0.156
3.509,0.141
3.510,0.125
3.511,0.112
3.512,0.108
3.513,0.106
3.514,0.097
3.515,0.087
3.516,0.087
3.517,0.087
3.518,0.095
3.519,0.106
3.520,0.111
3.521,0.112
3.522,0.117
3.523,0.116
3.524,0.106
3.525,0.100
3.526,0.098
3.527,0.094
3.528,0.084
3.529,0.075
3.530,0.052
3.531,0.031
3.532,0.022
3.533,0.009
3.534,-0.008
3.535,-0.016
3.536,-0.019
3.537,-0.025
3.538,-0.039
3.539,-0.050
3.540,-0.050
3.541,-0.063
3.542,-0.068
3.543,-0.075
3.544,-0.078
3.545,-0.084
3.546,-0.089
3.547,-0.091
3.548,-0.093
3.549,-0.091
3.550,-0.104
3.551,-0.116
3.552,-0.122
3.553,-0.131
3.554,-0.134
3.555,-0.147
3.556,-0.144
3.557,-0.141
3.558,-0.134
3.559,-0.131
3.560,-0.125
3.561,-0.119
3.562,-0.118
3.563,-0.119
3.564,-0.125
3.565,-0.131
3.566,-0.133
3.567,-0.131
3.568,-0.130
3.569,-0.128
3.570,-0.133
3.571,-0.131
3.572,-0.133
3.573,-0.138
3.574,-0.141
3.575,-0.138
3.576,-0.138
3.577,-0.138
3.578,-0.136
3.579,-0.134
3.580,-0.136
3.581,-0.138
3.582,-0.134
3.583,-0.131
3.584,-0.133
3.585,-0.134
3.586,-0.131
3.587,-0.134
3.588,-0.147
3.589,-0.159
3.590,-0.179
3.591,-0.200
3.592,-0.214
3.593,-0.228
3.594,-0.244
3.595,-0.253
3.596,-0.261
3.597,-0.269
3.598,-0.270
3.599,-0.266
3.600,-0.261
3.601,-0.253
3.602,-0.228
3.603,-0.197
3.604,-0.161
3.605,-0.125
3.606,-0.088
3.607,-0.041
3.608,0.014
3.609,0.094
3.610,0.169
3.611,0.256
3.612,0.364
3.613,0.472
3.614,0.589
3.615,0.694
3.616,0.792
3.617,0.862
3.618,0.931
3.619,1.006
3.620,1.101
3.621,1.191
3.622,1.283
3.623,1.375
3.624,1.475
3.625,1.569
3.626,1.651
3.627,1.731
3.628,1.798
3.629,1.844
3.630,1.882
3.631,1.887
3.632,1.879
3.633,1.834
3.634,1.791
3.635,1.681
3.636,1.562
3.637,1.409
3.638,1.208
3.639,0.984
3.640,0.741
3.641,0.566
3.642,0.416
3.643,0.278
3.644,0.144
3.645,0.025
3.646,-0.069
3.647,-0.125
3.648,-0.158
3.649,-0.169
3.650,-0.178
3.651,-0.184
3.652,-0.181
3.653,-0.181
3.654,-0.175
3.655,-0.166
3.656,-0.156
3.657,-0.147
3.658,-0.136
3.659,-0.125
3.660,-0.123
3.661,-0.119
3.662,-0.111
3.663,-0.103
3.664,-0.095
3.665,-0.097
3.666,-0.101
3.667,-0.103
3.668,-0.109
3.669,-0.113
3.670,-0.109
3.671,-0.109
3.672,-0.111
3.673,-0.109
3.674,-0.111
3.675,-0.116
3.676,-0.116
3.677,-0.119
3.678,-0.123
3.679,-0.131
3.680,-0.136
3.681,-0.138
3.682,-0.141
3.683,-0.141
3.684,-0.142
3.685,-0.144
3.686,-0.147
3.687,-0.150
3.688,-0.156
3.689,-0.156
3.690,-0.150
3.691,-0.144
3.692,-0.148
3.693,-0.153
3.694,-0.159
3.695,-0.163
3.696,-0.164
3.697,-0.166
3.698,-0.161
3.699,-0.156
3.700,-0.153
3.701,-0.150
3.702,-0.150
3.703,-0.144
3.704,-0.147
3.705,-0.147
3.706,-0.145
3.707,-0.147
3.708,-0.148
3.709,-0.153
3.710,-0.153
3.711,-0.153
3.712,-0.155
3.713,-0.153
3.714,-0.149
3.715,-0.147
3.716,-0.150
3.717,-0.150
3.718,-0.150
3.719,-0.153
3.720,-0.163
3.721,-0.172
3.722,-0.169
3.723,-0.169
3.724,-0.161
3.725,-0.153
3.726,-0.152
3.727,-0.147
3.728,-0.150
3.729,-0.153
3.730,-0.149
3.731,-0.147
3.732,-0.150
3.733,-0.147
3.734,-0.150
3.735,-0.150
3.736,-0.144
3.737,-0.141
3.738,-0.141
3.739,-0.144
3.740,-0.141
3.741,-0.144
3.742,-0.144
3.743,-0.147
3.744,-0.145
3.745,-0.147
3.746,-0.148
3.747,-0.150
3.748,-0.147
3.749,-0.147
3.750,-0.143
3.751,-0.138
3.752,-0.136
3.753,-0.131
3.754,-0.134
3.755,-0.131
3.756,-0.131
3.757,-0.128
3.758,-0.125
3.759,-0.125
3.760,-0.123
3.761,-0.125
3.762,-0.128
3.763,-0.125
3.764,-0.125
3.765,-0.122
3.766,-0.122
3.767,-0.119
3.768,-0.119
3.769,-0.116
3.770,-0.116
3.771,-0.116
3.772,-0.114
3.773,-0.116
3.774,-0.119
3.775,-0.122
3.776,-0.119
3.777,-0.113
3.778,-0.105
3.779,-0.097
3.780,-0.096
3.781,-0.094
3.782,-0.100
3.783,-0.103
3.784,-0.104
3.785,-0.106
3.786,-0.106
3.787,-0.106
3.788,-0.108
3.789,-0.106
3.790,-0.099
3.791,-0.094
3.792,-0.088
3.793,-0.091
3.794,-0.091
3.795,-0.088
3.796,-0.083
3.797,-0.075
3.798,-0.072
3.799,-0.072
3.800,-0.069
3.801,-0.059
3.802,-0.061
3.803,-0.063
3.804,-0.064
3.805,-0.063
3.806,-0.059
3.807,-0.056
3.808,-0.049
3.809,-0.044
3.810,-0.045
3.811,-0.050
3.812,-0.051
3.813,-0.050
3.814,-0.053
3.815,-0.053
3.816,-0.053
3.817,-0.053
3.818,-0.052
3.819,-0.050
3.820,-0.051
3.821,-0.047
3.822,-0.039
3.823,-0.034
3.824,-0.036
3.825,-0.038
3.826,-0.034
3.827,-0.034
3.828,-0.036
3.829,-0.034
3.830,-0.033
3.831,-0.031
3.832,-0.030
3.833,-0.028
3.834,-0.024
3.835,-0.016
3.836,-0.020
3.837,-0.022
3.838,-0.028
3.839,-0.028
3.840,-0.031
3.841,-0.031
3.842,-0.028
3.843,-0.031
3.844,-0.028
3.845,-0.028
3.846,-0.028
3.847,-0.025
3.848,-0.028
3.849,-0.025
3.850,-0.025
3.851,-0.025
3.852,-0.019
3.853,-0.016
3.854,-0.023
3.855,-0.031
3.856,-0.031
3.857,-0.031
3.858,-0.030
3.859,-0.025
3.860,-0.021
3.861,-0.019
3.862,-0.019
3.863,-0.019
3.864,-0.023
3.865,-0.028
3.866,-0.031
3.867,-0.031
3.868,-0.028
3.869,-0.025
3.870,-0.022
3.871,-0.019
3.872,-0.019
3.873,-0.019
3.874,-0.016
3.875,-0.012
3.876,-0.009
3.877,-0.012
3.878,-0.016
3.879,-0.019
3.880,-0.014
3.881,-0.012
3.882,-0.012
3.883,-0.009
3.884,-0.005
3.885,0.003
3.886,0.006
3.887,0.006
3.888,0.007
3.889,0.012
3.890,0.012
3.891,0.012
3.892,0.011
3.893,0.006
3.894,0.006
3.895,0.012
3.896,0.019
3.897,0.025
3.898,0.020
3.899,0.022
3.900,0.017
3.901,0.016
3.902,0.011
3.903,0.009
3.904,0.009
3.905,0.003
3.906,0.003
3.907,0.003
3.908,0.002
3.909,-0.003
3.910,-0.008
3.911,-0.012
3.912,-0.016
3.913,-0.016
3.914,-0.011
3.915,-0.003
3.916,-0.006
3.917,-0.009
3.918,-0.022
3.919,-0.031
3.920,-0.036
3.921,-0.044
3.922,-0.041
3.923,-0.038
3.924,-0.031
3.925,-0.028
3.926,-0.028
3.927,-0.031
3.928,-0.039
3.929,-0.044
3.930,-0.045
3.931,-0.050
3.932,-0.059
3.933,-0.063
3.934,-0.067
3.935,-0.072
3.936,-0.078
3.937,-0.081
3.938,-0.083
3.939,-0.081
3.940,-0.074
3.941,-0.069
3.942,-0.066
3.943,-0.066
3.944,-0.069
3.945,-0.066
3.946,-0.066
3.947,-0.066
3.948,-0.066
3.949,-0.066
3.950,-0.069
3.951,-0.075
3.952,-0.077
3.953,-0.072
3.954,-0.068
3.955,-0.069
3.956,-0.073
3.957,-0.075
3.958,-0.075
3.959,-0.075
3.960,-0.072
3.961,-0.066
3.962,-0.067
3.963,-0.069
3.964,-0.070
3.965,-0.075
3.966,-0.075
3.967,-0.072
3.968,-0.072
3.969,-0.066
3.970,-0.067
3.971,-0.072
3.972,-0.072
3.973,-0.069
3.974,-0.072
3.975,-0.072
3.976,-0.072
3.977,-0.072
3.978,-0.069
3.979,-0.069
3.980,-0.061
3.981,-0.053
3.982,-0.053
3.983,-0.050
3.984,-0.050
3.985,-0.050
3.986,-0.053
3.987,-0.053
3.988,-0.049
3.989,-0.050
3.990,-0.047
3.991,-0.044
3.992,-0.045
3.993,-0.047
3.994,-0.044
3.995,-0.047
3.996,-0.048
3.997,-0.050
3.998,-0.051
3.999,-0.053
4.000,-0.049
4.001,-0.053
4.002,-0.050
4.003,-0.050
4.004,-0.049
4.005,-0.050
4.006,-0.050
4.007,-0.047
4.008,-0.051
4.009,-0.056
4.010,-0.053
4.011,-0.056
4.012,-0.053
4.013,-0.050
4.014,-0.050
4.015,-0.050
4.016,-0.053
4.017,-0.053
4.018,-0.054
4.019,-0.063
4.020,-0.064
4.021,-0.066
4.022,-0.064
4.023,-0.063
4.024,-0.053
4.025,-0.050
4.026,-0.053
4.027,-0.053
4.028,-0.056
4.029,-0.063
4.030,-0.064
4.031,-0.066
4.032,-0.069
4.033,-0.072
4.034,-0.076
4.035,-0.081
4.036,-0.077
4.037,-0.072
4.038,-0.072
4.039,-0.072
4.040,-0.075
4.041,-0.075
4.042,-0.072
4.043,-0.072
4.044,-0.079
4.045,-0.088
4.046,-0.086
4.047,-0.081
4.048,-0.075
4.049,-0.072
4.050,-0.074
4.051,-0.075
4.052,-0.074
4.053,-0.075
4.054,-0.078
4.055,-0.075
4.056,-0.075
4.057,-0.072
4.058,-0.076
4.059,-0.081
4.060,-0.079
4.061,-0.084
4.062,-0.080
4.063,-0.078
4.064,-0.083
4.065,-0.084
4.066,-0.081
4.067,-0.081
4.068,-0.081
4.069,-0.084
4.070,-0.083
4.071,-0.084
4.072,-0.088
4.073,-0.088
4.074,-0.089
4.075,-0.091
4.076,-0.095
4.077,-0.100
4.078,-0.100
4.079,-0.097
4.080,-0.089
4.081,-0.081
4.082,-0.083
4.083,-0.088
4.084,-0.086
4.085,-0.091
4.086,-0.092
4.087,-0.094
4.088,-0.098
4.089,-0.100
4.090,-0.094
4.091,-0.091
4.092,-0.092
4.093,-0.094
4.094,-0.097
4.095,-0.103
4.096,-0.101
4.097,-0.103
4.098,-0.106
4.099,-0.109
4.100,-0.111
4.101,-0.116
4.102,-0.113
4.103,-0.109
4.104,-0.105
4.105,-0.103
4.106,-0.104
4.107,-0.103
4.108,-0.104
4.109,-0.109
4.110,-0.111
4.111,-0.113
4.112,-0.113
4.113,-0.113
4.114,-0.111
4.115,-0.106
4.116,-0.106
4.117,-0.103
4.118,-0.099
4.119,-0.097
4.120,-0.097
4.121,-0.097
4.122,-0.094
4.123,-0.091
4.124,-0.077
4.125,-0.059
4.126,-0.047
4.127,-0.041
4.128,-0.038
4.129,-0.034
4.130,-0.034
4.131,-0.031
4.132,-0.033
4.133,-0.031
4.134,-0.025
4.135,-0.022
4.136,-0.022
4.137,-0.022
4.138,-0.025
4.139,-0.025
4.140,-0.023
4.141,-0.019
4.142,-0.016
4.143,-0.009
4.144,-0.004
4.145,0.000
4.146,0.011
4.147,0.025
4.148,0.039
4.149,0.056
4.150,0.072
4.151,0.087
4.152,0.098
4.153,0.112
4.154,0.125
4.155,0.141
4.156,0.147
4.157,0.153
4.158,0.158
4.159,0.159
4.160,0.164
4.161,0.163
4.162,0.166
4.163,0.166
4.164,0.152
4.165,0.137
4.166,0.124
4.167,0.112
4.168,0.108
4.169,0.106
4.170,0.104
4.171,0.103
4.172,0.103
4.173,0.103
4.174,0.101
4.175,0.103
4.176,0.106
4.177,0.106
4.178,0.111
4.179,0.109
4.180,0.099
4.181,0.091
4.182,0.083
4.183,0.072
4.184,0.064
4.185,0.056
4.186,0.050
4.187,0.047
4.188,0.037
4.189,0.025
4.190,-0.003
4.191,-0.022
4.192,-0.031
4.193,-0.044
4.194,-0.050
4.195,-0.053
4.196,-0.051
4.197,-0.063
4.198,-0.069
4.199,-0.078
4.200,-0.080
4.201,-0.084
4.202,-0.088
4.203,-0.088
4.204,-0.101
4.205,-0.113
4.206,-0.123
4.207,-0.131
4.208,-0.134
4.209,-0.141
4.210,-0.139
4.211,-0.147
4.212,-0.146
4.213,-0.144
4.214,-0.136
4.215,-0.131
4.216,-0.131
4.217,-0.131
4.218,-0.130
4.219,-0.131
4.220,-0.130
4.221,-0.128
4.222,-0.131
4.223,-0.131
4.224,-0.128
4.225,-0.125
4.226,-0.129
4.227,-0.128
4.228,-0.134
4.229,-0.144
4.230,-0.147
4.231,-0.144
4.232,-0.145
4.233,-0.147
4.234,-0.145
4.235,-0.144
4.236,-0.144
4.237,-0.144
4.238,-0.141
4.239,-0.138
4.240,-0.134
4.241,-0.131
4.242,-0.134
4.243,-0.144
4.244,-0.158
4.245,-0.172
4.246,-0.187
4.247,-0.203
4.248,-0.214
4.249,-0.225
4.250,-0.242
4.251,-0.253
4.252,-0.258
4.253,-0.263
4.254,-0.261
4.255,-0.253
4.256,-0.250
4.257,-0.244
4.258,-0.222
4.259,-0.194
4.260,-0.161
4.261,-0.128
4.262,-0.089
4.263,-0.041
4.264,0.017
4.265,0.100
4.266,0.178
4.267,0.269
4.268,0.372
4.269,0.475
4.270,0.589
4.271,0.691
4.272,0.786
4.273,0.853
4.274,0.914
4.275,0.981
4.276,1.075
4.277,1.162
4.278,1.261
4.279,1.359
4.280,1.454
4.281,1.544
4.282,1.631
4.283,1.716
4.284,1.782
4.285,1.828
4.286,1.866
4.287,1.869
4.288,1.859
4.289,1.813
4.290,1.773
4.291,1.669
4.292,1.550
4.293,1.397
4.294,1.199
4.295,0.978
4.296,0.733
4.297,0.556
4.298,0.416
4.299,0.287
4.300,0.161
4.301,0.050
4.302,-0.050
4.303,-0.113
4.304,-0.148
4.305,-0.163
4.306,-0.166
4.307,-0.166
4.308,-0.166
4.309,-0.169
4.310,-0.167
4.311,-0.163
4.312,-0.153
4.313,-0.144
4.314,-0.138
4.315,-0.131
4.316,-0.122
4.317,-0.109
4.318,-0.103
4.319,-0.097
4.320,-0.091
4.321,-0.094
4.322,-0.098
4.323,-0.100
4.324,-0.111
4.325,-0.119
4.326,-0.117
4.327,-0.119
4.328,-0.118
4.329,-0.113
4.330,-0.113
4.331,-0.116
4.332,-0.117
4.333,-0.122
4.334,-0.121
4.335,-0.122
4.336,-0.126
4.337,-0.128
4.338,-0.134
4.339,-0.138
4.340,-0.139
4.341,-0.141
4.342,-0.136
4.343,-0.131
4.344,-0.139
4.345,-0.141
4.346,-0.144
4.347,-0.147
4.348,-0.146
4.349,-0.144
4.350,-0.147
4.351,-0.147
4.352,-0.144
4.353,-0.141
4.354,-0.141
4.355,-0.141
4.356,-0.147
4.357,-0.153
4.358,-0.158
4.359,-0.156
4.360,-0.155
4.361,-0.150
4.362,-0.144
4.363,-0.141
4.364,-0.139
4.365,-0.141
4.366,-0.144
4.367,-0.147
4.368,-0.150
4.369,-0.150
4.370,-0.150
4.371,-0.153
4.372,-0.153
4.373,-0.150
4.374,-0.148
4.375,-0.150
4.376,-0.150
4.377,-0.150
4.378,-0.150
4.379,-0.153
4.380,-0.152
4.381,-0.150
4.382,-0.150
4.383,-0.147
4.384,-0.147
4.385,-0.147
4.386,-0.144
4.387,-0.144
4.388,-0.148
4.389,-0.147
4.390,-0.148
4.391,-0.147
4.392,-0.143
4.393,-0.141
4.394,-0.136
4.395,-0.134
4.396,-0.131
4.397,-0.134
4.398,-0.131
4.399,-0.131
4.400,-0.129
4.401,-0.131
4.402,-0.130
4.403,-0.128
4.404,-0.128
4.405,-0.131
4.406,-0.134
4.407,-0.138
4.408,-0.136
4.409,-0.131
4.410,-0.139
4.411,-0.141
4.412,-0.139
4.413,-0.134
4.414,-0.128
4.415,-0.125
4.416,-0.119
4.417,-0.116
4.418,-0.123
4.419,-0.125
4.420,-0.126
4.421,-0.125
4.422,-0.127
4.423,-0.125
4.424,-0.124
4.425,-0.119
4.426,-0.116
4.427,-0.113
4.428,-0.106
4.429,-0.103
4.430,-0.106
4.431,-0.109
4.432,-0.111
4.433,-0.109
4.434,-0.106
4.435,-0.103
4.436,-0.097
4.437,-0.091
4.438,-0.089
4.439,-0.084
4.440,-0.086
4.441,-0.088
4.442,-0.089
4.443,-0.091
4.444,-0.094
4.445,-0.094
4.446,-0.092
4.447,-0.094
4.448,-0.088
4.449,-0.091
4.450,-0.089
4.451,-0.084
4.452,-0.077
4.453,-0.066
4.454,-0.064
4.455,-0.066
4.456,-0.069
4.457,-0.066
4.458,-0.066
4.459,-0.066
4.460,-0.063
4.461,-0.056
4.462,-0.063
4.463,-0.069
4.464,-0.064
4.465,-0.063
4.466,-0.055
4.467,-0.050
4.468,-0.046
4.469,-0.038
4.470,-0.039
4.471,-0.038
4.472,-0.041
4.473,-0.044
4.474,-0.045
4.475,-0.047
4.476,-0.041
4.477,-0.028
4.478,-0.026
4.479,-0.028
4.480,-0.029
4.481,-0.031
4.482,-0.028
4.483,-0.028
4.484,-0.029
4.485,-0.028
4.486,-0.028
4.487,-0.028
4.488,-0.028
4.489,-0.028
4.490,-0.027
4.491,-0.022
4.492,-0.022
4.493,-0.019
4.494,-0.023
4.495,-0.022
4.496,-0.023
4.497,-0.022
4.498,-0.018
4.499,-0.019
4.500,-0.020
4.501,-0.025
4.502,-0.028
4.503,-0.028
4.504,-0.025
4.505,-0.016
4.506,-0.016
4.507,-0.016
4.508,-0.019
4.509,-0.025
4.510,-0.028
4.511,-0.031
4.512,-0.031
4.513,-0.031
4.514,-0.030
4.515,-0.025
4.516,-0.021
4.517,-0.019
4.518,-0.016
4.519,-0.012
4.520,-0.009
4.521,-0.006
4.522,-0.005
4.523,0.000
4.524,0.003
4.525,0.006
4.526,0.007
4.527,0.009
4.528,0.008
4.529,0.006
4.530,0.006
4.531,0.006
4.532,0.008
4.533,0.003
4.534,0.002
4.535,0.000
4.536,0.003
4.537,0.003
4.538,0.000
4.539,0.000
4.540,0.001
4.541,0.006
4.542,0.011
4.543,0.012
4.544,0.016
4.545,0.022
4.546,0.019
4.547,0.016
4.548,0.017
4.549,0.016
4.550,0.016
4.551,0.022
4.552,0.025
4.553,0.028
4.554,0.021
4.555,0.019
4.556,0.016
4.557,0.016
4.558,0.014
4.559,0.016
4.560,0.019
4.561,0.016
4.562,0.011
4.563,0.006
4.564,0.009
4.565,0.009
4.566,0.007
4.567,0.006
4.568,0.003
4.569,0.003
4.570,-0.003
4.571,-0.006
4.572,-0.012
4.573,-0.019
4.574,-0.023
4.575,-0.025
4.576,-0.025
4.577,-0.028
4.578,-0.031
4.579,-0.034
4.580,-0.033
4.581,-0.034
4.582,-0.041
4.583,-0.050
4.584,-0.056
4.585,-0.059
4.586,-0.058
4.587,-0.059
4.588,-0.063
4.589,-0.059
4.590,-0.058
4.591,-0.056
4.592,-0.061
4.593,-0.063
4.594,-0.064
4.595,-0.063
4.596,-0.063
4.597,-0.066
4.598,-0.067
4.599,-0.072
4.600,-0.076
4.601,-0.075
4.602,-0.074
4.603,-0.072
4.604,-0.073
4.605,-0.075
4.606,-0.074
4.607,-0.075
4.608,-0.079
4.609,-0.078
4.610,-0.074
4.611,-0.075
4.612,-0.074
4.613,-0.069
4.614,-0.070
4.615,-0.072
4.616,-0.073
4.617,-0.072
4.618,-0.071
4.619,-0.069
4.620,-0.066
4.621,-0.066
4.622,-0.069
4.623,-0.069
4.624,-0.073
4.625,-0.072
4.626,-0.071
4.627,-0.072
4.628,-0.072
4.629,-0.069
4.630,-0.071
4.631,-0.069
4.632,-0.070
4.633,-0.072
4.634,-0.070
4.635,-0.072
4.636,-0.070
4.637,-0.069
4.638,-0.063
4.639,-0.053
4.640,-0.053
4.641,-0.053
4.642,-0.056
4.643,-0.056
4.644,-0.050
4.645,-0.050
4.646,-0.050
4.647,-0.050
4.648,-0.051
4.649,-0.053
4.650,-0.053
4.651,-0.059
4.652,-0.059
4.653,-0.059
4.654,-0.057
4.655,-0.056
4.656,-0.053
4.657,-0.059
4.658,-0.061
4.659,-0.066
4.660,-0.067
4.661,-0.072
4.662,-0.073
4.663,-0.072
4.664,-0.068
4.665,-0.063
4.666,-0.061
4.667,-0.066
4.668,-0.066
4.669,-0.066
4.670,-0.066
4.671,-0.066
4.672,-0.068
4.673,-0.066
4.674,-0.063
4.675,-0.066
4.676,-0.068
4.677,-0.069
4.678,-0.072
4.679,-0.075
4.680,-0.071
4.681,-0.072
4.682,-0.076
4.683,-0.078
4.684,-0.078
4.685,-0.081
4.686,-0.081
4.687,-0.081
4.688,-0.080
4.689,-0.078
4.690,-0.075
4.691,-0.072
4.692,-0.072
4.693,-0.072
4.694,-0.076
4.695,-0.081
4.696,-0.084
4.697,-0.084
4.698,-0.080
4.699,-0.078
4.700,-0.080
4.701,-0.081
4.702,-0.084
4.703,-0.084
4.704,-0.086
4.705,-0.091
4.706,-0.095
4.707,-0.100
4.708,-0.097
4.709,-0.097
4.710,-0.100
4.711,-0.097
4.712,-0.100
4.713,-0.100
4.714,-0.100
4.715,-0.100
4.716,-0.098
4.717,-0.103
4.718,-0.102
4.719,-0.103
4.720,-0.108
4.721,-0.109
4.722,-0.109
4.723,-0.113
4.724,-0.108
4.725,-0.106
4.726,-0.105
4.727,-0.106
4.728,-0.111
4.729,-0.113
4.730,-0.108
4.731,-0.103
4.732,-0.097
4.733,-0.091
4.734,-0.095
4.735,-0.097
4.736,-0.098
4.737,-0.100
4.738,-0.096
4.739,-0.094
4.740,-0.095
4.741,-0.103
4.742,-0.104
4.743,-0.106
4.744,-0.109
4.745,-0.109
4.746,-0.108
4.747,-0.109
4.748,-0.114
4.749,-0.119
4.750,-0.120
4.751,-0.125
4.752,-0.123
4.753,-0.125
4.754,-0.119
4.755,-0.113
4.756,-0.111
4.757,-0.113
4.758,-0.114
4.759,-0.116
4.760,-0.116
4.761,-0.119
4.762,-0.120
4.763,-0.119
4.764,-0.119
4.765,-0.122
4.766,-0.122
4.767,-0.122
4.768,-0.122
4.769,-0.122
4.770,-0.123
4.771,-0.122
4.772,-0.122
4.773,-0.119
4.774,-0.114
4.775,-0.113
4.776,-0.113
4.777,-0.113
4.778,-0.105
4.779,-0.097
4.780,-0.089
4.781,-0.078
4.782,-0.072
4.783,-0.072
4.784,-0.066
4.785,-0.059
4.786,-0.055
4.787,-0.047
4.788,-0.045
4.789,-0.041
4.790,-0.034
4.791,-0.031
4.792,-0.030
4.793,-0.028
4.794,-0.039
4.795,-0.047
4.796,-0.045
4.797,-0.041
4.798,-0.036
4.799,-0.028
4.800,-0.019
4.801,-0.009
4.802,0.000
4.803,0.012
4.804,0.028
4.805,0.047
4.806,0.056
4.807,0.066
4.808,0.076
4.809,0.091
4.810,0.101
4.811,0.116
4.812,0.129
4.813,0.144
4.814,0.150
4.815,0.153
4.816,0.156
4.817,0.153
4.818,0.151
4.819,0.147
4.820,0.134
4.821,0.122
4.822,0.108
4.823,0.097
4.824,0.092
4.825,0.091
4.826,0.087
4.827,0.084
4.828,0.080
4.829,0.075
4.830,0.076
4.831,0.081
4.832,0.094
4.833,0.103
4.834,0.107
4.835,0.106
4.836,0.096
4.837,0.087
4.838,0.082
4.839,0.075
4.840,0.069
4.841,0.062
4.842,0.041
4.843,0.022
4.844,0.000
4.845,-0.025
4.846,-0.038
4.847,-0.041
4.848,-0.043
4.849,-0.047
4.850,-0.056
4.851,-0.063
4.852,-0.063
4.853,-0.075
4.854,-0.083
4.855,-0.094
4.856,-0.098
4.857,-0.106
4.858,-0.113
4.859,-0.116
4.860,-0.121
4.861,-0.122
4.862,-0.128
4.863,-0.131
4.864,-0.134
4.865,-0.141
4.866,-0.142
4.867,-0.153
4.868,-0.153
4.869,-0.153
4.870,-0.144
4.871,-0.138
4.872,-0.131
4.873,-0.125
4.874,-0.122
4.875,-0.122
4.876,-0.128
4.877,-0.134
4.878,-0.142
4.879,-0.147
4.880,-0.148
4.881,-0.150
4.882,-0.154
4.883,-0.153
4.884,-0.150
4.885,-0.150
4.886,-0.150
4.887,-0.144
4.888,-0.144
4.889,-0.144
4.890,-0.139
4.891,-0.134
4.892,-0.133
4.893,-0.131
4.894,-0.131
4.895,-0.131
4.896,-0.138
4.897,-0.144
4.898,-0.146
4.899,-0.153
4.900,-0.164
4.901,-0.175
4.902,-0.189
4.903,-0.203
4.904,-0.219
4.905,-0.234
4.906,-0.251
4.907,-0.263
4.908,-0.266
4.909,-0.269
4.910,-0.266
4.911,-0.256
4.912,-0.246
4.913,-0.231
4.914,-0.209
4.915,-0.181
4.916,-0.153
4.917,-0.125
4.918,-0.089
4.919,-0.044
4.920,0.014
4.921,0.097
4.922,0.182
4.923,0.281
4.924,0.380
4.925,0.478
4.926,0.584
4.927,0.678
4.928,0.767
4.929,0.828
4.930,0.899
4.931,0.975
4.932,1.063
4.933,1.144
4.934,1.233
4.935,1.322
4.936,1.414
4.937,1.500
4.938,1.575
4.939,1.647
4.940,1.712
4.941,1.756
4.942,1.789
4.943,1.788
4.944,1.778
4.945,1.731
4.946,1.694
4.947,1.591
4.948,1.449
4.949,1.272
4.950,1.061
4.951,0.828
4.952,0.600
4.953,0.441
4.954,0.317
4.955,0.206
4.956,0.100
4.957,0.009
4.958,-0.076
4.959,-0.125
4.960,-0.166
4.961,-0.184
4.962,-0.187
4.963,-0.187
4.964,-0.186
4.965,-0.187
4.966,-0.183
4.967,-0.175
4.968,-0.169
4.969,-0.163
4.970,-0.156
4.971,-0.150
4.972,-0.145
4.973,-0.138
4.974,-0.130
4.975,-0.122
4.976,-0.111
4.977,-0.109
4.978,-0.113
4.979,-0.113
4.980,-0.118
4.981,-0.119
4.982,-0.113
4.983,-0.109
4.984,-0.108
4.985,-0.103
4.986,-0.106
4.987,-0.113
4.988,-0.116
4.989,-0.122
4.990,-0.124
4.991,-0.128
4.992,-0.130
4.993,-0.128
4.994,-0.131
4.995,-0.131
4.996,-0.134
4.997,-0.138
4.998,-0.139
4.999,-0.141
5.000,-0.148
5.001,-0.150
5.002,-0.153
5.003,-0.156
5.004,-0.150
5.005,-0.144
5.006,-0.147
5.007,-0.147
5.008,-0.151
5.009,-0.156
5.010,-0.153
5.011,-0.150
5.012,-0.149
5.013,-0.147
5.014,-0.150
5.015,-0.147
5.016,-0.147
5.017,-0.144
5.018,-0.142
5.019,-0.144
5.020,-0.145
5.021,-0.150
5.022,-0.149
5.023,-0.147
5.024,-0.149
5.025,-0.147
5.026,-0.145
5.027,-0.147
5.028,-0.150
5.029,-0.150
5.030,-0.144
5.031,-0.141
5.032,-0.141
5.033,-0.141
5.034,-0.139
5.035,-0.141
5.036,-0.144
5.037,-0.147
5.038,-0.151
5.039,-0.153
5.040,-0.153
5.041,-0.153
5.042,-0.149
5.043,-0.147
5.044,-0.149
5.045,-0.144
5.046,-0.143
5.047,-0.138
5.048,-0.136
5.049,-0.138
5.050,-0.133
5.051,-0.131
5.052,-0.127
5.053,-0.128
5.054,-0.126
5.055,-0.128
5.056,-0.126
5.057,-0.128
5.058,-0.128
5.059,-0.128
5.060,-0.125
5.061,-0.125
5.062,-0.125
5.063,-0.125
5.064,-0.126
5.065,-0.125
5.066,-0.128
5.067,-0.125
5.068,-0.125
5.069,-0.122
5.070,-0.120
5.071,-0.122
5.072,-0.119
5.073,-0.119
5.074,-0.122
5.075,-0.119
5.076,-0.120
5.077,-0.119
5.078,-0.126
5.079,-0.131
5.080,-0.134
5.081,-0.134
5.082,-0.131
5.083,-0.128
5.084,-0.119
5.085,-0.113
5.086,-0.109
5.087,-0.106
5.088,-0.102
5.089,-0.094
5.090,-0.094
5.091,-0.094
5.092,-0.093
5.093,-0.091
5.094,-0.094
5.095,-0.094
5.096,-0.092
5.097,-0.091
5.098,-0.084
5.099,-0.078
5.100,-0.084
5.101,-0.088
5.102,-0.084
5.103,-0.084
5.104,-0.077
5.105,-0.078
5.106,-0.081
5.107,-0.081
5.108,-0.080
5.109,-0.075
5.110,-0.072
5.111,-0.072
5.112,-0.075
5.113,-0.072
5.114,-0.064
5.115,-0.056
5.116,-0.055
5.117,-0.050
5.118,-0.051
5.119,-0.053
5.120,-0.054
5.121,-0.059
5.122,-0.056
5.123,-0.056
5.124,-0.057
5.125,-0.056
5.126,-0.055
5.127,-0.050
5.128,-0.051
5.129,-0.053
5.130,-0.049
5.131,-0.044
5.132,-0.044
5.133,-0.038
5.134,-0.034
5.135,-0.034
5.136,-0.036
5.137,-0.038
5.138,-0.036
5.139,-0.038
5.140,-0.036
5.141,-0.031
5.142,-0.031
5.143,-0.031
5.144,-0.036
5.145,-0.041
5.146,-0.038
5.147,-0.031
5.148,-0.030
5.149,-0.025
5.150,-0.028
5.151,-0.025
5.152,-0.021
5.153,-0.012
5.154,-0.008
5.155,-0.009
5.156,-0.009
5.157,-0.012
5.158,-0.023
5.159,-0.031
5.160,-0.034
5.161,-0.031
5.162,-0.033
5.163,-0.034
5.164,-0.033
5.165,-0.034
5.166,-0.031
5.167,-0.028
5.168,-0.028
5.169,-0.028
5.170,-0.024
5.171,-0.016
5.172,-0.012
5.173,-0.012
5.174,-0.016
5.175,-0.019
5.176,-0.020
5.177,-0.022
5.178,-0.021
5.179,-0.016
5.180,-0.012
5.181,-0.009
5.182,-0.006
5.183,-0.003
5.184,-0.003
5.185,-0.003
5.186,-0.003
5.187,-0.003
5.188,-0.001
5.189,-0.006
5.190,-0.008
5.191,-0.009
5.192,-0.004
5.193,-0.003
5.194,0.001
5.195,0.009
5.196,0.008
5.197,0.009
5.198,0.012
5.199,0.012
5.200,0.012
5.201,0.016
5.202,0.020
5.203,0.025
5.204,0.026
5.205,0.025
5.206,0.022
5.207,0.025
5.208,0.028
5.209,0.031
5.210,0.022
5.211,0.019
5.212,0.012
5.213,0.009
5.214,0.002
5.215,-0.003
5.216,0.003
5.217,0.003
5.218,0.006
5.219,0.009
5.220,0.012
5.221,0.012
5.222,0.011
5.223,0.009
5.224,0.003
5.225,0.000
5.226,-0.003
5.227,-0.003
5.228,-0.008
5.229,-0.012
5.230,-0.017
5.231,-0.019
5.232,-0.020
5.233,-0.025
5.234,-0.025
5.235,-0.025
5.236,-0.025
5.237,-0.028
5.238,-0.027
5.239,-0.028
5.240,-0.031
5.241,-0.031
5.242,-0.030
5.243,-0.031
5.244,-0.039
5.245,-0.041
5.246,-0.045
5.247,-0.050
5.248,-0.052
5.249,-0.050
5.250,-0.053
5.251,-0.053
5.252,-0.054
5.253,-0.059
5.254,-0.063
5.255,-0.069
5.256,-0.075
5.257,-0.075
5.258,-0.072
5.259,-0.069
5.260,-0.069
5.261,-0.069
5.262,-0.072
5.263,-0.078
5.264,-0.084
5.265,-0.084
5.266,-0.081
5.267,-0.084
5.268,-0.084
5.269,-0.081
5.270,-0.075
5.271,-0.069
5.272,-0.069
5.273,-0.066
5.274,-0.066
5.275,-0.066
5.276,-0.063
5.277,-0.063
5.278,-0.063
5.279,-0.059
5.280,-0.059
5.281,-0.053
5.282,-0.052
5.283,-0.053
5.284,-0.056
5.285,-0.056
5.286,-0.063
5.287,-0.066
5.288,-0.067
5.289,-0.069
5.290,-0.063
5.291,-0.059
5.292,-0.059
5.293,-0.059
5.294,-0.063
5.295,-0.063
5.296,-0.059
5.297,-0.056
5.298,-0.058
5.299,-0.056
5.300,-0.054
5.301,-0.059
5.302,-0.058
5.303,-0.056
5.304,-0.057
5.305,-0.059
5.306,-0.057
5.307,-0.063
5.308,-0.063
5.309,-0.063
5.310,-0.058
5.311,-0.053
5.312,-0.047
5.313,-0.050
5.314,-0.050
5.315,-0.053
5.316,-0.052
5.317,-0.053
5.318,-0.053
5.319,-0.050
5.320,-0.047
5.321,-0.044
5.322,-0.044
5.323,-0.050
5.324,-0.051
5.325,-0.053
5.326,-0.052
5.327,-0.050
5.328,-0.054
5.329,-0.056
5.330,-0.052
5.331,-0.053
5.332,-0.059
5.333,-0.066
5.334,-0.067
5.335,-0.069
5.336,-0.064
5.337,-0.066
5.338,-0.069
5.339,-0.069
5.340,-0.063
5.341,-0.059
5.342,-0.061
5.343,-0.063
5.344,-0.066
5.345,-0.069
5.346,-0.070
5.347,-0.072
5.348,-0.073
5.349,-0.072
5.350,-0.069
5.351,-0.069
5.352,-0.071
5.353,-0.069
5.354,-0.072
5.355,-0.075
5.356,-0.075
5.357,-0.081
5.358,-0.078
5.359,-0.075
5.360,-0.078
5.361,-0.078
5.362,-0.080
5.363,-0.078
5.364,-0.080
5.365,-0.081
5.366,-0.086
5.367,-0.088
5.368,-0.086
5.369,-0.084
5.370,-0.081
5.371,-0.075
5.372,-0.077
5.373,-0.078
5.374,-0.079
5.375,-0.081
5.376,-0.080
5.377,-0.075
5.378,-0.075
5.379,-0.081
5.380,-0.084
5.381,-0.088
5.382,-0.092
5.383,-0.097
5.384,-0.099
5.385,-0.094
5.386,-0.091
5.387,-0.084
5.388,-0.084
5.389,-0.088
5.390,-0.088
5.391,-0.088
5.392,-0.095
5.393,-0.100
5.394,-0.103
5.395,-0.106
5.396,-0.109
5.397,-0.106
5.398,-0.099
5.399,-0.091
5.400,-0.088
5.401,-0.084
5.402,-0.088
5.403,-0.088
5.404,-0.092
5.405,-0.097
5.406,-0.101
5.407,-0.103
5.408,-0.097
5.409,-0.094
5.410,-0.097
5.411,-0.097
5.412,-0.096
5.413,-0.094
5.414,-0.094
5.415,-0.094
5.416,-0.092
5.417,-0.094
5.418,-0.086
5.419,-0.078
5.420,-0.079
5.421,-0.075
5.422,-0.069
5.423,-0.063
5.424,-0.059
5.425,-0.056
5.426,-0.046
5.427,-0.034
5.428,-0.030
5.429,-0.022
5.430,-0.019
5.431,-0.019
5.432,-0.017
5.433,-0.019
5.434,-0.009
5.435,-0.003
5.436,0.000
5.437,0.003
5.438,0.000
5.439,-0.009
5.440,-0.014
5.441,-0.012
5.442,-0.008
5.443,-0.003
5.444,0.002
5.445,0.006
5.446,0.020
5.447,0.031
5.448,0.039
5.449,0.050
5.450,0.067
5.451,0.081
5.452,0.097
5.453,0.109
5.454,0.125
5.455,0.137
5.456,0.151
5.457,0.159
5.458,0.164
5.459,0.169
5.460,0.171
5.461,0.172
5.462,0.170
5.463,0.169
5.464,0.163
5.465,0.153
5.466,0.136
5.467,0.119
5.468,0.111
5.469,0.106
5.470,0.106
5.471,0.103
5.472,0.097
5.473,0.097
5.474,0.116
5.475,0.128
5.476,0.132
5.477,0.141
5.478,0.142
5.479,0.144
5.480,0.137
5.481,0.128
5.482,0.114
5.483,0.100
5.484,0.091
5.485,0.081
5.486,0.075
5.487,0.062
5.488,0.046
5.489,0.028
5.490,0.014
5.491,-0.003
5.492,-0.009
5.493,-0.012
5.494,-0.018
5.495,-0.022
5.496,-0.031
5.497,-0.031
5.498,-0.044
5.499,-0.053
5.500,-0.063
5.501,-0.066
5.502,-0.073
5.503,-0.081
5.504,-0.088
5.505,-0.097
5.506,-0.100
5.507,-0.109
5.508,-0.114
5.509,-0.109
5.510,-0.105
5.511,-0.097
5.512,-0.104
5.513,-0.106
5.514,-0.109
5.515,-0.113
5.516,-0.114
5.517,-0.113
5.518,-0.109
5.519,-0.106
5.520,-0.109
5.521,-0.109
5.522,-0.114
5.523,-0.122
5.524,-0.122
5.525,-0.122
5.526,-0.121
5.527,-0.122
5.528,-0.118
5.529,-0.116
5.530,-0.120
5.531,-0.125
5.532,-0.119
5.533,-0.116
5.534,-0.119
5.535,-0.119
5.536,-0.116
5.537,-0.119
5.538,-0.121
5.539,-0.116
5.540,-0.114
5.541,-0.119
5.542,-0.118
5.543,-0.116
5.544,-0.119
5.545,-0.125
5.546,-0.136
5.547,-0.150
5.548,-0.170
5.549,-0.191
5.550,-0.214
5.551,-0.238
5.552,-0.246
5.553,-0.250
5.554,-0.256
5.555,-0.253
5.556,-0.247
5.557,-0.241
5.558,-0.229
5.559,-0.209
5.560,-0.189
5.561,-0.166
5.562,-0.144
5.563,-0.116
5.564,-0.075
5.565,-0.025
5.566,0.050
5.567,0.128
5.568,0.225
5.569,0.328
5.570,0.430
5.571,0.534
5.572,0.625
5.573,0.719
5.574,0.787
5.575,0.862
5.576,0.937
5.577,1.022
5.578,1.109
5.579,1.203
5.580,1.284
5.581,1.369
5.582,1.456
5.583,1.531
5.584,1.607
5.585,1.675
5.586,1.723
5.587,1.766
5.588,1.773
5.589,1.772
5.590,1.750
5.591,1.725
5.592,1.629
5.593,1.522
5.594,1.347
5.595,1.137
5.596,0.903
5.597,0.650
5.598,0.484
5.599,0.344
5.600,0.226
5.601,0.128
5.602,0.033
5.603,-0.050
5.604,-0.100
5.605,-0.138
5.606,-0.153
5.607,-0.159
5.608,-0.163
5.609,-0.163
5.610,-0.166
5.611,-0.163
5.612,-0.153
5.613,-0.147
5.614,-0.144
5.615,-0.141
5.616,-0.139
5.617,-0.138
5.618,-0.128
5.619,-0.125
5.620,-0.116
5.621,-0.100
5.622,-0.096
5.623,-0.094
5.624,-0.093
5.625,-0.097
5.626,-0.100
5.627,-0.097
5.628,-0.094
5.629,-0.094
5.630,-0.097
5.631,-0.103
5.632,-0.109
5.633,-0.109
5.634,-0.113
5.635,-0.116
5.636,-0.121
5.637,-0.122
5.638,-0.121
5.639,-0.122
5.640,-0.118
5.641,-0.113
5.642,-0.113
5.643,-0.113
5.644,-0.116
5.645,-0.125
5.646,-0.128
5.647,-0.131
5.648,-0.131
5.649,-0.131
5.650,-0.131
5.651,-0.134
5.652,-0.133
5.653,-0.131
5.654,-0.128
5.655,-0.125
5.656,-0.125
5.657,-0.125
5.658,-0.128
5.659,-0.134
5.660,-0.133
5.661,-0.134
5.662,-0.133
5.663,-0.131
5.664,-0.130
5.665,-0.128
5.666,-0.130
5.667,-0.131
5.668,-0.133
5.669,-0.134
5.670,-0.136
5.671,-0.134
5.672,-0.134
5.673,-0.138
5.674,-0.142
5.675,-0.144
5.676,-0.143
5.677,-0.141
5.678,-0.136
5.679,-0.128
5.680,-0.129
5.681,-0.131
5.682,-0.134
5.683,-0.138
5.684,-0.131
5.685,-0.131
5.686,-0.133
5.687,-0.128
5.688,-0.131
5.689,-0.138
5.690,-0.133
5.691,-0.131
5.692,-0.129
5.693,-0.128
5.694,-0.128
5.695,-0.128
5.696,-0.131
5.697,-0.128
5.698,-0.131
5.699,-0.128
5.700,-0.134
5.701,-0.138
5.702,-0.134
5.703,-0.131
5.704,-0.131
5.705,-0.128
5.706,-0.129
5.707,-0.131
5.708,-0.127
5.709,-0.122
5.710,-0.123
5.711,-0.131
5.712,-0.125
5.713,-0.122
5.714,-0.116
5.715,-0.109
5.716,-0.113
5.717,-0.113
5.718,-0.119
5.719,-0.128
5.720,-0.126
5.721,-0.128
5.722,-0.121
5.723,-0.119
5.724,-0.114
5.725,-0.109
5.726,-0.100
5.727,-0.091
5.728,-0.091
5.729,-0.091
5.730,-0.091
5.731,-0.091
5.732,-0.092
5.733,-0.091
5.734,-0.086
5.735,-0.088
5.736,-0.097
5.737,-0.106
5.738,-0.106
5.739,-0.106
5.740,-0.104
5.741,-0.103
5.742,-0.101
5.743,-0.103
5.744,-0.097
5.745,-0.091
5.746,-0.088
5.747,-0.084
5.748,-0.083
5.749,-0.075
5.750,-0.077
5.751,-0.075
5.752,-0.073
5.753,-0.075
5.754,-0.076
5.755,-0.078
5.756,-0.078
5.757,-0.078
5.758,-0.072
5.759,-0.072
5.760,-0.073
5.761,-0.075
5.762,-0.072
5.763,-0.072
5.764,-0.073
5.765,-0.069
5.766,-0.063
5.767,-0.056
5.768,-0.056
5.769,-0.056
5.770,-0.054
5.771,-0.056
5.772,-0.053
5.773,-0.053
5.774,-0.053
5.775,-0.053
5.776,-0.054
5.777,-0.056
5.778,-0.051
5.779,-0.050
5.780,-0.049
5.781,-0.047
5.782,-0.050
5.783,-0.050
5.784,-0.051
5.785,-0.053
5.786,-0.047
5.787,-0.044
5.788,-0.043
5.789,-0.041
5.790,-0.039
5.791,-0.038
5.792,-0.034
5.793,-0.034
5.794,-0.033
5.795,-0.038
5.796,-0.034
5.797,-0.034
5.798,-0.030
5.799,-0.025
5.800,-0.029
5.801,-0.031
5.802,-0.034
5.803,-0.038
5.804,-0.038
5.805,-0.038
5.806,-0.033
5.807,-0.034
5.808,-0.034
5.809,-0.034
5.810,-0.036
5.811,-0.034
5.812,-0.034
5.813,-0.034
5.814,-0.033
5.815,-0.031
5.816,-0.029
5.817,-0.028
5.818,-0.028
5.819,-0.028
5.820,-0.028
5.821,-0.028
5.822,-0.029
5.823,-0.031
5.824,-0.027
5.825,-0.025
5.826,-0.025
5.827,-0.025
5.828,-0.025
5.829,-0.025
5.830,-0.028
5.831,-0.028
5.832,-0.028
5.833,-0.028
5.834,-0.031
5.835,-0.031
5.836,-0.031
5.837,-0.025
5.838,-0.012
5.839,-0.003
5.840,-0.006
5.841,-0.012
5.842,-0.011
5.843,-0.009
5.844,-0.008
5.845,-0.006
5.846,-0.002
5.847,0.000
5.848,-0.011
5.849,-0.022
5.850,-0.025
5.851,-0.025
5.852,-0.009
5.853,0.003
5.854,0.011
5.855,0.009
5.856,0.011
5.857,0.009
5.858,0.009
5.859,0.006
5.860,0.005
5.861,0.006
5.862,0.006
5.863,0.006
5.864,0.004
5.865,0.006
5.866,0.002
5.867,-0.003
5.868,-0.005
5.869,-0.006
5.870,-0.006
5.871,-0.009
5.872,-0.014
5.873,-0.025
5.874,-0.030
5.875,-0.031
5.876,-0.030
5.877,-0.028
5.878,-0.031
5.879,-0.034
5.880,-0.039
5.881,-0.041
5.882,-0.047
5.883,-0.050
5.884,-0.050
5.885,-0.050
5.886,-0.049
5.887,-0.047
5.888,-0.049
5.889,-0.053
5.890,-0.053
5.891,-0.056
5.892,-0.058
5.893,-0.059
5.894,-0.061
5.895,-0.066
5.896,-0.070
5.897,-0.075
5.898,-0.077
5.899,-0.075
5.900,-0.078
5.901,-0.081
5.902,-0.078
5.903,-0.078
5.904,-0.074
5.905,-0.069
5.906,-0.069
5.907,-0.069
5.908,-0.073
5.909,-0.078
5.910,-0.079
5.911,-0.081
5.912,-0.088
5.913,-0.091
5.914,-0.092
5.915,-0.097
5.916,-0.093
5.917,-0.088
5.918,-0.080
5.919,-0.075
5.920,-0.078
5.921,-0.078
5.922,-0.079
5.923,-0.084
5.924,-0.083
5.925,-0.081
5.926,-0.074
5.927,-0.072
5.928,-0.076
5.929,-0.078
5.930,-0.071
5.931,-0.069
5.932,-0.068
5.933,-0.066
5.934,-0.067
5.935,-0.066
5.936,-0.066
5.937,-0.063
5.938,-0.061
5.939,-0.063
5.940,-0.061
5.941,-0.063
5.942,-0.064
5.943,-0.069
5.944,-0.070
5.945,-0.069
5.946,-0.072
5.947,-0.072
5.948,-0.071
5.949,-0.069
5.950,-0.066
5.951,-0.059
5.952,-0.064
5.953,-0.066
5.954,-0.075
5.955,-0.081
5.956,-0.079
5.957,-0.078
5.958,-0.074
5.959,-0.063
5.960,-0.064
5.961,-0.063
5.962,-0.066
5.963,-0.066
5.964,-0.064
5.965,-0.066
5.966,-0.066
5.967,-0.063
5.968,-0.066
5.969,-0.066
5.970,-0.069
5.971,-0.072
5.972,-0.069
5.973,-0.069
5.974,-0.066
5.975,-0.059
5.976,-0.059
5.977,-0.059
5.978,-0.063
5.979,-0.063
5.980,-0.063
5.981,-0.059
5.982,-0.063
5.983,-0.066
5.984,-0.067
5.985,-0.069
5.986,-0.073
5.987,-0.072
5.988,-0.069
5.989,-0.069
5.990,-0.068
5.991,-0.066
5.992,-0.064
5.993,-0.066
5.994,-0.072
5.995,-0.072
5.996,-0.075
5.997,-0.075
5.998,-0.074
5.999,-0.072
6.000,-0.068
6.001,-0.069
6.002,-0.075
6.003,-0.084
6.004,-0.088
6.005,-0.088
6.006,-0.086
6.007,-0.088
6.008,-0.086
6.009,-0.088
6.010,-0.086
6.011,-0.088
6.012,-0.094
6.013,-0.097
6.014,-0.093
6.015,-0.088
6.016,-0.081
6.017,-0.075
6.018,-0.077
6.019,-0.075
6.020,-0.076
6.021,-0.078
6.022,-0.077
6.023,-0.078
6.024,-0.079
6.025,-0.088
6.026,-0.086
6.027,-0.084
6.028,-0.084
6.029,-0.081
6.030,-0.081
6.031,-0.084
6.032,-0.089
6.033,-0.094
6.034,-0.094
6.035,-0.097
6.036,-0.091
6.037,-0.088
6.038,-0.088
6.039,-0.088
6.040,-0.091
6.041,-0.097
6.042,-0.094
6.043,-0.091
6.044,-0.089
6.045,-0.091
6.046,-0.091
6.047,-0.088
6.048,-0.083
6.049,-0.081
6.050,-0.089
6.051,-0.097
6.052,-0.098
6.053,-0.100
6.054,-0.099
6.055,-0.094
6.056,-0.091
6.057,-0.084
6.058,-0.078
6.059,-0.075
6.060,-0.070
6.061,-0.066
6.062,-0.056
6.063,-0.047
6.064,-0.044
6.065,-0.038
6.066,-0.029
6.067,-0.028
6.068,-0.022
6.069,-0.016
6.070,-0.012
6.071,-0.006
6.072,-0.003
6.073,0.003
6.074,0.006
6.075,0.006
6.076,0.007
6.077,0.009
6.078,0.006
6.079,0.006
6.080,0.011
6.081,0.019
6.082,0.026
6.083,0.037
6.084,0.047
6.085,0.056
6.086,0.061
6.087,0.069
6.088,0.082
6.089,0.100
6.090,0.111
6.091,0.122
6.092,0.131
6.093,0.144
6.094,0.153
6.095,0.166
6.096,0.173
6.097,0.181
6.098,0.186
6.099,0.187
6.100,0.187
6.101,0.181
6.102,0.174
6.103,0.163
6.104,0.150
6.105,0.137
6.106,0.131
6.107,0.128
6.108,0.126
6.109,0.128
6.110,0.125
6.111,0.122
6.112,0.126
6.113,0.131
6.114,0.127
6.115,0.125
6.116,0.122
6.117,0.116
6.118,0.119
6.119,0.116
6.120,0.106
6.121,0.100
6.122,0.092
6.123,0.081
6.124,0.076
6.125,0.072
6.126,0.056
6.127,0.044
6.128,0.028
6.129,0.009
6.130,-0.008
6.131,-0.016
6.132,-0.021
6.133,-0.028
6.134,-0.039
6.135,-0.047
6.136,-0.045
6.137,-0.056
6.138,-0.059
6.139,-0.066
6.140,-0.066
6.141,-0.069
6.142,-0.076
6.143,-0.081
6.144,-0.084
6.145,-0.084
6.146,-0.093
6.147,-0.097
6.148,-0.097
6.149,-0.100
6.150,-0.098
6.151,-0.106
6.152,-0.106
6.153,-0.106
6.154,-0.103
6.155,-0.103
6.156,-0.103
6.157,-0.103
6.158,-0.104
6.159,-0.109
6.160,-0.108
6.161,-0.106
6.162,-0.105
6.163,-0.100
6.164,-0.103
6.165,-0.106
6.166,-0.109
6.167,-0.106
6.168,-0.103
6.169,-0.103
6.170,-0.108
6.171,-0.106
6.172,-0.109
6.173,-0.113
6.174,-0.116
6.175,-0.119
6.176,-0.116
6.177,-0.113
6.178,-0.109
6.179,-0.106
6.180,-0.113
6.181,-0.119
6.182,-0.131
6.183,-0.150
6.184,-0.161
6.185,-0.172
6.186,-0.184
6.187,-0.197
6.188,-0.211
6.189,-0.225
6.190,-0.241
6.191,-0.250
6.192,-0.250
6.193,-0.250
6.194,-0.238
6.195,-0.219
6.196,-0.200
6.197,-0.178
6.198,-0.158
6.199,-0.131
6.200,-0.099
6.201,-0.066
6.202,-0.021
6.203,0.034
6.204,0.092
6.205,0.175
6.206,0.261
6.207,0.359
6.208,0.459
6.209,0.559
6.210,0.664
6.211,0.756
6.212,0.844
6.213,0.903
6.214,0.974
6.215,1.050
6.216,1.150
6.217,1.244
6.218,1.336
6.219,1.428
6.220,1.521
6.221,1.606
6.222,1.678
6.223,1.747
6.224,1.802
6.225,1.834
6.226,1.855
6.227,1.841
6.228,1.825
6.229,1.772
6.230,1.725
6.231,1.613
6.232,1.458
6.233,1.269
6.234,1.059
6.235,0.828
6.236,0.614
6.237,0.469
6.238,0.334
6.239,0.212
6.240,0.096
6.241,-0.006
6.242,-0.080
6.243,-0.116
6.244,-0.141
6.245,-0.144
6.246,-0.148
6.247,-0.150
6.248,-0.146
6.249,-0.144
6.250,-0.136
6.251,-0.125
6.252,-0.114
6.253,-0.103
6.254,-0.100
6.255,-0.097
6.256,-0.083
6.257,-0.066
6.258,-0.059
6.259,-0.053
6.260,-0.045
6.261,-0.047
6.262,-0.053
6.263,-0.056
6.264,-0.064
6.265,-0.069
6.266,-0.073
6.267,-0.081
6.268,-0.088
6.269,-0.091
6.270,-0.091
6.271,-0.094
6.272,-0.093
6.273,-0.094
6.274,-0.097
6.275,-0.103
6.276,-0.111
6.277,-0.116
6.278,-0.120
6.279,-0.122
6.280,-0.118
6.281,-0.113
6.282,-0.109
6.283,-0.106
6.284,-0.111
6.285,-0.109
6.286,-0.109
6.287,-0.109
6.288,-0.109
6.289,-0.109
6.290,-0.108
6.291,-0.103
6.292,-0.111
6.293,-0.119
6.294,-0.125
6.295,-0.131
6.296,-0.125
6.297,-0.119
6.298,-0.118
6.299,-0.109
6.300,-0.111
6.301,-0.109
6.302,-0.108
6.303,-0.109
6.304,-0.108
6.305,-0.109
6.306,-0.111
6.307,-0.113
6.308,-0.120
6.309,-0.125
6.310,-0.123
6.311,-0.125
6.312,-0.128
6.313,-0.128
6.314,-0.125
6.315,-0.125
6.316,-0.124
6.317,-0.122
6.318,-0.122
6.319,-0.125
6.320,-0.121
6.321,-0.116
6.322,-0.113
6.323,-0.106
6.324,-0.108
6.325,-0.109
6.326,-0.109
6.327,-0.113
6.328,-0.116
6.329,-0.113
6.330,-0.114
6.331,-0.113
6.332,-0.111
6.333,-0.113
6.334,-0.109
6.335,-0.109
6.336,-0.105
6.337,-0.106
6.338,-0.106
6.339,-0.109
6.340,-0.108
6.341,-0.109
6.342,-0.108
6.343,-0.106
6.344,-0.102
6.345,-0.100
6.346,-0.097
6.347,-0.094
6.348,-0.094
6.349,-0.091
6.350,-0.095
6.351,-0.094
6.352,-0.095
6.353,-0.094
6.354,-0.094
6.355,-0.097
6.356,-0.093
6.357,-0.091
6.358,-0.095
6.359,-0.094
6.360,-0.098
6.361,-0.100
6.362,-0.094
6.363,-0.084
6.364,-0.083
6.365,-0.078
6.366,-0.078
6.367,-0.078
6.368,-0.078
6.369,-0.081
6.370,-0.078
6.371,-0.075
6.372,-0.075
6.373,-0.072
6.374,-0.072
6.375,-0.072
6.376,-0.076
6.377,-0.081
6.378,-0.083
6.379,-0.081
6.380,-0.077
6.381,-0.072
6.382,-0.064
6.383,-0.056
6.384,-0.055
6.385,-0.050
6.386,-0.047
6.387,-0.047
6.388,-0.041
6.389,-0.044
6.390,-0.047
6.391,-0.047
6.392,-0.047
6.393,-0.044
6.394,-0.045
6.395,-0.050
6.396,-0.054
6.397,-0.053
6.398,-0.057
6.399,-0.063
6.400,-0.056
6.401,-0.047
6.402,-0.036
6.403,-0.025
6.404,-0.023
6.405,-0.025
6.406,-0.023
6.407,-0.025
6.408,-0.026
6.409,-0.025
6.410,-0.024
6.411,-0.019
6.412,-0.019
6.413,-0.019
6.414,-0.019
6.415,-0.019
6.416,-0.023
6.417,-0.022
6.418,-0.019
6.419,-0.019
6.420,-0.018
6.421,-0.016
6.422,-0.009
6.423,-0.006
6.424,-0.009
6.425,-0.009
6.426,-0.009
6.427,-0.009
6.428,-0.008
6.429,-0.006
6.430,-0.008
6.431,-0.006
6.432,-0.006
6.433,-0.003
6.434,-0.005
6.435,0.000
6.436,0.003
6.437,0.009
6.438,0.012
6.439,0.009
6.440,0.005
6.441,-0.003
6.442,-0.006
6.443,-0.006
6.444,-0.002
6.445,0.009
6.446,0.009
6.447,0.009
6.448,0.011
6.449,0.009
6.450,0.009
6.451,0.009
6.452,0.008
6.453,0.006
6.454,0.003
6.455,0.003
6.456,0.006
6.457,0.006
6.458,0.006
6.459,0.006
6.460,0.009
6.461,0.012
6.462,0.016
6.463,0.022
6.464,0.021
6.465,0.019
6.466,0.020
6.467,0.022
6.468,0.022
6.469,0.022
6.470,0.022
6.471,0.022
6.472,0.025
6.473,0.022
6.474,0.025
6.475,0.028
6.476,0.034
6.477,0.037
6.478,0.033
6.479,0.031
6.480,0.031
6.481,0.034
6.482,0.036
6.483,0.034
6.484,0.031
6.485,0.031
6.486,0.031
6.487,0.031
6.488,0.033
6.489,0.031
6.490,0.030
6.491,0.034
6.492,0.034
6.493,0.034
6.494,0.024
6.495,0.019
6.496,0.017
6.497,0.019
6.498,0.017
6.499,0.019
6.500,0.025
6.501,0.025
6.502,0.022
6.503,0.019
6.504,0.014
6.505,0.006
6.506,0.002
6.507,-0.003
6.508,-0.005
6.509,-0.003
6.510,-0.008
6.511,-0.009
6.512,-0.016
6.513,-0.022
6.514,-0.022
6.515,-0.019
6.516,-0.018
6.517,-0.019
6.518,-0.022
6.519,-0.025
6.520,-0.025
6.521,-0.028
6.522,-0.029
6.523,-0.034
6.524,-0.036
6.525,-0.034
6.526,-0.031
6.527,-0.031
6.528,-0.041
6.529,-0.044
6.530,-0.047
6.531,-0.050
6.532,-0.054
6.533,-0.056
6.534,-0.063
6.535,-0.066
6.536,-0.066
6.537,-0.069
6.538,-0.068
6.539,-0.069
6.540,-0.076
6.541,-0.078
6.542,-0.079
6.543,-0.081
6.544,-0.081
6.545,-0.081
6.546,-0.075
6.547,-0.072
6.548,-0.074
6.549,-0.069
6.550,-0.059
6.551,-0.056
6.552,-0.056
6.553,-0.053
6.554,-0.053
6.555,-0.053
6.556,-0.054
6.557,-0.053
6.558,-0.056
6.559,-0.059
6.560,-0.055
6.561,-0.053
6.562,-0.055
6.563,-0.053
6.564,-0.054
6.565,-0.050
6.566,-0.050
6.567,-0.053
6.568,-0.054
6.569,-0.053
6.570,-0.056
6.571,-0.056
6.572,-0.055
6.573,-0.053
6.574,-0.051
6.575,-0.053
6.576,-0.050
6.577,-0.047
6.578,-0.048
6.579,-0.047
6.580,-0.047
6.581,-0.047
6.582,-0.047
6.583,-0.044
6.584,-0.041
6.585,-0.044
6.586,-0.050
6.587,-0.056
6.588,-0.053
6.589,-0.050
6.590,-0.046
6.591,-0.047
6.592,-0.044
6.593,-0.041
6.594,-0.041
6.595,-0.041
6.596,-0.033
6.597,-0.034
6.598,-0.033
6.599,-0.034
6.600,-0.041
6.601,-0.050
6.602,-0.049
6.603,-0.044
6.604,-0.045
6.605,-0.047
6.606,-0.043
6.607,-0.044
6.608,-0.044
6.609,-0.044
6.610,-0.047
6.611,-0.050
6.612,-0.053
6.613,-0.053
6.614,-0.049
6.615,-0.050
6.616,-0.049
6.617,-0.047
6.618,-0.048
6.619,-0.050
6.620,-0.048
6.621,-0.053
6.622,-0.059
6.623,-0.063
6.624,-0.063
6.625,-0.066
6.626,-0.066
6.627,-0.066
6.628,-0.066
6.629,-0.066
6.630,-0.067
6.631,-0.069
6.632,-0.069
6.633,-0.069
6.634,-0.073
6.635,-0.075
6.636,-0.069
6.637,-0.066
6.638,-0.068
6.639,-0.069
6.640,-0.068
6.641,-0.069
6.642,-0.072
6.643,-0.069
6.644,-0.066
6.645,-0.059
6.646,-0.066
6.647,-0.072
6.648,-0.069
6.649,-0.072
6.650,-0.071
6.651,-0.072
6.652,-0.075
6.653,-0.075
6.654,-0.069
6.655,-0.066
6.656,-0.066
6.657,-0.069
6.658,-0.069
6.659,-0.072
6.660,-0.079
6.661,-0.084
6.662,-0.083
6.663,-0.081
6.664,-0.077
6.665,-0.072
6.666,-0.075
6.667,-0.075
6.668,-0.075
6.669,-0.075
6.670,-0.079
6.671,-0.088
6.672,-0.086
6.673,-0.091
6.674,-0.091
6.675,-0.091
6.676,-0.093
6.677,-0.091
6.678,-0.089
6.679,-0.091
6.680,-0.091
6.681,-0.091
6.682,-0.084
6.683,-0.081
6.684,-0.077
6.685,-0.075
6.686,-0.076
6.687,-0.078
6.688,-0.084
6.689,-0.094
6.690,-0.094
6.691,-0.094
6.692,-0.091
6.693,-0.091
6.694,-0.092
6.695,-0.091
6.696,-0.094
6.697,-0.100
6.698,-0.096
6.699,-0.091
6.700,-0.091
6.701,-0.091
6.702,-0.095
6.703,-0.097
6.704,-0.098
6.705,-0.097
6.706,-0.089
6.707,-0.084
6.708,-0.072
6.709,-0.059
6.710,-0.057
6.711,-0.056
6.712,-0.051
6.713,-0.044
6.714,-0.031
6.715,-0.025
6.716,-0.016
6.717,-0.006
6.718,-0.003
6.719,0.003
6.720,0.003
6.721,0.006
6.722,0.008
6.723,0.006
6.724,0.006
6.725,0.006
6.726,0.007
6.727,0.012
6.728,0.016
6.729,0.022
6.730,0.025
6.731,0.031
6.732,0.042
6.733,0.053
6.734,0.062
6.735,0.075
6.736,0.081
6.737,0.091
6.738,0.109
6.739,0.128
6.740,0.136
6.741,0.147
6.742,0.153
6.743,0.163
6.744,0.164
6.745,0.166
6.746,0.171
6.747,0.172
6.748,0.172
6.749,0.166
6.750,0.155
6.751,0.141
6.752,0.136
6.753,0.131
6.754,0.126
6.755,0.125
6.756,0.121
6.757,0.119
6.758,0.119
6.759,0.119
6.760,0.119
6.761,0.119
6.762,0.117
6.763,0.119
6.764,0.122
6.765,0.122
6.766,0.122
6.767,0.116
6.768,0.102
6.769,0.091
6.770,0.078
6.771,0.062
6.772,0.050
6.773,0.037
6.774,0.021
6.775,0.006
6.776,-0.002
6.777,-0.012
6.778,-0.027
6.779,-0.031
6.780,-0.030
6.781,-0.031
6.782,-0.044
6.783,-0.053
6.784,-0.053
6.785,-0.066
6.786,-0.073
6.787,-0.084
6.788,-0.091
6.789,-0.100
6.790,-0.105
6.791,-0.106
6.792,-0.114
6.793,-0.119
6.794,-0.128
6.795,-0.134
6.796,-0.130
6.797,-0.128
6.798,-0.122
6.799,-0.125
6.800,-0.124
6.801,-0.122
6.802,-0.118
6.803,-0.116
6.804,-0.114
6.805,-0.113
6.806,-0.117
6.807,-0.125
6.808,-0.128
6.809,-0.131
6.810,-0.136
6.811,-0.138
6.812,-0.136
6.813,-0.134
6.814,-0.136
6.815,-0.131
6.816,-0.130
6.817,-0.131
6.818,-0.133
6.819,-0.128
6.820,-0.127
6.821,-0.125
6.822,-0.125
6.823,-0.125
6.824,-0.133
6.825,-0.141
6.826,-0.141
6.827,-0.141
6.828,-0.150
6.829,-0.159
6.830,-0.164
6.831,-0.175
6.832,-0.181
6.833,-0.187
6.834,-0.203
6.835,-0.219
6.836,-0.225
6.837,-0.231
6.838,-0.238
6.839,-0.238
6.840,-0.241
6.841,-0.244
6.842,-0.242
6.843,-0.234
6.844,-0.219
6.845,-0.200
6.846,-0.172
6.847,-0.138
6.848,-0.091
6.849,-0.044
6.850,0.019
6.851,0.091
6.852,0.154
6.853,0.244
6.854,0.328
6.855,0.425
6.856,0.528
6.857,0.631
6.858,0.724
6.859,0.803
6.860,0.892
6.861,0.953
6.862,1.041
6.863,1.134
6.864,1.226
6.865,1.312
6.866,1.400
6.867,1.487
6.868,1.571
6.869,1.647
6.870,1.708
6.871,1.766
6.872,1.811
6.873,1.834
6.874,1.842
6.875,1.816
6.876,1.778
6.877,1.703
6.878,1.627
6.879,1.484
6.880,1.314
6.881,1.109
6.882,0.917
6.883,0.703
6.884,0.504
6.885,0.375
6.886,0.232
6.887,0.103
6.888,-0.002
6.889,-0.091
6.890,-0.147
6.891,-0.166
6.892,-0.183
6.893,-0.178
6.894,-0.177
6.895,-0.172
6.896,-0.163
6.897,-0.156
6.898,-0.150
6.899,-0.141
6.900,-0.131
6.901,-0.122
6.902,-0.116
6.903,-0.109
6.904,-0.102
6.905,-0.091
6.906,-0.092
6.907,-0.094
6.908,-0.089
6.909,-0.094
6.910,-0.100
6.911,-0.103
6.912,-0.114
6.913,-0.122
6.914,-0.119
6.915,-0.119
6.916,-0.123
6.917,-0.125
6.918,-0.125
6.919,-0.128
6.920,-0.131
6.921,-0.138
6.922,-0.138
6.923,-0.141
6.924,-0.145
6.925,-0.147
6.926,-0.150
6.927,-0.150
6.928,-0.147
6.929,-0.144
6.930,-0.147
6.931,-0.150
6.932,-0.158
6.933,-0.159
6.934,-0.159
6.935,-0.159
6.936,-0.159
6.937,-0.159
6.938,-0.163
6.939,-0.163
6.940,-0.163
6.941,-0.163
6.942,-0.164
6.943,-0.166
6.944,-0.164
6.945,-0.163
6.946,-0.163
6.947,-0.156
6.948,-0.156
6.949,-0.153
6.950,-0.156
6.951,-0.163
6.952,-0.164
6.953,-0.169
6.954,-0.171
6.955,-0.172
6.956,-0.175
6.957,-0.175
6.958,-0.172
6.959,-0.172
6.960,-0.169
6.961,-0.163
6.962,-0.161
6.963,-0.163
6.964,-0.159
6.965,-0.156
6.966,-0.154
6.967,-0.156
6.968,-0.158
6.969,-0.159
6.970,-0.159
6.971,-0.156
6.972,-0.159
6.973,-0.163
6.974,-0.158
6.975,-0.156
6.976,-0.161
6.977,-0.159
6.978,-0.158
6.979,-0.153
6.980,-0.150
6.981,-0.150
6.982,-0.149
6.983,-0.150
6.984,-0.148
6.985,-0.153
6.986,-0.151
6.987,-0.153
6.988,-0.151
6.989,-0.153
6.990,-0.153
6.991,-0.153
6.992,-0.151
6.993,-0.153
6.994,-0.150
6.995,-0.147
6.996,-0.147
6.997,-0.144
6.998,-0.144
6.999,-0.138
7.000,-0.136
7.001,-0.131
7.002,-0.129
7.003,-0.131
7.004,-0.129
7.005,-0.131
7.006,-0.134
7.007,-0.131
7.008,-0.133
7.009,-0.131
7.010,-0.136
7.011,-0.138
7.012,-0.139
7.013,-0.138
7.014,-0.134
7.015,-0.131
7.016,-0.127
7.017,-0.125
7.018,-0.125
7.019,-0.125
7.020,-0.122
7.021,-0.116
7.022,-0.117
7.023,-0.119
7.024,-0.113
7.025,-0.106
7.026,-0.109
7.027,-0.109
7.028,-0.108
7.029,-0.106
7.030,-0.106
7.031,-0.106
7.032,-0.108
7.033,-0.106
7.034,-0.103
7.035,-0.103
7.036,-0.091
7.037,-0.088
7.038,-0.088
7.039,-0.084
7.040,-0.083
7.041,-0.078
7.042,-0.076
7.043,-0.078
7.044,-0.083
7.045,-0.081
7.046,-0.084
7.047,-0.088
7.048,-0.089
7.049,-0.088
7.050,-0.080
7.051,-0.072
7.052,-0.061
7.053,-0.053
7.054,-0.051
7.055,-0.053
7.056,-0.056
7.057,-0.056
7.058,-0.056
7.059,-0.053
7.060,-0.053
7.061,-0.053
7.062,-0.053
7.063,-0.053
7.064,-0.054
7.065,-0.050
7.066,-0.043
7.067,-0.038
7.068,-0.034
7.069,-0.031
7.070,-0.029
7.071,-0.031
7.072,-0.033
7.073,-0.031
7.074,-0.031
7.075,-0.031
7.076,-0.030
7.077,-0.028
7.078,-0.025
7.079,-0.019
7.080,-0.019
7.081,-0.016
7.082,-0.020
7.083,-0.019
7.084,-0.026
7.085,-0.031
7.086,-0.028
7.087,-0.031
7.088,-0.028
7.089,-0.028
7.090,-0.027
7.091,-0.022
7.092,-0.026
7.093,-0.025
7.094,-0.026
7.095,-0.028
7.096,-0.022
7.097,-0.019
7.098,-0.020
7.099,-0.022
7.100,-0.022
7.101,-0.022
7.102,-0.022
7.103,-0.019
7.104,-0.017
7.105,-0.019
7.106,-0.016
7.107,-0.012
7.108,-0.006
7.109,0.000
7.110,-0.003
7.111,-0.003
7.112,-0.004
7.113,-0.006
7.114,-0.005
7.115,-0.003
7.116,0.000
7.117,0.003
7.118,0.002
7.119,0.000
7.120,0.002
7.121,-0.003
7.122,-0.003
7.123,-0.003
7.124,0.000
7.125,0.000
7.126,-0.006
7.127,-0.009
7.128,-0.009
7.129,-0.006
7.130,0.000
7.131,0.003
7.132,0.006
7.133,0.012
7.134,0.016
7.135,0.019
7.136,0.016
7.137,0.009
7.138,0.008
7.139,0.012
7.140,0.019
7.141,0.025
7.142,0.022
7.143,0.025
7.144,0.025
7.145,0.028
7.146,0.025
7.147,0.025
7.148,0.022
7.149,0.012
7.150,0.008
7.151,0.003
7.152,0.000
7.153,-0.006
7.154,-0.009
7.155,-0.012
7.156,-0.016
7.157,-0.016
7.158,-0.020
7.159,-0.022
7.160,-0.027
7.161,-0.031
7.162,-0.036
7.163,-0.038
7.164,-0.041
7.165,-0.047
7.166,-0.050
7.167,-0.053
7.168,-0.054
7.169,-0.059
7.170,-0.052
7.171,-0.047
7.172,-0.049
7.173,-0.047
7.174,-0.050
7.175,-0.056
7.176,-0.067
7.177,-0.072
7.178,-0.076
7.179,-0.081
7.180,-0.083
7.181,-0.081
7.182,-0.084
7.183,-0.084
7.184,-0.084
7.185,-0.088
7.186,-0.086
7.187,-0.088
7.188,-0.092
7.189,-0.091
7.190,-0.091
7.191,-0.091
7.192,-0.089
7.193,-0.088
7.194,-0.088
7.195,-0.091
7.196,-0.101
7.197,-0.106
7.198,-0.103
7.199,-0.106
7.200,-0.106
7.201,-0.103
7.202,-0.097
7.203,-0.091
7.204,-0.092
7.205,-0.091
7.206,-0.097
7.207,-0.103
7.208,-0.100
7.209,-0.100
7.210,-0.103
7.211,-0.103
7.212,-0.103
7.213,-0.097
7.214,-0.091
7.215,-0.088
7.216,-0.088
7.217,-0.084
7.218,-0.088
7.219,-0.088
7.220,-0.088
7.221,-0.088
7.222,-0.080
7.223,-0.075
7.224,-0.076
7.225,-0.078
7.226,-0.081
7.227,-0.081
7.228,-0.081
7.229,-0.081
7.230,-0.084
7.231,-0.084
7.232,-0.084
7.233,-0.091
7.234,-0.091
7.235,-0.091
7.236,-0.088
7.237,-0.084
7.238,-0.075
7.239,-0.072
7.240,-0.073
7.241,-0.075
7.242,-0.073
7.243,-0.072
7.244,-0.068
7.245,-0.072
7.246,-0.066
7.247,-0.063
7.248,-0.064
7.249,-0.069
7.250,-0.073
7.251,-0.075
7.252,-0.079
7.253,-0.084
7.254,-0.080
7.255,-0.081
7.256,-0.077
7.257,-0.072
7.258,-0.075
7.259,-0.078
7.260,-0.086
7.261,-0.091
7.262,-0.092
7.263,-0.100
7.264,-0.102
7.265,-0.103
7.266,-0.100
7.267,-0.097
7.268,-0.093
7.269,-0.094
7.270,-0.096
7.271,-0.094
7.272,-0.094
7.273,-0.097
7.274,-0.100
7.275,-0.103
7.276,-0.100
7.277,-0.097
7.278,-0.091
7.279,-0.084
7.280,-0.088
7.281,-0.091
7.282,-0.086
7.283,-0.081
7.284,-0.080
7.285,-0.072
7.286,-0.076
7.287,-0.084
7.288,-0.094
7.289,-0.100
7.290,-0.097
7.291,-0.094
7.292,-0.094
7.293,-0.100
7.294,-0.103
7.295,-0.106
7.296,-0.108
7.297,-0.106
7.298,-0.109
7.299,-0.109
7.300,-0.114
7.301,-0.119
7.302,-0.114
7.303,-0.106
7.304,-0.106
7.305,-0.106
7.306,-0.109
7.307,-0.109
7.308,-0.114
7.309,-0.119
7.310,-0.120
7.311,-0.122
7.312,-0.121
7.313,-0.116
7.314,-0.109
7.315,-0.109
7.316,-0.113
7.317,-0.116
7.318,-0.117
7.319,-0.119
7.320,-0.121
7.321,-0.116
7.322,-0.123
7.323,-0.128
7.324,-0.125
7.325,-0.125
7.326,-0.128
7.327,-0.131
7.328,-0.133
7.329,-0.131
7.330,-0.131
7.331,-0.131
7.332,-0.134
7.333,-0.131
7.334,-0.124
7.335,-0.116
7.336,-0.114
7.337,-0.113
7.338,-0.120
7.339,-0.125
7.340,-0.125
7.341,-0.125
7.342,-0.128
7.343,-0.128
7.344,-0.125
7.345,-0.125
7.346,-0.128
7.347,-0.128
7.348,-0.129
7.349,-0.131
7.350,-0.131
7.351,-0.131
7.352,-0.127
7.353,-0.125
7.354,-0.121
7.355,-0.116
7.356,-0.116
7.357,-0.109
7.358,-0.103
7.359,-0.097
7.360,-0.089
7.361,-0.081
7.362,-0.069
7.363,-0.056
7.364,-0.053
7.365,-0.047
7.366,-0.039
7.367,-0.034
7.368,-0.025
7.369,-0.019
7.370,-0.019
7.371,-0.022
7.372,-0.025
7.373,-0.028
7.374,-0.025
7.375,-0.028
7.376,-0.027
7.377,-0.019
7.378,-0.009
7.379,0.000
7.380,0.011
7.381,0.022
7.382,0.033
7.383,0.041
7.384,0.050
7.385,0.062
7.386,0.072
7.387,0.078
7.388,0.089
7.389,0.097
7.390,0.112
7.391,0.125
7.392,0.134
7.393,0.137
7.394,0.139
7.395,0.141
7.396,0.143
7.397,0.144
7.398,0.142
7.399,0.141
7.400,0.136
7.401,0.128
7.402,0.122
7.403,0.116
7.404,0.108
7.405,0.103
7.406,0.100
7.407,0.094
7.408,0.089
7.409,0.091
7.410,0.095
7.411,0.094
7.412,0.087
7.413,0.084
7.414,0.084
7.415,0.084
7.416,0.079
7.417,0.072
7.418,0.066
7.419,0.059
7.420,0.050
7.421,0.041
7.422,0.025
7.423,0.003
7.424,-0.019
7.425,-0.041
7.426,-0.044
7.427,-0.050
7.428,-0.059
7.429,-0.066
7.430,-0.075
7.431,-0.084
7.432,-0.094
7.433,-0.094
7.434,-0.103
7.435,-0.109
7.436,-0.119
7.437,-0.122
7.438,-0.127
7.439,-0.131
7.440,-0.136
7.441,-0.144
7.442,-0.146
7.443,-0.153
7.444,-0.156
7.445,-0.150
7.446,-0.149
7.447,-0.144
7.448,-0.149
7.449,-0.147
7.450,-0.147
7.451,-0.147
7.452,-0.150
7.453,-0.150
7.454,-0.150
7.455,-0.150
7.456,-0.156
7.457,-0.159
7.458,-0.158
7.459,-0.159
7.460,-0.164
7.461,-0.169
7.462,-0.170
7.463,-0.175
7.464,-0.169
7.465,-0.166
7.466,-0.167
7.467,-0.169
7.468,-0.169
7.469,-0.172
7.470,-0.167
7.471,-0.159
7.472,-0.155
7.473,-0.156
7.474,-0.163
7.475,-0.163
7.476,-0.159
7.477,-0.163
7.478,-0.167
7.479,-0.172
7.480,-0.180
7.481,-0.191
7.482,-0.202
7.483,-0.216
7.484,-0.232
7.485,-0.250
7.486,-0.266
7.487,-0.281
7.488,-0.284
7.489,-0.284
7.490,-0.284
7.491,-0.275
7.492,-0.266
7.493,-0.256
7.494,-0.244
7.495,-0.222
7.496,-0.186
7.497,-0.147
7.498,-0.097
7.499,-0.041
7.500,0.028
7.501,0.106
7.502,0.197
7.503,0.291
7.504,0.389
7.505,0.494
7.506,0.592
7.507,0.694
7.508,0.774
7.509,0.856
7.510,0.922
7.511,0.994
7.512,1.079
7.513,1.175
7.514,1.269
7.515,1.369
7.516,1.464
7.517,1.562
7.518,1.647
7.519,1.719
7.520,1.768
7.521,1.806
7.522,1.817
7.523,1.822
7.524,1.792
7.525,1.753
7.526,1.680
7.527,1.603
7.528,1.456
7.529,1.297
7.530,1.108
7.531,0.884
7.532,0.707
7.533,0.512
7.534,0.353
7.535,0.219
7.536,0.087
7.537,-0.025
7.538,-0.105
7.539,-0.172
7.540,-0.199
7.541,-0.213
7.542,-0.219
7.543,-0.216
7.544,-0.213
7.545,-0.206
7.546,-0.199
7.547,-0.184
7.548,-0.172
7.549,-0.163
7.550,-0.152
7.551,-0.141
7.552,-0.138
7.553,-0.134
7.554,-0.129
7.555,-0.131
7.556,-0.131
7.557,-0.125
7.558,-0.126
7.559,-0.131
7.560,-0.131
7.561,-0.138
7.562,-0.142
7.563,-0.141
7.564,-0.139
7.565,-0.141
7.566,-0.144
7.567,-0.150
7.568,-0.159
7.569,-0.163
7.570,-0.169
7.571,-0.175
7.572,-0.178
7.573,-0.178
7.574,-0.179
7.575,-0.184
7.576,-0.183
7.577,-0.181
7.578,-0.181
7.579,-0.181
7.580,-0.180
7.581,-0.184
7.582,-0.184
7.583,-0.184
7.584,-0.192
7.585,-0.200
7.586,-0.196
7.587,-0.194
7.588,-0.191
7.589,-0.187
7.590,-0.184
7.591,-0.181
7.592,-0.180
7.593,-0.178
7.594,-0.178
7.595,-0.181
7.596,-0.179
7.597,-0.181
7.598,-0.181
7.599,-0.181
7.600,-0.181
7.601,-0.181
7.602,-0.186
7.603,-0.191
7.604,-0.195
7.605,-0.200
7.606,-0.203
7.607,-0.203
7.608,-0.202
7.609,-0.203
7.610,-0.203
7.611,-0.200
7.612,-0.197
7.613,-0.194
7.614,-0.195
7.615,-0.194
7.616,-0.187
7.617,-0.181
7.618,-0.180
7.619,-0.178
7.620,-0.175
7.621,-0.178
7.622,-0.181
7.623,-0.178
7.624,-0.178
7.625,-0.181
7.626,-0.183
7.627,-0.187
7.628,-0.184
7.629,-0.181
7.630,-0.184
7.631,-0.187
7.632,-0.192
7.633,-0.191
7.634,-0.195
7.635,-0.194
7.636,-0.194
7.637,-0.191
7.638,-0.191
7.639,-0.191
7.640,-0.189
7.641,-0.184
7.642,-0.186
7.643,-0.187
7.644,-0.186
7.645,-0.184
7.646,-0.177
7.647,-0.175
7.648,-0.171
7.649,-0.169
7.650,-0.163
7.651,-0.156
7.652,-0.156
7.653,-0.153
7.654,-0.150
7.655,-0.150
7.656,-0.148
7.657,-0.150
7.658,-0.146
7.659,-0.147
7.660,-0.148
7.661,-0.150
7.662,-0.150
7.663,-0.150
7.664,-0.153
7.665,-0.156
7.666,-0.153
7.667,-0.150
7.668,-0.150
7.669,-0.147
7.670,-0.136
7.671,-0.131
7.672,-0.133
7.673,-0.134
7.674,-0.134
7.675,-0.134
7.676,-0.125
7.677,-0.116
7.678,-0.111
7.679,-0.109
7.680,-0.111
7.681,-0.113
7.682,-0.109
7.683,-0.106
7.684,-0.106
7.685,-0.100
7.686,-0.104
7.687,-0.106
7.688,-0.104
7.689,-0.106
7.690,-0.104
7.691,-0.103
7.692,-0.099
7.693,-0.094
7.694,-0.086
7.695,-0.084
7.696,-0.091
7.697,-0.097
7.698,-0.094
7.699,-0.094
7.700,-0.097
7.701,-0.094
7.702,-0.089
7.703,-0.084
7.704,-0.077
7.705,-0.069
7.706,-0.066
7.707,-0.066
7.708,-0.059
7.709,-0.056
7.710,-0.057
7.711,-0.059
7.712,-0.064
7.713,-0.069
7.714,-0.069
7.715,-0.072
7.716,-0.071
7.717,-0.069
7.718,-0.064
7.719,-0.056
7.720,-0.055
7.721,-0.053
7.722,-0.050
7.723,-0.050
7.724,-0.047
7.725,-0.044
7.726,-0.041
7.727,-0.038
7.728,-0.039
7.729,-0.044
7.730,-0.042
7.731,-0.047
7.732,-0.039
7.733,-0.034
7.734,-0.034
7.735,-0.034
7.736,-0.034
7.737,-0.031
7.738,-0.033
7.739,-0.034
7.740,-0.036
7.741,-0.038
7.742,-0.033
7.743,-0.034
7.744,-0.039
7.745,-0.044
7.746,-0.043
7.747,-0.038
7.748,-0.031
7.749,-0.025
7.750,-0.026
7.751,-0.028
7.752,-0.028
7.753,-0.028
7.754,-0.029
7.755,-0.031
7.756,-0.033
7.757,-0.034
7.758,-0.036
7.759,-0.038
7.760,-0.036
7.761,-0.038
7.762,-0.038
7.763,-0.038
7.764,-0.036
7.765,-0.034
7.766,-0.034
7.767,-0.031
7.768,-0.024
7.769,-0.016
7.770,-0.012
7.771,-0.006
7.772,-0.008
7.773,-0.003
7.774,0.001
7.775,0.003
7.776,0.006
7.777,0.006
7.778,0.005
7.779,0.003
7.780,0.002
7.781,0.000
7.782,0.000
7.783,-0.003
7.784,-0.006
7.785,-0.009
7.786,-0.006
7.787,0.000
7.788,0.009
7.789,0.016
7.790,0.016
7.791,0.006
7.792,0.005
7.793,0.000
7.794,0.001
7.795,0.000
7.796,0.003
7.797,0.009
7.798,0.007
7.799,0.006
7.800,0.000
7.801,-0.003
7.802,-0.008
7.803,-0.012
7.804,-0.017
7.805,-0.022
7.806,-0.026
7.807,-0.034
7.808,-0.034
7.809,-0.041
7.810,-0.046
7.811,-0.047
7.812,-0.044
7.813,-0.041
7.814,-0.038
7.815,-0.034
7.816,-0.039
7.817,-0.041
7.818,-0.050
7.819,-0.056
7.820,-0.061
7.821,-0.066
7.822,-0.066
7.823,-0.066
7.824,-0.066
7.825,-0.069
7.826,-0.068
7.827,-0.069
7.828,-0.071
7.829,-0.072
7.830,-0.073
7.831,-0.078
7.832,-0.079
7.833,-0.081
7.834,-0.086
7.835,-0.088
7.836,-0.091
7.837,-0.094
7.838,-0.089
7.839,-0.088
7.840,-0.080
7.841,-0.072
7.842,-0.075
7.843,-0.078
7.844,-0.081
7.845,-0.084
7.846,-0.084
7.847,-0.084
7.848,-0.088
7.849,-0.088
7.850,-0.080
7.851,-0.075
7.852,-0.078
7.853,-0.081
7.854,-0.079
7.855,-0.081
7.856,-0.078
7.857,-0.072
7.858,-0.076
7.859,-0.084
7.860,-0.086
7.861,-0.088
7.862,-0.081
7.863,-0.081
7.864,-0.081
7.865,-0.078
7.866,-0.076
7.867,-0.081
7.868,-0.080
7.869,-0.078
7.870,-0.077
7.871,-0.072
7.872,-0.072
7.873,-0.069
7.874,-0.066
7.875,-0.066
7.876,-0.064
7.877,-0.066
7.878,-0.066
7.879,-0.069
7.880,-0.073
7.881,-0.075
7.882,-0.075
7.883,-0.072
7.884,-0.072
7.885,-0.072
7.886,-0.071
7.887,-0.066
7.888,-0.068
7.889,-0.066
7.890,-0.067
7.891,-0.066
7.892,-0.059
7.893,-0.053
7.894,-0.058
7.895,-0.056
7.896,-0.055
7.897,-0.050
7.898,-0.053
7.899,-0.053
7.900,-0.056
7.901,-0.063
7.902,-0.064
7.903,-0.063
7.904,-0.059
7.905,-0.053
7.906,-0.054
7.907,-0.056
7.908,-0.056
7.909,-0.059
7.910,-0.061
7.911,-0.059
7.912,-0.064
7.913,-0.069
7.914,-0.076
7.915,-0.081
7.916,-0.078
7.917,-0.072
7.918,-0.074
7.919,-0.075
7.920,-0.074
7.921,-0.072
7.922,-0.074
7.923,-0.072
7.924,-0.072
7.925,-0.072
7.926,-0.072
7.927,-0.072
7.928,-0.076
7.929,-0.078
7.930,-0.074
7.931,-0.072
7.932,-0.081
7.933,-0.088
7.934,-0.086
7.935,-0.084
7.936,-0.080
7.937,-0.081
7.938,-0.084
7.939,-0.088
7.940,-0.089
7.941,-0.088
7.942,-0.089
7.943,-0.088
7.944,-0.089
7.945,-0.091
7.946,-0.094
7.947,-0.094
7.948,-0.093
7.949,-0.091
7.950,-0.093
7.951,-0.091
7.952,-0.093
7.953,-0.094
7.954,-0.094
7.955,-0.094
7.956,-0.095
7.957,-0.094
7.958,-0.088
7.959,-0.088
7.960,-0.088
7.961,-0.088
7.962,-0.091
7.963,-0.094
7.964,-0.097
7.965,-0.094
7.966,-0.097
7.967,-0.097
7.968,-0.098
7.969,-0.103
7.970,-0.103
7.971,-0.103
7.972,-0.105
7.973,-0.103
7.974,-0.099
7.975,-0.094
7.976,-0.100
7.977,-0.100
7.978,-0.101
7.979,-0.103
7.980,-0.102
7.981,-0.100
7.982,-0.108
7.983,-0.113
7.984,-0.113
7.985,-0.113
7.986,-0.114
7.987,-0.113
7.988,-0.106
7.989,-0.103
7.990,-0.106
7.991,-0.106
7.992,-0.106
7.993,-0.106
7.994,-0.106
7.995,-0.106
7.996,-0.103
7.997,-0.103
7.998,-0.103
7.999,-0.103
8.000,-0.108
8.001,-0.106
8.002,-0.094
8.003,-0.081
8.004,-0.074
8.005,-0.066
8.006,-0.056
8.007,-0.047
8.008,-0.044
8.009,-0.038
8.010,-0.031
8.011,-0.028
8.012,-0.022
8.013,-0.019
8.014,-0.008
8.015,0.000
8.016,-0.001
8.017,-0.003
8.018,-0.003
8.019,-0.009
8.020,-0.014
8.021,-0.012
8.022,-0.006
8.023,0.000
8.024,0.005
8.025,0.009
8.026,0.022
8.027,0.031
8.028,0.042
8.029,0.056
8.030,0.073
8.031,0.087
8.032,0.094
8.033,0.097
8.034,0.111
8.035,0.122
8.036,0.144
8.037,0.159
8.038,0.166
8.039,0.172
8.040,0.174
8.041,0.175
8.042,0.169
8.043,0.163
8.044,0.150
8.045,0.134
8.046,0.125
8.047,0.116
8.048,0.109
8.049,0.106
8.050,0.107
8.051,0.106
8.052,0.103
8.053,0.106
8.054,0.111
8.055,0.109
8.056,0.106
8.057,0.106
8.058,0.106
8.059,0.106
8.060,0.103
8.061,0.097
8.062,0.092
8.063,0.087
8.064,0.079
8.065,0.072
8.066,0.059
8.067,0.041
8.068,0.021
8.069,0.000
8.070,-0.012
8.071,-0.028
8.072,-0.038
8.073,-0.044
8.074,-0.050
8.075,-0.056
8.076,-0.070
8.077,-0.075
8.078,-0.080
8.079,-0.081
8.080,-0.091
8.081,-0.094
8.082,-0.096
8.083,-0.097
8.084,-0.100
8.085,-0.106
8.086,-0.108
8.087,-0.116
8.088,-0.125
8.089,-0.125
8.090,-0.126
8.091,-0.125
8.092,-0.125
8.093,-0.119
8.094,-0.120
8.095,-0.122
8.096,-0.129
8.097,-0.134
8.098,-0.134
8.099,-0.134
8.100,-0.133
8.101,-0.128
8.102,-0.128
8.103,-0.131
8.104,-0.136
8.105,-0.141
8.106,-0.142
8.107,-0.147
8.108,-0.144
8.109,-0.144
8.110,-0.146
8.111,-0.147
8.112,-0.145
8.113,-0.147
8.114,-0.147
8.115,-0.144
8.116,-0.141
8.117,-0.144
8.118,-0.148
8.119,-0.147
8.120,-0.145
8.121,-0.150
8.122,-0.149
8.123,-0.147
8.124,-0.150
8.125,-0.156
8.126,-0.169
8.127,-0.184
8.128,-0.203
8.129,-0.222
8.130,-0.239
8.131,-0.256
8.132,-0.269
8.133,-0.278
8.134,-0.281
8.135,-0.275
8.136,-0.264
8.137,-0.253
8.138,-0.234
8.139,-0.206
8.140,-0.178
8.141,-0.147
8.142,-0.108
8.143,-0.063
8.144,-0.011
8.145,0.050
8.146,0.139
8.147,0.231
8.148,0.332
8.149,0.441
8.150,0.551
8.151,0.666
8.152,0.758
8.153,0.853
8.154,0.916
8.155,0.984
8.156,1.070
8.157,1.166
8.158,1.257
8.159,1.356
8.160,1.448
8.161,1.544
8.162,1.634
8.163,1.712
8.164,1.775
8.165,1.828
8.166,1.856
8.167,1.878
8.168,1.864
8.169,1.841
8.170,1.771
8.171,1.697
8.172,1.569
8.173,1.428
8.174,1.252
8.175,1.041
8.176,0.842
8.177,0.625
8.178,0.464
8.179,0.328
8.180,0.187
8.181,0.066
8.182,-0.033
8.183,-0.119
8.184,-0.153
8.185,-0.175
8.186,-0.178
8.187,-0.172
8.188,-0.169
8.189,-0.163
8.190,-0.161
8.191,-0.153
8.192,-0.141
8.193,-0.131
8.194,-0.126
8.195,-0.122
8.196,-0.114
8.197,-0.106
8.198,-0.096
8.199,-0.091
8.200,-0.097
8.201,-0.097
8.202,-0.100
8.203,-0.106
8.204,-0.111
8.205,-0.122
8.206,-0.125
8.207,-0.122
8.208,-0.119
8.209,-0.119
8.210,-0.119
8.211,-0.122
8.212,-0.131
8.213,-0.134
8.214,-0.136
8.215,-0.138
8.216,-0.141
8.217,-0.141
8.218,-0.141
8.219,-0.144
8.220,-0.141
8.221,-0.138
8.222,-0.138
8.223,-0.138
8.224,-0.138
8.225,-0.144
8.226,-0.144
8.227,-0.144
8.228,-0.144
8.229,-0.144
8.230,-0.145
8.231,-0.150
8.232,-0.150
8.233,-0.150
8.234,-0.153
8.235,-0.156
8.236,-0.158
8.237,-0.159
8.238,-0.159
8.239,-0.163
8.240,-0.158
8.241,-0.156
8.242,-0.152
8.243,-0.147
8.244,-0.146
8.245,-0.144
8.246,-0.144
8.247,-0.144
8.248,-0.156
8.249,-0.169
8.250,-0.169
8.251,-0.166
8.252,-0.164
8.253,-0.166
8.254,-0.161
8.255,-0.153
8.256,-0.156
8.257,-0.159
8.258,-0.161
8.259,-0.159
8.260,-0.161
8.261,-0.163
8.262,-0.164
8.263,-0.166
8.264,-0.159
8.265,-0.159
8.266,-0.163
8.267,-0.159
8.268,-0.155
8.269,-0.153
8.270,-0.150
8.271,-0.150
8.272,-0.148
8.273,-0.147
8.274,-0.147
8.275,-0.147
8.276,-0.150
8.277,-0.147
8.278,-0.151
8.279,-0.150
8.280,-0.150
8.281,-0.147
8.282,-0.147
8.283,-0.147
8.284,-0.146
8.285,-0.141
8.286,-0.141
8.287,-0.141
8.288,-0.142
8.289,-0.144
8.290,-0.141
8.291,-0.144
8.292,-0.138
8.293,-0.134
8.294,-0.133
8.295,-0.131
8.296,-0.131
8.297,-0.128
8.298,-0.125
8.299,-0.125
8.300,-0.123
8.301,-0.125
8.302,-0.125
8.303,-0.131
8.304,-0.130
8.305,-0.128
8.306,-0.126
8.307,-0.125
8.308,-0.122
8.309,-0.119
8.310,-0.119
8.311,-0.119
8.312,-0.118
8.313,-0.113
8.314,-0.106
8.315,-0.106
8.316,-0.106
8.317,-0.106
8.318,-0.106
8.319,-0.106
8.320,-0.102
8.321,-0.097
8.322,-0.089
8.323,-0.084
8.324,-0.086
8.325,-0.088
8.326,-0.086
8.327,-0.084
8.328,-0.089
8.329,-0.088
8.330,-0.091
8.331,-0.091
8.332,-0.089
8.333,-0.091
8.334,-0.091
8.335,-0.091
8.336,-0.083
8.337,-0.075
8.338,-0.070
8.339,-0.072
8.340,-0.073
8.341,-0.075
8.342,-0.072
8.343,-0.072
8.344,-0.071
8.345,-0.063
8.346,-0.058
8.347,-0.053
8.348,-0.052
8.349,-0.050
8.350,-0.048
8.351,-0.050
8.352,-0.047
8.353,-0.047
8.354,-0.047
8.355,-0.047
8.356,-0.050
8.357,-0.053
8.358,-0.046
8.359,-0.041
8.360,-0.041
8.361,-0.041
8.362,-0.044
8.363,-0.044
8.364,-0.044
8.365,-0.044
8.366,-0.042
8.367,-0.044
8.368,-0.045
8.369,-0.047
8.370,-0.039
8.371,-0.031
8.372,-0.028
8.373,-0.028
8.374,-0.024
8.375,-0.025
8.376,-0.019
8.377,-0.016
8.378,-0.012
8.379,-0.009
8.380,-0.014
8.381,-0.016
8.382,-0.018
8.383,-0.019
8.384,-0.020
8.385,-0.022
8.386,-0.019
8.387,-0.022
8.388,-0.022
8.389,-0.022
8.390,-0.022
8.391,-0.019
8.392,-0.018
8.393,-0.016
8.394,-0.019
8.395,-0.022
8.396,-0.023
8.397,-0.025
8.398,-0.024
8.399,-0.022
8.400,-0.021
8.401,-0.019
8.402,-0.020
8.403,-0.022
8.404,-0.018
8.405,-0.016
8.406,-0.016
8.407,-0.016
8.408,-0.014
8.409,-0.012
8.410,-0.011
8.411,-0.006
8.412,-0.002
8.413,0.003
8.414,0.001
8.415,0.003
8.416,0.002
8.417,0.006
8.418,0.008
8.419,0.006
8.420,0.006
8.421,0.003
8.422,0.003
8.423,0.003
8.424,0.004
8.425,0.006
8.426,0.011
8.427,0.012
8.428,0.012
8.429,0.012
8.430,0.009
8.431,0.009
8.432,0.012
8.433,0.012
8.434,0.016
8.435,0.009
8.436,0.011
8.437,0.009
8.438,0.011
8.439,0.009
8.440,0.006
8.441,0.006
8.442,0.006
8.443,0.006
8.444,0.002
8.445,0.000
8.446,0.000
8.447,0.000
8.448,-0.003
8.449,-0.006
8.450,-0.005
8.451,-0.006
8.452,-0.003
8.453,-0.006
8.454,-0.012
8.455,-0.016
8.456,-0.020
8.457,-0.025
8.458,-0.028
8.459,-0.031
8.460,-0.039
8.461,-0.044
8.462,-0.046
8.463,-0.044
8.464,-0.050
8.465,-0.056
8.466,-0.057
8.467,-0.059
8.468,-0.059
8.469,-0.063
8.470,-0.064
8.471,-0.069
8.472,-0.072
8.473,-0.075
8.474,-0.076
8.475,-0.081
8.476,-0.081
8.477,-0.081
8.478,-0.084
8.479,-0.084
8.480,-0.086
8.481,-0.088
8.482,-0.088
8.483,-0.091
8.484,-0.089
8.485,-0.088
8.486,-0.075
8.487,-0.063
8.488,-0.066
8.489,-0.069
8.490,-0.073
8.491,-0.078
8.492,-0.086
8.493,-0.091
8.494,-0.089
8.495,-0.091
8.496,-0.091
8.497,-0.091
8.498,-0.084
8.499,-0.081
8.500,-0.081
8.501,-0.078
8.502,-0.077
8.503,-0.078
8.504,-0.081
8.505,-0.084
8.506,-0.077
8.507,-0.075
8.508,-0.077
8.509,-0.075
8.510,-0.068
8.511,-0.066
8.512,-0.069
8.513,-0.072
8.514,-0.069
8.515,-0.063
8.516,-0.063
8.517,-0.059
8.518,-0.057
8.519,-0.059
8.520,-0.057
8.521,-0.059
8.522,-0.064
8.523,-0.072
8.524,-0.073
8.525,-0.072
8.526,-0.075
8.527,-0.075
8.528,-0.075
8.529,-0.075
8.530,-0.079
8.531,-0.081
8.532,-0.083
8.533,-0.081
8.534,-0.080
8.535,-0.075
8.536,-0.072
8.537,-0.069
8.538,-0.076
8.539,-0.078
8.540,-0.078
8.541,-0.075
8.542,-0.077
8.543,-0.075
8.544,-0.072
8.545,-0.072
8.546,-0.071
8.547,-0.066
8.548,-0.069
8.549,-0.069
8.550,-0.066
8.551,-0.063
8.552,-0.061
8.553,-0.063
8.554,-0.064
8.555,-0.063
8.556,-0.066
8.557,-0.069
8.558,-0.073
8.559,-0.075
8.560,-0.075
8.561,-0.072
8.562,-0.076
8.563,-0.075
8.564,-0.072
8.565,-0.072
8.566,-0.079
8.567,-0.084
8.568,-0.084
8.569,-0.084
8.570,-0.080
8.571,-0.081
8.572,-0.081
8.573,-0.081
8.574,-0.088
8.575,-0.091
8.576,-0.097
8.577,-0.100
8.578,-0.097
8.579,-0.094
8.580,-0.093
8.581,-0.088
8.582,-0.089
8.583,-0.091
8.584,-0.097
8.585,-0.100
8.586,-0.103
8.587,-0.106
8.588,-0.105
8.589,-0.103
8.590,-0.104
8.591,-0.103
8.592,-0.094
8.593,-0.091
8.594,-0.089
8.595,-0.088
8.596,-0.091
8.597,-0.094
8.598,-0.098
8.599,-0.097
8.600,-0.096
8.601,-0.091
8.602,-0.088
8.603,-0.088
8.604,-0.088
8.605,-0.088
8.606,-0.095
8.607,-0.100
8.608,-0.103
8.609,-0.106
8.610,-0.111
8.611,-0.109
8.612,-0.113
8.613,-0.116
8.614,-0.120
8.615,-0.125
8.616,-0.127
8.617,-0.125
8.618,-0.125
8.619,-0.125
8.620,-0.128
8.621,-0.128
8.622,-0.121
8.623,-0.116
8.624,-0.119
8.625,-0.119
8.626,-0.120
8.627,-0.122
8.628,-0.118
8.629,-0.113
8.630,-0.105
8.631,-0.100
8.632,-0.101
8.633,-0.103
8.634,-0.108
8.635,-0.106
8.636,-0.101
8.637,-0.097
8.638,-0.095
8.639,-0.094
8.640,-0.088
8.641,-0.081
8.642,-0.079
8.643,-0.075
8.644,-0.070
8.645,-0.069
8.646,-0.061
8.647,-0.056
8.648,-0.046
8.649,-0.038
8.650,-0.031
8.651,-0.025
8.652,-0.018
8.653,-0.016
8.654,-0.022
8.655,-0.022
8.656,-0.022
8.657,-0.022
8.658,-0.016
8.659,-0.009
8.660,-0.001
8.661,0.003
8.662,0.009
8.663,0.019
8.664,0.031
8.665,0.041
8.666,0.054
8.667,0.066
8.668,0.077
8.669,0.084
8.670,0.096
8.671,0.100
8.672,0.114
8.673,0.128
8.674,0.134
8.675,0.141
8.676,0.141
8.677,0.141
8.678,0.148
8.679,0.153
8.680,0.150
8.681,0.147
8.682,0.137
8.683,0.131
8.684,0.124
8.685,0.112
8.686,0.106
8.687,0.106
8.688,0.109
8.689,0.106
8.690,0.105
8.691,0.106
8.692,0.107
8.693,0.109
8.694,0.111
8.695,0.109
8.696,0.103
8.697,0.097
8.698,0.089
8.699,0.081
8.700,0.078
8.701,0.069
8.702,0.059
8.703,0.050
8.704,0.031
8.705,0.009
8.706,-0.006
8.707,-0.019
8.708,-0.025
8.709,-0.031
8.710,-0.042
8.711,-0.044
8.712,-0.053
8.713,-0.059
8.714,-0.068
8.715,-0.069
8.716,-0.083
8.717,-0.097
8.718,-0.101
8.719,-0.109
8.720,-0.108
8.721,-0.113
8.722,-0.118
8.723,-0.113
8.724,-0.114
8.725,-0.113
8.726,-0.126
8.727,-0.134
8.728,-0.138
8.729,-0.141
8.730,-0.141
8.731,-0.138
8.732,-0.138
8.733,-0.138
8.734,-0.139
8.735,-0.138
8.736,-0.138
8.737,-0.141
8.738,-0.136
8.739,-0.131
8.740,-0.130
8.741,-0.131
8.742,-0.129
8.743,-0.131
8.744,-0.134
8.745,-0.138
8.746,-0.136
8.747,-0.138
8.748,-0.139
8.749,-0.138
8.750,-0.139
8.751,-0.147
8.752,-0.151
8.753,-0.150
8.754,-0.144
8.755,-0.144
8.756,-0.143
8.757,-0.141
8.758,-0.139
8.759,-0.141
8.760,-0.152
8.761,-0.166
8.762,-0.178
8.763,-0.191
8.764,-0.211
8.765,-0.231
8.766,-0.250
8.767,-0.266
8.768,-0.281
8.769,-0.288
8.770,-0.288
8.771,-0.288
8.772,-0.284
8.773,-0.272
8.774,-0.258
8.775,-0.241
8.776,-0.223
8.777,-0.200
8.778,-0.175
8.779,-0.141
8.780,-0.088
8.781,-0.031
8.782,0.053
8.783,0.144
8.784,0.248
8.785,0.356
8.786,0.470
8.787,0.587
8.788,0.676
8.789,0.772
8.790,0.834
8.791,0.906
8.792,0.975
8.793,1.050
8.794,1.142
8.795,1.237
8.796,1.337
8.797,1.425
8.798,1.516
8.799,1.597
8.800,1.675
8.801,1.747
8.802,1.797
8.803,1.837
8.804,1.841
8.805,1.841
8.806,1.801
8.807,1.750
8.808,1.654
8.809,1.525
8.810,1.308
8.811,1.072
8.812,0.816
8.813,0.584
8.814,0.437
8.815,0.309
8.816,0.197
8.817,0.097
8.818,0.002
8.819,-0.081
8.820,-0.123
8.821,-0.156
8.822,-0.169
8.823,-0.178
8.824,-0.183
8.825,-0.181
8.826,-0.175
8.827,-0.172
8.828,-0.169
8.829,-0.166
8.830,-0.158
8.831,-0.150
8.832,-0.134
8.833,-0.125
8.834,-0.122
8.835,-0.113
8.836,-0.103
8.837,-0.097
8.838,-0.089
8.839,-0.088
8.840,-0.091
8.841,-0.088
8.842,-0.095
8.843,-0.106
8.844,-0.105
8.845,-0.106
8.846,-0.114
8.847,-0.116
8.848,-0.118
8.849,-0.119
8.850,-0.124
8.851,-0.125
8.852,-0.124
8.853,-0.125
8.854,-0.125
8.855,-0.125
8.856,-0.125
8.857,-0.125
8.858,-0.122
8.859,-0.125
8.860,-0.129
8.861,-0.134
8.862,-0.136
8.863,-0.138
8.864,-0.138
8.865,-0.141
8.866,-0.141
8.867,-0.141
8.868,-0.142
8.869,-0.144
8.870,-0.144
8.871,-0.144
8.872,-0.147
8.873,-0.153
8.874,-0.149
8.875,-0.147
8.876,-0.136
8.877,-0.125
8.878,-0.125
8.879,-0.125
8.880,-0.128
8.881,-0.131
8.882,-0.138
8.883,-0.144
8.884,-0.147
8.885,-0.147
8.886,-0.146
8.887,-0.147
8.888,-0.148
8.889,-0.147
8.890,-0.146
8.891,-0.144
8.892,-0.139
8.893,-0.131
8.894,-0.131
8.895,-0.131
8.896,-0.131
8.897,-0.131
8.898,-0.128
8.899,-0.131
8.900,-0.134
8.901,-0.131
8.902,-0.131
8.903,-0.134
8.904,-0.133
8.905,-0.134
8.906,-0.133
8.907,-0.131
8.908,-0.130
8.909,-0.128
8.910,-0.131
8.911,-0.128
8.912,-0.125
8.913,-0.116
8.914,-0.116
8.915,-0.113
8.916,-0.114
8.917,-0.116
8.918,-0.119
8.919,-0.119
8.920,-0.122
8.921,-0.125
8.922,-0.126
8.923,-0.128
8.924,-0.124
8.925,-0.125
8.926,-0.122
8.927,-0.122
8.928,-0.123
8.929,-0.125
8.930,-0.125
8.931,-0.122
8.932,-0.119
8.933,-0.119
8.934,-0.116
8.935,-0.116
8.936,-0.114
8.937,-0.119
8.938,-0.119
8.939,-0.119
8.940,-0.113
8.941,-0.106
8.942,-0.106
8.943,-0.106
8.944,-0.102
8.945,-0.097
8.946,-0.096
8.947,-0.091
8.948,-0.083
8.949,-0.081
8.950,-0.083
8.951,-0.084
8.952,-0.086
8.953,-0.088
8.954,-0.083
8.955,-0.078
8.956,-0.079
8.957,-0.084
8.958,-0.086
8.959,-0.088
8.960,-0.078
8.961,-0.069
8.962,-0.072
8.963,-0.069
8.964,-0.072
8.965,-0.072
8.966,-0.072
8.967,-0.075
8.968,-0.073
8.969,-0.072
8.970,-0.073
8.971,-0.075
8.972,-0.066
8.973,-0.063
8.974,-0.064
8.975,-0.066
8.976,-0.064
8.977,-0.066
8.978,-0.063
8.979,-0.053
8.980,-0.049
8.981,-0.044
8.982,-0.043
8.983,-0.041
8.984,-0.038
8.985,-0.038
8.986,-0.036
8.987,-0.038
8.988,-0.042
8.989,-0.047
8.990,-0.047
8.991,-0.047
8.992,-0.041
8.993,-0.038
8.994,-0.031
8.995,-0.025
8.996,-0.026
8.997,-0.025
8.998,-0.029
8.999,-0.034
9.000,-0.033
9.001,-0.034
9.002,-0.034
9.003,-0.034
9.004,-0.036
9.005,-0.038
9.006,-0.030
9.007,-0.025
9.008,-0.021
9.009,-0.022
9.010,-0.020
9.011,-0.022
9.012,-0.023
9.013,-0.025
9.014,-0.024
9.015,-0.019
9.016,-0.014
9.017,-0.009
9.018,-0.009
9.019,-0.009
9.020,-0.009
9.021,-0.016
9.022,-0.023
9.023,-0.031
9.024,-0.033
9.025,-0.031
9.026,-0.031
9.027,-0.031
9.028,-0.025
9.029,-0.019
9.030,-0.014
9.031,-0.009
9.032,-0.009
9.033,-0.009
9.034,-0.011
9.035,-0.012
9.036,-0.012
9.037,-0.012
9.038,-0.009
9.039,-0.009
9.040,-0.011
9.041,-0.012
9.042,-0.012
9.043,-0.012
9.044,-0.011
9.045,-0.006
9.046,-0.004
9.047,-0.003
9.048,0.000
9.049,0.006
9.050,0.002
9.051,0.003
9.052,0.003
9.053,0.000
9.054,0.002
9.055,0.000
9.056,0.004
9.057,0.009
9.058,0.012
9.059,0.016
9.060,0.017
9.061,0.016
9.062,0.017
9.063,0.019
9.064,0.023
9.065,0.031
9.066,0.033
9.067,0.031
9.068,0.034
9.069,0.028
9.070,0.029
9.071,0.028
9.072,0.031
9.073,0.031
9.074,0.030
9.075,0.031
9.076,0.024
9.077,0.016
9.078,0.009
9.079,0.006
9.080,0.009
9.081,0.012
9.082,0.016
9.083,0.019
9.084,0.019
9.085,0.016
9.086,0.019
9.087,0.016
9.088,0.006
9.089,0.000
9.090,-0.004
9.091,-0.009
9.092,-0.009
9.093,-0.009
9.094,-0.011
9.095,-0.009
9.096,-0.016
9.097,-0.019
9.098,-0.018
9.099,-0.016
9.100,-0.016
9.101,-0.016
9.102,-0.022
9.103,-0.031
9.104,-0.036
9.105,-0.044
9.106,-0.046
9.107,-0.047
9.108,-0.050
9.109,-0.056
9.110,-0.053
9.111,-0.050
9.112,-0.053
9.113,-0.053
9.114,-0.053
9.115,-0.053
9.116,-0.053
9.117,-0.056
9.118,-0.055
9.119,-0.053
9.120,-0.053
9.121,-0.053
9.122,-0.053
9.123,-0.053
9.124,-0.050
9.125,-0.047
9.126,-0.049
9.127,-0.047
9.128,-0.048
9.129,-0.053
9.130,-0.054
9.131,-0.056
9.132,-0.054
9.133,-0.056
9.134,-0.057
9.135,-0.056
9.136,-0.055
9.137,-0.056
9.138,-0.057
9.139,-0.059
9.140,-0.053
9.141,-0.053
9.142,-0.055
9.143,-0.053
9.144,-0.049
9.145,-0.050
9.146,-0.050
9.147,-0.050
9.148,-0.053
9.149,-0.053
9.150,-0.047
9.151,-0.038
9.152,-0.033
9.153,-0.031
9.154,-0.028
9.155,-0.028
9.156,-0.027
9.157,-0.028
9.158,-0.034
9.159,-0.038
9.160,-0.044
9.161,-0.047
9.162,-0.048
9.163,-0.050
9.164,-0.054
9.165,-0.056
9.166,-0.056
9.167,-0.053
9.168,-0.050
9.169,-0.044
9.170,-0.036
9.171,-0.028
9.172,-0.034
9.173,-0.034
9.174,-0.036
9.175,-0.034
9.176,-0.039
9.177,-0.041
9.178,-0.039
9.179,-0.041
9.180,-0.044
9.181,-0.044
9.182,-0.047
9.183,-0.047
9.184,-0.043
9.185,-0.038
9.186,-0.038
9.187,-0.041
9.188,-0.041
9.189,-0.038
9.190,-0.041
9.191,-0.044
9.192,-0.049
9.193,-0.047
9.194,-0.045
9.195,-0.047
9.196,-0.056
9.197,-0.066
9.198,-0.067
9.199,-0.072
9.200,-0.075
9.201,-0.072
9.202,-0.072
9.203,-0.069
9.204,-0.070
9.205,-0.072
9.206,-0.064
9.207,-0.063
9.208,-0.058
9.209,-0.056
9.210,-0.058
9.211,-0.056
9.212,-0.056
9.213,-0.059
9.214,-0.059
9.215,-0.063
9.216,-0.059
9.217,-0.059
9.218,-0.064
9.219,-0.066
9.220,-0.064
9.221,-0.063
9.222,-0.059
9.223,-0.056
9.224,-0.064
9.225,-0.069
9.226,-0.073
9.227,-0.078
9.228,-0.079
9.229,-0.084
9.230,-0.081
9.231,-0.084
9.232,-0.078
9.233,-0.072
9.234,-0.071
9.235,-0.066
9.236,-0.067
9.237,-0.072
9.238,-0.073
9.239,-0.075
9.240,-0.078
9.241,-0.084
9.242,-0.078
9.243,-0.075
9.244,-0.075
9.245,-0.075
9.246,-0.071
9.247,-0.069
9.248,-0.069
9.249,-0.069
9.250,-0.069
9.251,-0.072
9.252,-0.078
9.253,-0.081
9.254,-0.081
9.255,-0.084
9.256,-0.080
9.257,-0.075
9.258,-0.075
9.259,-0.075
9.260,-0.075
9.261,-0.072
9.262,-0.073
9.263,-0.072
9.264,-0.069
9.265,-0.069
9.266,-0.064
9.267,-0.059
9.268,-0.056
9.269,-0.053
9.270,-0.051
9.271,-0.047
9.272,-0.031
9.273,-0.022
9.274,-0.017
9.275,-0.012
9.276,-0.011
9.277,-0.006
9.278,-0.004
9.279,0.000
9.280,0.009
9.281,0.016
9.282,0.014
9.283,0.012
9.284,0.005
9.285,0.000
9.286,-0.001
9.287,0.000
9.288,0.006
9.289,0.016
9.290,0.028
9.291,0.041
9.292,0.048
9.293,0.059
9.294,0.067
9.295,0.078
9.296,0.092
9.297,0.106
9.298,0.119
9.299,0.134
9.300,0.141
9.301,0.150
9.302,0.161
9.303,0.172
9.304,0.177
9.305,0.178
9.306,0.182
9.307,0.181
9.308,0.178
9.309,0.172
9.310,0.159
9.311,0.147
9.312,0.141
9.313,0.137
9.314,0.137
9.315,0.141
9.316,0.137
9.317,0.134
9.318,0.130
9.319,0.125
9.320,0.121
9.321,0.119
9.322,0.123
9.323,0.125
9.324,0.128
9.325,0.125
9.326,0.120
9.327,0.119
9.328,0.117
9.329,0.112
9.330,0.099
9.331,0.084
9.332,0.067
9.333,0.053
9.334,0.050
9.335,0.044
9.336,0.021
9.337,0.006
9.338,-0.004
9.339,-0.019
9.340,-0.024
9.341,-0.025
9.342,-0.006
9.343,0.000
9.344,0.001
9.345,0.000
9.346,0.001
9.347,0.000
9.348,-0.020
9.349,-0.038
9.350,-0.061
9.351,-0.081
9.352,-0.086
9.353,-0.088
9.354,-0.086
9.355,-0.088
9.356,-0.084
9.357,-0.091
