'Elapsed time','II'
'seconds','mV'
0.000,0.122
0.001,0.122
0.002,0.122
0.003,0.122
0.004,0.122
0.005,0.122
0.006,0.122
0.007,0.122
0.008,0.122
0.009,0.122
0.010,0.122
0.011,0.122
0.012,0.122
0.013,0.122
0.014,0.122
0.015,0.122
0.016,0.122
0.017,0.122
0.018,0.122
0.019,0.122
0.020,0.122
0.021,0.122
0.022,0.121
0.023,0.119
0.024,0.118
0.025,0.116
0.026,0.114
0.027,0.109
0.028,0.109
0.029,0.109
0.030,0.109
0.031,0.103
0.032,0.097
0.033,0.094
0.034,0.093
0.035,0.091
0.036,0.089
0.037,0.088
0.038,0.084
0.039,0.084
0.040,0.080
0.041,0.075
0.042,0.069
0.043,0.066
0.044,0.061
0.045,0.059
0.046,0.058
0.047,0.053
0.048,0.050
0.049,0.050
0.050,0.044
0.051,0.041
0.052,0.038
0.053,0.034
0.054,0.036
0.055,0.031
0.056,0.027
0.057,0.025
0.058,0.023
0.059,0.025
0.060,0.021
0.061,0.016
0.062,0.011
0.063,0.006
0.064,0.006
0.065,0.006
0.066,-0.001
0.067,-0.006
0.068,-0.006
0.069,-0.009
0.070,-0.009
0.071,-0.013
0.072,-0.014
0.073,-0.016
0.074,-0.013
0.075,-0.013
0.076,-0.019
0.077,-0.022
0.078,-0.019
0.079,-0.019
0.080,-0.023
0.081,-0.025
0.082,-0.024
0.083,-0.022
0.084,-0.024
0.085,-0.022
0.086,-0.025
0.087,-0.025
0.088,-0.022
0.089,-0.025
0.090,-0.025
0.091,-0.028
0.092,-0.031
0.093,-0.031
0.094,-0.028
0.095,-0.031
0.096,-0.031
0.097,-0.031
0.098,-0.033
0.099,-0.031
0.100,-0.034
0.101,-0.031
0.102,-0.031
0.103,-0.028
0.104,-0.030
0.105,-0.028
0.106,-0.028
0.107,-0.031
0.108,-0.027
0.109,-0.028
0.110,-0.027
0.111,-0.025
0.112,-0.025
0.113,-0.025
0.114,-0.026
0.115,-0.028
0.116,-0.025
0.117,-0.028
0.118,-0.029
0.119,-0.031
0.120,-0.034
0.121,-0.031
0.122,-0.028
0.123,-0.028
0.124,-0.028
0.125,-0.028
0.126,-0.028
0.127,-0.028
0.128,-0.029
0.129,-0.028
0.130,-0.028
0.131,-0.028
0.132,-0.026
0.133,-0.028
0.134,-0.027
0.135,-0.028
0.136,-0.028
0.137,-0.028
0.138,-0.028
0.139,-0.028
0.140,-0.021
0.141,-0.019
0.142,-0.022
0.143,-0.022
0.144,-0.022
0.145,-0.022
0.146,-0.026
0.147,-0.025
0.148,-0.025
0.149,-0.025
0.150,-0.021
0.151,-0.019
0.152,-0.023
0.153,-0.025
0.154,-0.025
0.155,-0.028
0.156,-0.027
0.157,-0.025
0.158,-0.025
0.159,-0.025
0.160,-0.025
0.161,-0.025
0.162,-0.025
0.163,-0.025
0.164,-0.025
0.165,-0.025
0.166,-0.025
0.167,-0.028
0.168,-0.029
0.169,-0.028
0.170,-0.027
0.171,-0.028
0.172,-0.027
0.173,-0.028
0.174,-0.026
0.175,-0.031
0.176,-0.031
0.177,-0.031
0.178,-0.034
0.179,-0.034
0.180,-0.034
0.181,-0.034
0.182,-0.038
0.183,-0.041
0.184,-0.044
0.185,-0.044
0.186,-0.044
0.187,-0.044
0.188,-0.044
0.189,-0.047
0.190,-0.046
0.191,-0.047
0.192,-0.047
0.193,-0.047
0.194,-0.048
0.195,-0.050
0.196,-0.050
0.197,-0.050
0.198,-0.049
0.199,-0.050
0.200,-0.053
0.201,-0.056
0.202,-0.058
0.203,-0.056
0.204,-0.059
0.205,-0.056
0.206,-0.059
0.207,-0.059
0.208,-0.061
0.209,-0.063
0.210,-0.064
0.211,-0.066
0.212,-0.069
0.213,-0.069
0.214,-0.069
0.215,-0.072
0.216,-0.072
0.217,-0.072
0.218,-0.074
0.219,-0.069
0.220,-0.069
0.221,-0.066
0.222,-0.066
0.223,-0.066
0.224,-0.067
0.225,-0.066
0.226,-0.068
0.227,-0.066
0.228,-0.069
0.229,-0.069
0.230,-0.070
0.231,-0.072
0.232,-0.071
0.233,-0.072
0.234,-0.075
0.235,-0.075
0.236,-0.074
0.237,-0.072
0.238,-0.072
0.239,-0.072
0.240,-0.072
0.241,-0.072
0.242,-0.075
0.243,-0.075
0.244,-0.075
0.245,-0.075
0.246,-0.075
0.247,-0.078
0.248,-0.081
0.249,-0.081
0.250,-0.084
0.251,-0.084
0.252,-0.083
0.253,-0.081
0.254,-0.086
0.255,-0.088
0.256,-0.089
0.257,-0.088
0.258,-0.089
0.259,-0.088
0.260,-0.088
0.261,-0.088
0.262,-0.091
0.263,-0.091
0.264,-0.091
0.265,-0.091
0.266,-0.091
0.267,-0.091
0.268,-0.091
0.269,-0.094
0.270,-0.094
0.271,-0.091
0.272,-0.094
0.273,-0.094
0.274,-0.093
0.275,-0.091
0.276,-0.095
0.277,-0.097
0.278,-0.098
0.279,-0.100
0.280,-0.100
0.281,-0.100
0.282,-0.097
0.283,-0.097
0.284,-0.099
0.285,-0.097
0.286,-0.095
0.287,-0.097
0.288,-0.096
0.289,-0.097
0.290,-0.097
0.291,-0.097
0.292,-0.096
0.293,-0.094
0.294,-0.097
0.295,-0.097
0.296,-0.094
0.297,-0.097
0.298,-0.096
0.299,-0.094
0.300,-0.095
0.301,-0.097
0.302,-0.097
0.303,-0.100
0.304,-0.097
0.305,-0.100
0.306,-0.096
0.307,-0.094
0.308,-0.096
0.309,-0.094
0.310,-0.094
0.311,-0.094
0.312,-0.093
0.313,-0.091
0.314,-0.094
0.315,-0.094
0.316,-0.091
0.317,-0.091
0.318,-0.094
0.319,-0.094
0.320,-0.094
0.321,-0.094
0.322,-0.095
0.323,-0.094
0.324,-0.098
0.325,-0.100
0.326,-0.097
0.327,-0.094
0.328,-0.091
0.329,-0.091
0.330,-0.086
0.331,-0.084
0.332,-0.080
0.333,-0.075
0.334,-0.075
0.335,-0.075
0.336,-0.074
0.337,-0.072
0.338,-0.074
0.339,-0.075
0.340,-0.073
0.341,-0.075
0.342,-0.074
0.343,-0.069
0.344,-0.067
0.345,-0.069
0.346,-0.067
0.347,-0.066
0.348,-0.063
0.349,-0.056
0.350,-0.049
0.351,-0.034
0.352,-0.019
0.353,-0.006
0.354,0.003
0.355,0.013
0.356,0.016
0.357,0.019
0.358,0.022
0.359,0.025
0.360,0.023
0.361,0.025
0.362,0.019
0.363,0.013
0.364,0.005
0.365,-0.003
0.366,-0.011
0.367,-0.016
0.368,-0.024
0.369,-0.028
0.370,-0.028
0.371,-0.031
0.372,-0.021
0.373,-0.013
0.374,-0.004
0.375,0.000
0.376,0.006
0.377,0.013
0.378,0.019
0.379,0.025
0.380,0.030
0.381,0.034
0.382,0.039
0.383,0.041
0.384,0.041
0.385,0.041
0.386,0.033
0.387,0.025
0.388,0.016
0.389,0.003
0.390,-0.006
0.391,-0.016
0.392,-0.024
0.393,-0.031
0.394,-0.031
0.395,-0.034
0.396,-0.041
0.397,-0.044
0.398,-0.043
0.399,-0.041
0.400,-0.044
0.401,-0.047
0.402,-0.047
0.403,-0.053
0.404,-0.048
0.405,-0.050
0.406,-0.049
0.407,-0.050
0.408,-0.052
0.409,-0.056
0.410,-0.061
0.411,-0.063
0.412,-0.068
0.413,-0.069
0.414,-0.076
0.415,-0.081
0.416,-0.084
0.417,-0.088
0.418,-0.088
0.419,-0.088
0.420,-0.094
0.421,-0.100
0.422,-0.101
0.423,-0.106
0.424,-0.105
0.425,-0.109
0.426,-0.111
0.427,-0.113
0.428,-0.113
0.429,-0.116
0.430,-0.116
0.431,-0.119
0.432,-0.119
0.433,-0.119
0.434,-0.125
0.435,-0.128
0.436,-0.131
0.437,-0.128
0.438,-0.128
0.439,-0.131
0.440,-0.130
0.441,-0.125
0.442,-0.124
0.443,-0.125
0.444,-0.128
0.445,-0.131
0.446,-0.136
0.447,-0.138
0.448,-0.138
0.449,-0.134
0.450,-0.134
0.451,-0.134
0.452,-0.133
0.453,-0.131
0.454,-0.133
0.455,-0.128
0.456,-0.127
0.457,-0.122
0.458,-0.122
0.459,-0.119
0.460,-0.122
0.461,-0.122
0.462,-0.122
0.463,-0.122
0.464,-0.123
0.465,-0.125
0.466,-0.121
0.467,-0.119
0.468,-0.116
0.469,-0.113
0.470,-0.111
0.471,-0.113
0.472,-0.113
0.473,-0.113
0.474,-0.114
0.475,-0.116
0.476,-0.114
0.477,-0.109
0.478,-0.113
0.479,-0.109
0.480,-0.113
0.481,-0.116
0.482,-0.122
0.483,-0.128
0.484,-0.138
0.485,-0.150
0.486,-0.153
0.487,-0.156
0.488,-0.158
0.489,-0.159
0.490,-0.158
0.491,-0.150
0.492,-0.147
0.493,-0.144
0.494,-0.141
0.495,-0.141
0.496,-0.139
0.497,-0.134
0.498,-0.124
0.499,-0.109
0.500,-0.094
0.501,-0.072
0.502,-0.056
0.503,-0.038
0.504,-0.003
0.505,0.031
0.506,0.080
0.507,0.134
0.508,0.197
0.509,0.266
0.510,0.336
0.511,0.400
0.512,0.458
0.513,0.509
0.514,0.562
0.515,0.616
0.516,0.681
0.517,0.747
0.518,0.811
0.519,0.872
0.520,0.926
0.521,0.972
0.522,1.002
0.523,1.028
0.524,1.041
0.525,1.038
0.526,1.020
0.527,0.994
0.528,0.931
0.529,0.859
0.530,0.761
0.531,0.656
0.532,0.547
0.533,0.437
0.534,0.349
0.535,0.259
0.536,0.191
0.537,0.128
0.538,0.072
0.539,0.019
0.540,-0.025
0.541,-0.069
0.542,-0.099
0.543,-0.125
0.544,-0.145
0.545,-0.159
0.546,-0.156
0.547,-0.144
0.548,-0.118
0.549,-0.091
0.550,-0.076
0.551,-0.063
0.552,-0.059
0.553,-0.053
0.554,-0.049
0.555,-0.047
0.556,-0.046
0.557,-0.047
0.558,-0.047
0.559,-0.047
0.560,-0.046
0.561,-0.047
0.562,-0.048
0.563,-0.050
0.564,-0.046
0.565,-0.044
0.566,-0.044
0.567,-0.044
0.568,-0.043
0.569,-0.044
0.570,-0.048
0.571,-0.050
0.572,-0.053
0.573,-0.053
0.574,-0.057
0.575,-0.059
0.576,-0.061
0.577,-0.063
0.578,-0.064
0.579,-0.063
0.580,-0.064
0.581,-0.066
0.582,-0.066
0.583,-0.066
0.584,-0.066
0.585,-0.066
0.586,-0.067
0.587,-0.069
0.588,-0.066
0.589,-0.063
0.590,-0.063
0.591,-0.063
0.592,-0.064
0.593,-0.066
0.594,-0.066
0.595,-0.069
0.596,-0.067
0.597,-0.069
0.598,-0.069
0.599,-0.069
0.600,-0.069
0.601,-0.069
0.602,-0.066
0.603,-0.063
0.604,-0.063
0.605,-0.059
0.606,-0.059
0.607,-0.059
0.608,-0.061
0.609,-0.066
0.610,-0.063
0.611,-0.063
0.612,-0.059
0.613,-0.059
0.614,-0.066
0.615,-0.066
0.616,-0.063
0.617,-0.063
0.618,-0.063
0.619,-0.063
0.620,-0.059
0.621,-0.056
0.622,-0.055
0.623,-0.056
0.624,-0.053
0.625,-0.053
0.626,-0.050
0.627,-0.050
0.628,-0.053
0.629,-0.050
0.630,-0.054
0.631,-0.053
0.632,-0.054
0.633,-0.053
0.634,-0.055
0.635,-0.050
0.636,-0.051
0.637,-0.050
0.638,-0.049
0.639,-0.050
0.640,-0.051
0.641,-0.050
0.642,-0.049
0.643,-0.047
0.644,-0.047
0.645,-0.047
0.646,-0.047
0.647,-0.047
0.648,-0.047
0.649,-0.047
0.650,-0.048
0.651,-0.050
0.652,-0.049
0.653,-0.047
0.654,-0.043
0.655,-0.041
0.656,-0.041
0.657,-0.041
0.658,-0.039
0.659,-0.044
0.660,-0.044
0.661,-0.044
0.662,-0.041
0.663,-0.041
0.664,-0.041
0.665,-0.041
0.666,-0.039
0.667,-0.041
0.668,-0.039
0.669,-0.041
0.670,-0.039
0.671,-0.038
0.672,-0.036
0.673,-0.038
0.674,-0.038
0.675,-0.038
0.676,-0.036
0.677,-0.034
0.678,-0.034
0.679,-0.034
0.680,-0.030
0.681,-0.028
0.682,-0.032
0.683,-0.031
0.684,-0.030
0.685,-0.028
0.686,-0.029
0.687,-0.028
0.688,-0.031
0.689,-0.031
0.690,-0.031
0.691,-0.031
0.692,-0.028
0.693,-0.028
0.694,-0.028
0.695,-0.028
0.696,-0.029
0.697,-0.028
0.698,-0.024
0.699,-0.019
0.700,-0.020
0.701,-0.022
0.702,-0.022
0.703,-0.022
0.704,-0.021
0.705,-0.016
0.706,-0.013
0.707,-0.013
0.708,-0.014
0.709,-0.013
0.710,-0.013
0.711,-0.013
0.712,-0.014
0.713,-0.013
0.714,-0.011
0.715,-0.009
0.716,-0.011
0.717,-0.009
0.718,-0.011
0.719,-0.013
0.720,-0.011
0.721,-0.006
0.722,0.001
0.723,0.006
0.724,0.006
0.725,0.006
0.726,0.008
0.727,0.009
0.728,0.006
0.729,0.009
0.730,0.009
0.731,0.009
0.732,0.013
0.733,0.016
0.734,0.019
0.735,0.019
0.736,0.022
0.737,0.025
0.738,0.025
0.739,0.025
0.740,0.027
0.741,0.025
0.742,0.027
0.743,0.028
0.744,0.036
0.745,0.041
0.746,0.039
0.747,0.041
0.748,0.041
0.749,0.041
0.750,0.043
0.751,0.041
0.752,0.043
0.753,0.041
0.754,0.044
0.755,0.050
0.756,0.056
0.757,0.059
0.758,0.061
0.759,0.059
0.760,0.058
0.761,0.059
0.762,0.059
0.763,0.063
0.764,0.066
0.765,0.066
0.766,0.066
0.767,0.069
0.768,0.072
0.769,0.078
0.770,0.078
0.771,0.078
0.772,0.078
0.773,0.081
0.774,0.086
0.775,0.088
0.776,0.089
0.777,0.091
0.778,0.086
0.779,0.088
0.780,0.091
0.781,0.094
0.782,0.097
0.783,0.097
0.784,0.096
0.785,0.097
0.786,0.103
0.787,0.106
0.788,0.106
0.789,0.106
0.790,0.106
0.791,0.106
0.792,0.106
0.793,0.113
0.794,0.114
0.795,0.119
0.796,0.118
0.797,0.119
0.798,0.122
0.799,0.122
0.800,0.122
0.801,0.122
0.802,0.124
0.803,0.122
0.804,0.123
0.805,0.128
0.806,0.128
0.807,0.131
0.808,0.131
0.809,0.134
0.810,0.138
0.811,0.138
0.812,0.138
0.813,0.138
0.814,0.136
0.815,0.138
0.816,0.138
0.817,0.138
0.818,0.139
0.819,0.144
0.820,0.144
0.821,0.144
0.822,0.143
0.823,0.141
0.824,0.141
0.825,0.141
0.826,0.139
0.827,0.141
0.828,0.139
0.829,0.138
0.830,0.138
0.831,0.138
0.832,0.134
0.833,0.134
0.834,0.131
0.835,0.125
0.836,0.126
0.837,0.125
0.838,0.123
0.839,0.122
0.840,0.123
0.841,0.125
0.842,0.118
0.843,0.116
0.844,0.114
0.845,0.113
0.846,0.108
0.847,0.103
0.848,0.098
0.849,0.100
0.850,0.098
0.851,0.097
0.852,0.096
0.853,0.091
0.854,0.089
0.855,0.088
0.856,0.081
0.857,0.075
0.858,0.071
0.859,0.066
0.860,0.064
0.861,0.063
0.862,0.058
0.863,0.053
0.864,0.050
0.865,0.047
0.866,0.044
0.867,0.044
0.868,0.039
0.869,0.034
0.870,0.030
0.871,0.025
0.872,0.022
0.873,0.022
0.874,0.020
0.875,0.019
0.876,0.019
0.877,0.016
0.878,0.013
0.879,0.006
0.880,0.005
0.881,0.003
0.882,0.004
0.883,0.003
0.884,0.002
0.885,0.000
0.886,-0.003
0.887,-0.006
0.888,-0.006
0.889,-0.006
0.890,-0.006
0.891,-0.006
0.892,-0.006
0.893,-0.006
0.894,-0.005
0.895,-0.006
0.896,-0.011
0.897,-0.009
0.898,-0.009
0.899,-0.009
0.900,-0.008
0.901,-0.006
0.902,-0.005
0.903,-0.003
0.904,-0.004
0.905,-0.009
0.906,-0.013
0.907,-0.013
0.908,-0.009
0.909,-0.013
0.910,-0.013
0.911,-0.016
0.912,-0.016
0.913,-0.016
0.914,-0.013
0.915,-0.013
0.916,-0.013
0.917,-0.013
0.918,-0.013
0.919,-0.013
0.920,-0.006
0.921,0.000
0.922,-0.003
0.923,-0.003
0.924,-0.004
0.925,-0.006
0.926,-0.006
0.927,-0.009
0.928,-0.011
0.929,-0.013
0.930,-0.014
0.931,-0.016
0.932,-0.016
0.933,-0.013
0.934,-0.011
0.935,-0.006
0.936,-0.006
0.937,0.000
0.938,-0.003
0.939,-0.003
0.940,-0.003
0.941,-0.006
0.942,-0.007
0.943,-0.009
0.944,-0.008
0.945,-0.006
0.946,-0.009
0.947,-0.009
0.948,-0.009
0.949,-0.009
0.950,-0.008
0.951,-0.006
0.952,-0.006
0.953,-0.006
0.954,-0.009
0.955,-0.009
0.956,-0.009
0.957,-0.009
0.958,-0.009
0.959,-0.009
0.960,-0.009
0.961,-0.009
0.962,-0.014
0.963,-0.016
0.964,-0.014
0.965,-0.016
0.966,-0.014
0.967,-0.016
0.968,-0.017
0.969,-0.019
0.970,-0.019
0.971,-0.019
0.972,-0.018
0.973,-0.019
0.974,-0.019
0.975,-0.019
0.976,-0.018
0.977,-0.019
0.978,-0.019
0.979,-0.022
0.980,-0.020
0.981,-0.022
0.982,-0.025
0.983,-0.025
0.984,-0.024
0.985,-0.022
0.986,-0.025
0.987,-0.025
0.988,-0.024
0.989,-0.022
0.990,-0.025
0.991,-0.025
0.992,-0.025
0.993,-0.025
0.994,-0.026
0.995,-0.028
0.996,-0.031
0.997,-0.031
0.998,-0.031
0.999,-0.031
1.000,-0.030
1.001,-0.028
1.002,-0.031
1.003,-0.031
1.004,-0.031
1.005,-0.031
1.006,-0.032
1.007,-0.034
1.008,-0.036
1.009,-0.038
1.010,-0.038
1.011,-0.038
1.012,-0.038
1.013,-0.038
1.014,-0.039
1.015,-0.044
1.016,-0.045
1.017,-0.047
1.018,-0.046
1.019,-0.047
1.020,-0.047
1.021,-0.047
1.022,-0.048
1.023,-0.050
1.024,-0.051
1.025,-0.053
1.026,-0.055
1.027,-0.056
1.028,-0.054
1.029,-0.056
1.030,-0.057
1.031,-0.059
1.032,-0.058
1.033,-0.056
1.034,-0.058
1.035,-0.056
1.036,-0.061
1.037,-0.059
1.038,-0.061
1.039,-0.063
1.040,-0.061
1.041,-0.056
1.042,-0.058
1.043,-0.056
1.044,-0.056
1.045,-0.059
1.046,-0.061
1.047,-0.063
1.048,-0.061
1.049,-0.063
1.050,-0.064
1.051,-0.066
1.052,-0.066
1.053,-0.066
1.054,-0.066
1.055,-0.066
1.056,-0.069
1.057,-0.066
1.058,-0.070
1.059,-0.069
1.060,-0.071
1.061,-0.069
1.062,-0.066
1.063,-0.069
1.064,-0.073
1.065,-0.075
1.066,-0.069
1.067,-0.069
1.068,-0.070
1.069,-0.072
1.070,-0.073
1.071,-0.075
1.072,-0.074
1.073,-0.075
1.074,-0.074
1.075,-0.072
1.076,-0.072
1.077,-0.072
1.078,-0.075
1.079,-0.078
1.080,-0.079
1.081,-0.081
1.082,-0.084
1.083,-0.081
1.084,-0.081
1.085,-0.081
1.086,-0.084
1.087,-0.084
1.088,-0.083
1.089,-0.081
1.090,-0.078
1.091,-0.075
1.092,-0.074
1.093,-0.072
1.094,-0.075
1.095,-0.075
1.096,-0.075
1.097,-0.075
1.098,-0.074
1.099,-0.075
1.100,-0.076
1.101,-0.075
1.102,-0.078
1.103,-0.078
1.104,-0.075
1.105,-0.072
1.106,-0.075
1.107,-0.078
1.108,-0.081
1.109,-0.078
1.110,-0.082
1.111,-0.081
1.112,-0.081
1.113,-0.084
1.114,-0.086
1.115,-0.088
1.116,-0.088
1.117,-0.088
1.118,-0.086
1.119,-0.088
1.120,-0.089
1.121,-0.088
1.122,-0.086
1.123,-0.088
1.124,-0.089
1.125,-0.091
1.126,-0.091
1.127,-0.091
1.128,-0.086
1.129,-0.088
1.130,-0.089
1.131,-0.088
1.132,-0.084
1.133,-0.081
1.134,-0.080
1.135,-0.075
1.136,-0.075
1.137,-0.075
1.138,-0.076
1.139,-0.075
1.140,-0.071
1.141,-0.069
1.142,-0.066
1.143,-0.066
1.144,-0.069
1.145,-0.066
1.146,-0.067
1.147,-0.069
1.148,-0.067
1.149,-0.066
1.150,-0.064
1.151,-0.059
1.152,-0.059
1.153,-0.059
1.154,-0.050
1.155,-0.041
1.156,-0.029
1.157,-0.016
1.158,-0.004
1.159,0.003
1.160,0.016
1.161,0.025
1.162,0.027
1.163,0.025
1.164,0.028
1.165,0.025
1.166,0.026
1.167,0.025
1.168,0.019
1.169,0.009
1.170,0.003
1.171,-0.006
1.172,-0.008
1.173,-0.013
1.174,-0.016
1.175,-0.013
1.176,-0.016
1.177,-0.013
1.178,-0.009
1.179,0.003
1.180,0.009
1.181,0.016
1.182,0.022
1.183,0.028
1.184,0.034
1.185,0.041
1.186,0.046
1.187,0.050
1.188,0.052
1.189,0.050
1.190,0.050
1.191,0.047
1.192,0.044
1.193,0.034
1.194,0.018
1.195,0.003
1.196,-0.006
1.197,-0.016
1.198,-0.024
1.199,-0.025
1.200,-0.028
1.201,-0.028
1.202,-0.029
1.203,-0.031
1.204,-0.028
1.205,-0.028
1.206,-0.031
1.207,-0.028
1.208,-0.034
1.209,-0.031
1.210,-0.031
1.211,-0.031
1.212,-0.034
1.213,-0.038
1.214,-0.043
1.215,-0.044
1.216,-0.047
1.217,-0.056
1.218,-0.058
1.219,-0.063
1.220,-0.064
1.221,-0.066
1.222,-0.069
1.223,-0.072
1.224,-0.076
1.225,-0.081
1.226,-0.086
1.227,-0.088
1.228,-0.092
1.229,-0.094
1.230,-0.100
1.231,-0.103
1.232,-0.106
1.233,-0.106
1.234,-0.109
1.235,-0.109
1.236,-0.113
1.237,-0.113
1.238,-0.114
1.239,-0.119
1.240,-0.119
1.241,-0.122
1.242,-0.118
1.243,-0.116
1.244,-0.118
1.245,-0.116
1.246,-0.116
1.247,-0.119
1.248,-0.121
1.249,-0.119
1.250,-0.120
1.251,-0.122
1.252,-0.119
1.253,-0.122
1.254,-0.122
1.255,-0.122
1.256,-0.122
1.257,-0.122
1.258,-0.121
1.259,-0.122
1.260,-0.119
1.261,-0.119
1.262,-0.117
1.263,-0.119
1.264,-0.113
1.265,-0.113
1.266,-0.113
1.267,-0.113
1.268,-0.114
1.269,-0.116
1.270,-0.113
1.271,-0.106
1.272,-0.105
1.273,-0.103
1.274,-0.104
1.275,-0.103
1.276,-0.103
1.277,-0.103
1.278,-0.103
1.279,-0.103
1.280,-0.106
1.281,-0.109
1.282,-0.105
1.283,-0.109
1.284,-0.109
1.285,-0.113
1.286,-0.116
1.287,-0.122
1.288,-0.127
1.289,-0.131
1.290,-0.139
1.291,-0.141
1.292,-0.145
1.293,-0.147
1.294,-0.147
1.295,-0.147
1.296,-0.141
1.297,-0.138
1.298,-0.134
1.299,-0.131
1.300,-0.131
1.301,-0.131
1.302,-0.131
1.303,-0.125
1.304,-0.108
1.305,-0.088
1.306,-0.066
1.307,-0.047
1.308,-0.024
1.309,0.013
1.310,0.048
1.311,0.100
1.312,0.161
1.313,0.225
1.314,0.288
1.315,0.356
1.316,0.416
1.317,0.469
1.318,0.525
1.319,0.581
1.320,0.636
1.321,0.703
1.322,0.770
1.323,0.838
1.324,0.899
1.325,0.950
1.326,0.991
1.327,1.019
1.328,1.038
1.329,1.041
1.330,1.033
1.331,1.009
1.332,0.972
1.333,0.903
1.334,0.833
1.335,0.731
1.336,0.624
1.337,0.503
1.338,0.394
1.339,0.316
1.340,0.239
1.341,0.188
1.342,0.134
1.343,0.081
1.344,0.029
1.345,-0.013
1.346,-0.055
1.347,-0.084
1.348,-0.114
1.349,-0.134
1.350,-0.146
1.351,-0.144
1.352,-0.138
1.353,-0.116
1.354,-0.089
1.355,-0.072
1.356,-0.056
1.357,-0.050
1.358,-0.042
1.359,-0.041
1.360,-0.039
1.361,-0.038
1.362,-0.041
1.363,-0.041
1.364,-0.039
1.365,-0.038
1.366,-0.041
1.367,-0.041
1.368,-0.041
1.369,-0.038
1.370,-0.038
1.371,-0.038
1.372,-0.036
1.373,-0.034
1.374,-0.038
1.375,-0.041
1.376,-0.042
1.377,-0.047
1.378,-0.046
1.379,-0.047
1.380,-0.048
1.381,-0.050
1.382,-0.049
1.383,-0.050
1.384,-0.050
1.385,-0.050
1.386,-0.050
1.387,-0.050
1.388,-0.051
1.389,-0.053
1.390,-0.053
1.391,-0.053
1.392,-0.052
1.393,-0.050
1.394,-0.049
1.395,-0.047
1.396,-0.048
1.397,-0.050
1.398,-0.050
1.399,-0.050
1.400,-0.054
1.401,-0.053
1.402,-0.052
1.403,-0.050
1.404,-0.049
1.405,-0.047
1.406,-0.047
1.407,-0.047
1.408,-0.047
1.409,-0.047
1.410,-0.045
1.411,-0.047
1.412,-0.047
1.413,-0.047
1.414,-0.051
1.415,-0.050
1.416,-0.051
1.417,-0.050
1.418,-0.049
1.419,-0.050
1.420,-0.047
1.421,-0.044
1.422,-0.044
1.423,-0.044
1.424,-0.045
1.425,-0.047
1.426,-0.046
1.427,-0.044
1.428,-0.047
1.429,-0.044
1.430,-0.044
1.431,-0.041
1.432,-0.039
1.433,-0.041
1.434,-0.038
1.435,-0.041
1.436,-0.041
1.437,-0.044
1.438,-0.038
1.439,-0.038
1.440,-0.038
1.441,-0.041
1.442,-0.036
1.443,-0.034
1.444,-0.038
1.445,-0.038
1.446,-0.031
1.447,-0.028
1.448,-0.029
1.449,-0.031
1.450,-0.031
1.451,-0.031
1.452,-0.032
1.453,-0.034
1.454,-0.034
1.455,-0.034
1.456,-0.034
1.457,-0.034
1.458,-0.034
1.459,-0.031
1.460,-0.031
1.461,-0.031
1.462,-0.031
1.463,-0.028
1.464,-0.031
1.465,-0.031
1.466,-0.032
1.467,-0.031
1.468,-0.025
1.469,-0.019
1.470,-0.020
1.471,-0.019
1.472,-0.019
1.473,-0.019
1.474,-0.023
1.475,-0.025
1.476,-0.026
1.477,-0.025
1.478,-0.022
1.479,-0.019
1.480,-0.022
1.481,-0.025
1.482,-0.025
1.483,-0.025
1.484,-0.026
1.485,-0.025
1.486,-0.024
1.487,-0.025
1.488,-0.021
1.489,-0.019
1.490,-0.020
1.491,-0.022
1.492,-0.020
1.493,-0.025
1.494,-0.021
1.495,-0.016
1.496,-0.017
1.497,-0.016
1.498,-0.019
1.499,-0.022
1.500,-0.022
1.501,-0.022
1.502,-0.019
1.503,-0.019
1.504,-0.018
1.505,-0.016
1.506,-0.014
1.507,-0.013
1.508,-0.013
1.509,-0.013
1.510,-0.013
1.511,-0.013
1.512,-0.014
1.513,-0.016
1.514,-0.013
1.515,-0.013
1.516,-0.009
1.517,-0.006
1.518,-0.002
1.519,0.000
1.520,-0.001
1.521,-0.003
1.522,-0.003
1.523,-0.006
1.524,-0.003
1.525,0.000
1.526,0.003
1.527,0.006
1.528,0.006
1.529,0.006
1.530,0.005
1.531,0.006
1.532,0.008
1.533,0.006
1.534,0.011
1.535,0.009
1.536,0.011
1.537,0.013
1.538,0.016
1.539,0.022
1.540,0.023
1.541,0.028
1.542,0.031
1.543,0.031
1.544,0.030
1.545,0.031
1.546,0.032
1.547,0.038
1.548,0.039
1.549,0.041
1.550,0.042
1.551,0.044
1.552,0.046
1.553,0.044
1.554,0.047
1.555,0.053
1.556,0.053
1.557,0.056
1.558,0.056
1.559,0.056
1.560,0.056
1.561,0.056
1.562,0.055
1.563,0.056
1.564,0.057
1.565,0.059
1.566,0.063
1.567,0.063
1.568,0.064
1.569,0.066
1.570,0.069
1.571,0.072
1.572,0.075
1.573,0.075
1.574,0.078
1.575,0.078
1.576,0.078
1.577,0.078
1.578,0.080
1.579,0.081
1.580,0.081
1.581,0.084
1.582,0.088
1.583,0.084
1.584,0.088
1.585,0.088
1.586,0.089
1.587,0.094
1.588,0.095
1.589,0.097
1.590,0.099
1.591,0.100
1.592,0.101
1.593,0.103
1.594,0.107
1.595,0.113
1.596,0.109
1.597,0.106
1.598,0.111
1.599,0.109
1.600,0.111
1.601,0.109
1.602,0.113
1.603,0.116
1.604,0.114
1.605,0.113
1.606,0.114
1.607,0.119
1.608,0.120
1.609,0.122
1.610,0.125
1.611,0.125
1.612,0.128
1.613,0.128
1.614,0.132
1.615,0.138
1.616,0.136
1.617,0.134
1.618,0.134
1.619,0.134
1.620,0.136
1.621,0.134
1.622,0.134
1.623,0.134
1.624,0.138
1.625,0.138
1.626,0.136
1.627,0.134
1.628,0.136
1.629,0.138
1.630,0.138
1.631,0.138
1.632,0.141
1.633,0.138
1.634,0.134
1.635,0.134
1.636,0.136
1.637,0.134
1.638,0.136
1.639,0.138
1.640,0.131
1.641,0.128
1.642,0.126
1.643,0.125
1.644,0.121
1.645,0.119
1.646,0.119
1.647,0.113
1.648,0.114
1.649,0.113
1.650,0.109
1.651,0.106
1.652,0.102
1.653,0.094
1.654,0.093
1.655,0.088
1.656,0.084
1.657,0.084
1.658,0.078
1.659,0.072
1.660,0.072
1.661,0.072
1.662,0.070
1.663,0.069
1.664,0.064
1.665,0.059
1.666,0.056
1.667,0.053
1.668,0.047
1.669,0.041
1.670,0.038
1.671,0.034
1.672,0.034
1.673,0.031
1.674,0.029
1.675,0.028
1.676,0.026
1.677,0.025
1.678,0.022
1.679,0.016
1.680,0.011
1.681,0.009
1.682,0.007
1.683,0.009
1.684,0.007
1.685,0.009
1.686,0.006
1.687,0.003
1.688,0.003
1.689,0.006
1.690,0.007
1.691,0.006
1.692,0.002
1.693,0.000
1.694,0.000
1.695,0.000
1.696,-0.003
1.697,-0.006
1.698,-0.006
1.699,-0.006
1.700,-0.008
1.701,-0.009
1.702,-0.007
1.703,-0.009
1.704,-0.006
1.705,-0.003
1.706,-0.004
1.707,-0.006
1.708,-0.009
1.709,-0.013
1.710,-0.016
1.711,-0.016
1.712,-0.014
1.713,-0.013
1.714,-0.013
1.715,-0.009
1.716,-0.011
1.717,-0.009
1.718,-0.013
1.719,-0.013
1.720,-0.013
1.721,-0.013
1.722,-0.013
1.723,-0.013
1.724,-0.011
1.725,-0.009
1.726,-0.008
1.727,-0.009
1.728,-0.011
1.729,-0.009
1.730,-0.007
1.731,-0.009
1.732,-0.013
1.733,-0.013
1.734,-0.013
1.735,-0.013
1.736,-0.009
1.737,-0.006
1.738,-0.002
1.739,-0.003
1.740,-0.002
1.741,-0.003
1.742,-0.001
1.743,-0.006
1.744,-0.009
1.745,-0.009
1.746,-0.009
1.747,-0.009
1.748,-0.011
1.749,-0.013
1.750,-0.011
1.751,-0.013
1.752,-0.013
1.753,-0.013
1.754,-0.013
1.755,-0.013
1.756,-0.013
1.757,-0.013
1.758,-0.013
1.759,-0.016
1.760,-0.016
1.761,-0.016
1.762,-0.016
1.763,-0.016
1.764,-0.017
1.765,-0.019
1.766,-0.018
1.767,-0.019
1.768,-0.018
1.769,-0.016
1.770,-0.018
1.771,-0.016
1.772,-0.019
1.773,-0.019
1.774,-0.019
1.775,-0.019
1.776,-0.022
1.777,-0.025
1.778,-0.027
1.779,-0.025
1.780,-0.025
1.781,-0.025
1.782,-0.028
1.783,-0.028
1.784,-0.032
1.785,-0.031
1.786,-0.028
1.787,-0.028
1.788,-0.028
1.789,-0.028
1.790,-0.028
1.791,-0.031
1.792,-0.031
1.793,-0.031
1.794,-0.031
1.795,-0.034
1.796,-0.036
1.797,-0.038
1.798,-0.038
1.799,-0.038
1.800,-0.036
1.801,-0.038
1.802,-0.038
1.803,-0.038
1.804,-0.038
1.805,-0.038
1.806,-0.039
1.807,-0.044
1.808,-0.045
1.809,-0.047
1.810,-0.047
1.811,-0.047
1.812,-0.046
1.813,-0.047
1.814,-0.053
1.815,-0.056
1.816,-0.056
1.817,-0.056
1.818,-0.055
1.819,-0.053
1.820,-0.056
1.821,-0.056
1.822,-0.055
1.823,-0.053
1.824,-0.057
1.825,-0.059
1.826,-0.058
1.827,-0.056
1.828,-0.056
1.829,-0.056
1.830,-0.057
1.831,-0.063
1.832,-0.067
1.833,-0.066
1.834,-0.066
1.835,-0.066
1.836,-0.067
1.837,-0.069
1.838,-0.068
1.839,-0.069
1.840,-0.069
1.841,-0.072
1.842,-0.064
1.843,-0.059
1.844,-0.058
1.845,-0.056
1.846,-0.056
1.847,-0.063
1.848,-0.064
1.849,-0.066
1.850,-0.070
1.851,-0.072
1.852,-0.072
1.853,-0.072
1.854,-0.074
1.855,-0.072
1.856,-0.072
1.857,-0.072
1.858,-0.072
1.859,-0.072
1.860,-0.072
1.861,-0.075
1.862,-0.073
1.863,-0.078
1.864,-0.074
1.865,-0.075
1.866,-0.078
1.867,-0.078
1.868,-0.081
1.869,-0.084
1.870,-0.084
1.871,-0.081
1.872,-0.086
1.873,-0.084
1.874,-0.083
1.875,-0.081
1.876,-0.084
1.877,-0.084
1.878,-0.084
1.879,-0.084
1.880,-0.084
1.881,-0.088
1.882,-0.083
1.883,-0.075
1.884,-0.077
1.885,-0.075
1.886,-0.078
1.887,-0.081
1.888,-0.080
1.889,-0.078
1.890,-0.082
1.891,-0.081
1.892,-0.086
1.893,-0.084
1.894,-0.083
1.895,-0.084
1.896,-0.084
1.897,-0.084
1.898,-0.081
1.899,-0.078
1.900,-0.081
1.901,-0.088
1.902,-0.089
1.903,-0.088
1.904,-0.086
1.905,-0.088
1.906,-0.088
1.907,-0.088
1.908,-0.088
1.909,-0.088
1.910,-0.081
1.911,-0.081
1.912,-0.086
1.913,-0.088
1.914,-0.083
1.915,-0.078
1.916,-0.078
1.917,-0.075
1.918,-0.075
1.919,-0.075
1.920,-0.075
1.921,-0.072
1.922,-0.068
1.923,-0.066
1.924,-0.064
1.925,-0.066
1.926,-0.075
1.927,-0.078
1.928,-0.081
1.929,-0.084
1.930,-0.080
1.931,-0.075
1.932,-0.075
1.933,-0.072
1.934,-0.070
1.935,-0.069
1.936,-0.064
1.937,-0.059
1.938,-0.046
1.939,-0.028
1.940,-0.017
1.941,-0.009
1.942,0.003
1.943,0.013
1.944,0.019
1.945,0.022
1.946,0.026
1.947,0.025
1.948,0.028
1.949,0.028
1.950,0.026
1.951,0.022
1.952,0.014
1.953,0.003
1.954,-0.003
1.955,-0.013
1.956,-0.023
1.957,-0.028
1.958,-0.034
1.959,-0.034
1.960,-0.036
1.961,-0.028
1.962,-0.022
1.963,-0.016
1.964,-0.009
1.965,-0.003
1.966,0.004
1.967,0.013
1.968,0.018
1.969,0.022
1.970,0.026
1.971,0.028
1.972,0.032
1.973,0.034
1.974,0.036
1.975,0.031
1.976,0.019
1.977,0.009
1.978,0.001
1.979,-0.006
1.980,-0.020
1.981,-0.028
1.982,-0.031
1.983,-0.031
1.984,-0.032
1.985,-0.034
1.986,-0.033
1.987,-0.034
1.988,-0.038
1.989,-0.034
1.990,-0.039
1.991,-0.034
1.992,-0.033
1.993,-0.031
1.994,-0.034
1.995,-0.038
1.996,-0.045
1.997,-0.050
1.998,-0.050
1.999,-0.056
2.000,-0.061
2.001,-0.069
2.002,-0.073
2.003,-0.078
2.004,-0.082
2.005,-0.088
2.006,-0.089
2.007,-0.091
2.008,-0.097
2.009,-0.100
2.010,-0.103
2.011,-0.103
2.012,-0.108
2.013,-0.109
2.014,-0.114
2.015,-0.116
2.016,-0.118
2.017,-0.116
2.018,-0.119
2.019,-0.119
2.020,-0.119
2.021,-0.122
2.022,-0.123
2.023,-0.128
2.024,-0.125
2.025,-0.125
2.026,-0.127
2.027,-0.125
2.028,-0.122
2.029,-0.122
2.030,-0.125
2.031,-0.125
2.032,-0.125
2.033,-0.125
2.034,-0.122
2.035,-0.125
2.036,-0.126
2.037,-0.128
2.038,-0.128
2.039,-0.128
2.040,-0.127
2.041,-0.128
2.042,-0.125
2.043,-0.125
2.044,-0.121
2.045,-0.119
2.046,-0.114
2.047,-0.116
2.048,-0.119
2.049,-0.122
2.050,-0.122
2.051,-0.122
2.052,-0.123
2.053,-0.122
2.054,-0.119
2.055,-0.116
2.056,-0.113
2.057,-0.106
2.058,-0.107
2.059,-0.109
2.060,-0.111
2.061,-0.113
2.062,-0.116
2.063,-0.119
2.064,-0.114
2.065,-0.119
2.066,-0.120
2.067,-0.125
2.068,-0.127
2.069,-0.131
2.070,-0.134
2.071,-0.138
2.072,-0.147
2.073,-0.150
2.074,-0.154
2.075,-0.156
2.076,-0.159
2.077,-0.163
2.078,-0.158
2.079,-0.156
2.080,-0.152
2.081,-0.147
2.082,-0.147
2.083,-0.147
2.084,-0.143
2.085,-0.131
2.086,-0.122
2.087,-0.109
2.088,-0.084
2.089,-0.063
2.090,-0.042
2.091,-0.009
2.092,0.022
2.093,0.069
2.094,0.121
2.095,0.175
2.096,0.241
2.097,0.313
2.098,0.378
2.099,0.437
2.100,0.491
2.101,0.544
2.102,0.598
2.103,0.666
2.104,0.730
2.105,0.794
2.106,0.859
2.107,0.916
2.108,0.963
2.109,0.997
2.110,1.031
2.111,1.050
2.112,1.053
2.113,1.041
2.114,1.013
2.115,0.953
2.116,0.884
2.117,0.784
2.118,0.677
2.119,0.556
2.120,0.434
2.121,0.344
2.122,0.258
2.123,0.197
2.124,0.147
2.125,0.097
2.126,0.047
2.127,0.006
2.128,-0.038
2.129,-0.069
2.130,-0.103
2.131,-0.128
2.132,-0.147
2.133,-0.153
2.134,-0.156
2.135,-0.144
2.136,-0.114
2.137,-0.094
2.138,-0.075
2.139,-0.066
2.140,-0.055
2.141,-0.050
2.142,-0.050
2.143,-0.050
2.144,-0.053
2.145,-0.053
2.146,-0.054
2.147,-0.056
2.148,-0.061
2.149,-0.063
2.150,-0.063
2.151,-0.059
2.152,-0.056
2.153,-0.053
2.154,-0.050
2.155,-0.047
2.156,-0.049
2.157,-0.050
2.158,-0.050
2.159,-0.053
2.160,-0.054
2.161,-0.059
2.162,-0.061
2.163,-0.063
2.164,-0.061
2.165,-0.063
2.166,-0.059
2.167,-0.056
2.168,-0.056
2.169,-0.056
2.170,-0.059
2.171,-0.063
2.172,-0.061
2.173,-0.059
2.174,-0.058
2.175,-0.056
2.176,-0.057
2.177,-0.059
2.178,-0.061
2.179,-0.063
2.180,-0.064
2.181,-0.066
2.182,-0.069
2.183,-0.066
2.184,-0.066
2.185,-0.066
2.186,-0.067
2.187,-0.069
2.188,-0.069
2.189,-0.069
2.190,-0.068
2.191,-0.066
2.192,-0.064
2.193,-0.066
2.194,-0.064
2.195,-0.063
2.196,-0.067
2.197,-0.066
2.198,-0.063
2.199,-0.056
2.200,-0.056
2.201,-0.059
2.202,-0.059
2.203,-0.059
2.204,-0.053
2.205,-0.047
2.206,-0.047
2.207,-0.047
2.208,-0.048
2.209,-0.050
2.210,-0.053
2.211,-0.050
2.212,-0.051
2.213,-0.050
2.214,-0.050
2.215,-0.053
2.216,-0.050
2.217,-0.053
2.218,-0.051
2.219,-0.053
2.220,-0.049
2.221,-0.050
2.222,-0.048
2.223,-0.050
2.224,-0.048
2.225,-0.050
2.226,-0.053
2.227,-0.053
2.228,-0.051
2.229,-0.053
2.230,-0.053
2.231,-0.053
2.232,-0.052
2.233,-0.050
2.234,-0.050
2.235,-0.050
2.236,-0.050
2.237,-0.050
2.238,-0.047
2.239,-0.044
2.240,-0.043
2.241,-0.038
2.242,-0.036
2.243,-0.034
2.244,-0.036
2.245,-0.034
2.246,-0.039
2.247,-0.041
2.248,-0.042
2.249,-0.041
2.250,-0.041
2.251,-0.041
2.252,-0.042
2.253,-0.041
2.254,-0.039
2.255,-0.038
2.256,-0.041
2.257,-0.041
2.258,-0.041
2.259,-0.038
2.260,-0.038
2.261,-0.038
2.262,-0.038
2.263,-0.038
2.264,-0.039
2.265,-0.041
2.266,-0.042
2.267,-0.041
2.268,-0.039
2.269,-0.041
2.270,-0.039
2.271,-0.041
2.272,-0.039
2.273,-0.038
2.274,-0.033
2.275,-0.034
2.276,-0.034
2.277,-0.034
2.278,-0.038
2.279,-0.038
2.280,-0.036
2.281,-0.034
2.282,-0.034
2.283,-0.034
2.284,-0.031
2.285,-0.031
2.286,-0.032
2.287,-0.034
2.288,-0.034
2.289,-0.034
2.290,-0.034
2.291,-0.034
2.292,-0.030
2.293,-0.025
2.294,-0.026
2.295,-0.028
2.296,-0.026
2.297,-0.028
2.298,-0.029
2.299,-0.031
2.300,-0.028
2.301,-0.028
2.302,-0.025
2.303,-0.022
2.304,-0.016
2.305,-0.013
2.306,-0.014
2.307,-0.016
2.308,-0.013
2.309,-0.009
2.310,-0.009
2.311,-0.009
2.312,-0.011
2.313,-0.009
2.314,-0.006
2.315,-0.006
2.316,-0.001
2.317,-0.003
2.318,-0.003
2.319,-0.003
2.320,-0.002
2.321,0.003
2.322,0.003
2.323,0.006
2.324,0.009
2.325,0.009
2.326,0.008
2.327,0.009
2.328,0.009
2.329,0.013
2.330,0.017
2.331,0.022
2.332,0.021
2.333,0.019
2.334,0.023
2.335,0.025
2.336,0.026
2.337,0.031
2.338,0.030
2.339,0.031
2.340,0.034
2.341,0.038
2.342,0.039
2.343,0.041
2.344,0.039
2.345,0.041
2.346,0.042
2.347,0.044
2.348,0.047
2.349,0.047
2.350,0.049
2.351,0.050
2.352,0.049
2.353,0.047
2.354,0.054
2.355,0.059
2.356,0.061
2.357,0.059
2.358,0.058
2.359,0.056
2.360,0.061
2.361,0.066
2.362,0.064
2.363,0.066
2.364,0.073
2.365,0.075
2.366,0.078
2.367,0.078
2.368,0.078
2.369,0.081
2.370,0.081
2.371,0.081
2.372,0.083
2.373,0.084
2.374,0.084
2.375,0.084
2.376,0.084
2.377,0.084
2.378,0.083
2.379,0.081
2.380,0.086
2.381,0.084
2.382,0.086
2.383,0.084
2.384,0.091
2.385,0.097
2.386,0.097
2.387,0.097
2.388,0.097
2.389,0.100
2.390,0.099
2.391,0.097
2.392,0.101
2.393,0.103
2.394,0.106
2.395,0.106
2.396,0.106
2.397,0.106
2.398,0.106
2.399,0.106
2.400,0.105
2.401,0.103
2.402,0.105
2.403,0.103
2.404,0.106
2.405,0.109
2.406,0.111
2.407,0.109
2.408,0.109
2.409,0.109
2.410,0.109
2.411,0.109
2.412,0.108
2.413,0.106
2.414,0.111
2.415,0.109
2.416,0.106
2.417,0.106
2.418,0.105
2.419,0.100
2.420,0.101
2.421,0.103
2.422,0.100
2.423,0.100
2.424,0.096
2.425,0.091
2.426,0.088
2.427,0.088
2.428,0.088
2.429,0.081
2.430,0.084
2.431,0.084
2.432,0.081
2.433,0.078
2.434,0.072
2.435,0.063
2.436,0.064
2.437,0.063
2.438,0.056
2.439,0.053
2.440,0.051
2.441,0.050
2.442,0.048
2.443,0.047
2.444,0.044
2.445,0.041
2.446,0.034
2.447,0.028
2.448,0.024
2.449,0.019
2.450,0.019
2.451,0.019
2.452,0.016
2.453,0.013
2.454,0.013
2.455,0.009
2.456,0.005
2.457,0.000
2.458,-0.002
2.459,-0.003
2.460,-0.003
2.461,-0.006
2.462,-0.011
2.463,-0.013
2.464,-0.016
2.465,-0.016
2.466,-0.019
2.467,-0.019
2.468,-0.018
2.469,-0.016
2.470,-0.020
2.471,-0.022
2.472,-0.021
2.473,-0.022
2.474,-0.025
2.475,-0.025
2.476,-0.025
2.477,-0.025
2.478,-0.026
2.479,-0.028
2.480,-0.028
2.481,-0.028
2.482,-0.031
2.483,-0.034
2.484,-0.031
2.485,-0.031
2.486,-0.032
2.487,-0.034
2.488,-0.033
2.489,-0.031
2.490,-0.028
2.491,-0.025
2.492,-0.024
2.493,-0.019
2.494,-0.019
2.495,-0.019
2.496,-0.022
2.497,-0.022
2.498,-0.025
2.499,-0.025
2.500,-0.026
2.501,-0.025
2.502,-0.025
2.503,-0.025
2.504,-0.024
2.505,-0.022
2.506,-0.021
2.507,-0.019
2.508,-0.018
2.509,-0.019
2.510,-0.020
2.511,-0.019
2.512,-0.016
2.513,-0.016
2.514,-0.019
2.515,-0.019
2.516,-0.019
2.517,-0.019
2.518,-0.019
2.519,-0.019
2.520,-0.016
2.521,-0.019
2.522,-0.018
2.523,-0.019
2.524,-0.016
2.525,-0.019
2.526,-0.020
2.527,-0.019
2.528,-0.020
2.529,-0.022
2.530,-0.021
2.531,-0.019
2.532,-0.018
2.533,-0.019
2.534,-0.020
2.535,-0.022
2.536,-0.023
2.537,-0.025
2.538,-0.025
2.539,-0.025
2.540,-0.024
2.541,-0.025
2.542,-0.026
2.543,-0.028
2.544,-0.029
2.545,-0.031
2.546,-0.032
2.547,-0.034
2.548,-0.033
2.549,-0.034
2.550,-0.033
2.551,-0.031
2.552,-0.033
2.553,-0.031
2.554,-0.034
2.555,-0.034
2.556,-0.034
2.557,-0.034
2.558,-0.034
2.559,-0.034
2.560,-0.038
2.561,-0.038
2.562,-0.041
2.563,-0.044
2.564,-0.044
2.565,-0.041
2.566,-0.044
2.567,-0.041
2.568,-0.041
2.569,-0.044
2.570,-0.044
2.571,-0.044
2.572,-0.044
2.573,-0.047
2.574,-0.047
2.575,-0.047
2.576,-0.046
2.577,-0.047
2.578,-0.047
2.579,-0.047
2.580,-0.048
2.581,-0.050
2.582,-0.049
2.583,-0.050
2.584,-0.050
2.585,-0.050
2.586,-0.050
2.587,-0.050
2.588,-0.049
2.589,-0.050
2.590,-0.051
2.591,-0.053
2.592,-0.053
2.593,-0.053
2.594,-0.053
2.595,-0.056
2.596,-0.061
2.597,-0.063
2.598,-0.063
2.599,-0.063
2.600,-0.063
2.601,-0.063
2.602,-0.066
2.603,-0.066
2.604,-0.063
2.605,-0.059
2.606,-0.063
2.607,-0.063
2.608,-0.064
2.609,-0.066
2.610,-0.066
2.611,-0.066
2.612,-0.064
2.613,-0.066
2.614,-0.070
2.615,-0.069
2.616,-0.069
2.617,-0.069
2.618,-0.069
2.619,-0.069
2.620,-0.068
2.621,-0.069
2.622,-0.068
2.623,-0.069
2.624,-0.067
2.625,-0.069
2.626,-0.069
2.627,-0.069
2.628,-0.067
2.629,-0.072
2.630,-0.072
2.631,-0.072
2.632,-0.075
2.633,-0.075
2.634,-0.074
2.635,-0.072
2.636,-0.075
2.637,-0.075
2.638,-0.075
2.639,-0.075
2.640,-0.075
2.641,-0.075
2.642,-0.074
2.643,-0.075
2.644,-0.076
2.645,-0.084
2.646,-0.081
2.647,-0.084
2.648,-0.084
2.649,-0.081
2.650,-0.081
2.651,-0.081
2.652,-0.084
2.653,-0.084
2.654,-0.083
2.655,-0.081
2.656,-0.081
2.657,-0.084
2.658,-0.086
2.659,-0.084
2.660,-0.088
2.661,-0.088
2.662,-0.088
2.663,-0.088
2.664,-0.088
2.665,-0.088
2.666,-0.091
2.667,-0.088
2.668,-0.091
2.669,-0.088
2.670,-0.086
2.671,-0.088
2.672,-0.089
2.673,-0.091
2.674,-0.091
2.675,-0.091
2.676,-0.091
2.677,-0.094
2.678,-0.095
2.679,-0.094
2.680,-0.094
2.681,-0.097
2.682,-0.096
2.683,-0.094
2.684,-0.094
2.685,-0.094
2.686,-0.091
2.687,-0.094
2.688,-0.095
2.689,-0.094
2.690,-0.094
2.691,-0.094
2.692,-0.089
2.693,-0.081
2.694,-0.080
2.695,-0.078
2.696,-0.082
2.697,-0.084
2.698,-0.082
2.699,-0.084
2.700,-0.081
2.701,-0.081
2.702,-0.086
2.703,-0.084
2.704,-0.083
2.705,-0.081
2.706,-0.078
2.707,-0.075
2.708,-0.076
2.709,-0.075
2.710,-0.073
2.711,-0.072
2.712,-0.066
2.713,-0.059
2.714,-0.046
2.715,-0.028
2.716,-0.014
2.717,-0.003
2.718,0.005
2.719,0.009
2.720,0.016
2.721,0.019
2.722,0.023
2.723,0.022
2.724,0.023
2.725,0.022
2.726,0.023
2.727,0.022
2.728,0.016
2.729,0.006
2.730,-0.004
2.731,-0.019
2.732,-0.026
2.733,-0.028
2.734,-0.036
2.735,-0.038
2.736,-0.041
2.737,-0.034
2.738,-0.027
2.739,-0.019
2.740,-0.011
2.741,-0.003
2.742,0.003
2.743,0.009
2.744,0.014
2.745,0.019
2.746,0.023
2.747,0.025
2.748,0.028
2.749,0.028
2.750,0.029
2.751,0.025
2.752,0.013
2.753,0.003
2.754,-0.007
2.755,-0.019
2.756,-0.025
2.757,-0.025
2.758,-0.030
2.759,-0.031
2.760,-0.034
2.761,-0.038
2.762,-0.034
2.763,-0.034
2.764,-0.042
2.765,-0.044
2.766,-0.050
2.767,-0.047
2.768,-0.046
2.769,-0.044
2.770,-0.046
2.771,-0.047
2.772,-0.052
2.773,-0.053
2.774,-0.052
2.775,-0.056
2.776,-0.059
2.777,-0.066
2.778,-0.069
2.779,-0.072
2.780,-0.078
2.781,-0.084
2.782,-0.086
2.783,-0.088
2.784,-0.092
2.785,-0.094
2.786,-0.097
2.787,-0.097
2.788,-0.100
2.789,-0.100
2.790,-0.104
2.791,-0.106
2.792,-0.111
2.793,-0.113
2.794,-0.116
2.795,-0.116
2.796,-0.116
2.797,-0.119
2.798,-0.119
2.799,-0.122
2.800,-0.119
2.801,-0.119
2.802,-0.123
2.803,-0.125
2.804,-0.122
2.805,-0.122
2.806,-0.125
2.807,-0.125
2.808,-0.126
2.809,-0.128
2.810,-0.119
2.811,-0.116
2.812,-0.116
2.813,-0.116
2.814,-0.117
2.815,-0.119
2.816,-0.119
2.817,-0.122
2.818,-0.122
2.819,-0.125
2.820,-0.123
2.821,-0.125
2.822,-0.122
2.823,-0.125
2.824,-0.122
2.825,-0.119
2.826,-0.118
2.827,-0.116
2.828,-0.117
2.829,-0.116
2.830,-0.114
2.831,-0.113
2.832,-0.114
2.833,-0.113
2.834,-0.114
2.835,-0.116
2.836,-0.117
2.837,-0.119
2.838,-0.118
2.839,-0.116
2.840,-0.111
2.841,-0.116
2.842,-0.116
2.843,-0.119
2.844,-0.122
2.845,-0.128
2.846,-0.136
2.847,-0.144
2.848,-0.154
2.849,-0.159
2.850,-0.163
2.851,-0.163
2.852,-0.161
2.853,-0.159
2.854,-0.154
2.855,-0.153
2.856,-0.150
2.857,-0.147
2.858,-0.147
2.859,-0.147
2.860,-0.141
2.861,-0.128
2.862,-0.119
2.863,-0.106
2.864,-0.081
2.865,-0.059
2.866,-0.042
2.867,-0.013
2.868,0.021
2.869,0.069
2.870,0.128
2.871,0.191
2.872,0.258
2.873,0.331
2.874,0.400
2.875,0.462
2.876,0.517
2.877,0.572
2.878,0.625
2.879,0.691
2.880,0.755
2.881,0.819
2.882,0.877
2.883,0.925
2.884,0.970
2.885,1.003
2.886,1.036
2.887,1.053
2.888,1.053
2.889,1.038
2.890,1.017
2.891,0.966
2.892,0.897
2.893,0.797
2.894,0.687
2.895,0.566
2.896,0.437
2.897,0.341
2.898,0.247
2.899,0.178
2.900,0.118
2.901,0.056
2.902,0.002
2.903,-0.044
2.904,-0.089
2.905,-0.122
2.906,-0.150
2.907,-0.169
2.908,-0.174
2.909,-0.166
2.910,-0.149
2.911,-0.116
2.912,-0.094
2.913,-0.081
2.914,-0.069
2.915,-0.066
2.916,-0.055
2.917,-0.050
2.918,-0.050
2.919,-0.050
2.920,-0.053
2.921,-0.053
2.922,-0.054
2.923,-0.056
2.924,-0.061
2.925,-0.063
2.926,-0.061
2.927,-0.056
2.928,-0.057
2.929,-0.059
2.930,-0.063
2.931,-0.066
2.932,-0.068
2.933,-0.069
2.934,-0.069
2.935,-0.072
2.936,-0.071
2.937,-0.072
2.938,-0.073
2.939,-0.075
2.940,-0.074
2.941,-0.075
2.942,-0.075
2.943,-0.075
2.944,-0.075
2.945,-0.075
2.946,-0.075
2.947,-0.075
2.948,-0.075
2.949,-0.075
2.950,-0.075
2.951,-0.075
2.952,-0.078
2.953,-0.081
2.954,-0.080
2.955,-0.078
2.956,-0.077
2.957,-0.075
2.958,-0.081
2.959,-0.081
2.960,-0.082
2.961,-0.084
2.962,-0.081
2.963,-0.078
2.964,-0.077
2.965,-0.075
2.966,-0.076
2.967,-0.078
2.968,-0.075
2.969,-0.075
2.970,-0.075
2.971,-0.075
2.972,-0.079
2.973,-0.078
2.974,-0.077
2.975,-0.072
2.976,-0.072
2.977,-0.075
2.978,-0.072
2.979,-0.069
2.980,-0.068
2.981,-0.066
2.982,-0.066
2.983,-0.066
2.984,-0.064
2.985,-0.063
2.986,-0.067
2.987,-0.066
2.988,-0.067
2.989,-0.066
2.990,-0.066
2.991,-0.069
2.992,-0.066
2.993,-0.069
2.994,-0.063
2.995,-0.059
2.996,-0.057
2.997,-0.063
2.998,-0.059
2.999,-0.059
3.000,-0.055
3.001,-0.053
3.002,-0.056
3.003,-0.056
3.004,-0.053
3.005,-0.053
3.006,-0.054
3.007,-0.056
3.008,-0.057
3.009,-0.059
3.010,-0.058
3.011,-0.056
3.012,-0.056
3.013,-0.056
3.014,-0.056
3.015,-0.056
3.016,-0.057
3.017,-0.056
3.018,-0.055
3.019,-0.053
3.020,-0.054
3.021,-0.053
3.022,-0.056
3.023,-0.056
3.024,-0.056
3.025,-0.053
3.026,-0.053
3.027,-0.053
3.028,-0.054
3.029,-0.053
3.030,-0.052
3.031,-0.050
3.032,-0.053
3.033,-0.053
3.034,-0.054
3.035,-0.053
3.036,-0.053
3.037,-0.053
3.038,-0.053
3.039,-0.053
3.040,-0.053
3.041,-0.053
3.042,-0.053
3.043,-0.050
3.044,-0.050
3.045,-0.053
3.046,-0.051
3.047,-0.053
3.048,-0.054
3.049,-0.056
3.050,-0.050
3.051,-0.050
3.052,-0.050
3.053,-0.050
3.054,-0.049
3.055,-0.044
3.056,-0.044
3.057,-0.044
3.058,-0.045
3.059,-0.047
3.060,-0.041
3.061,-0.038
3.062,-0.038
3.063,-0.038
3.064,-0.038
3.065,-0.038
3.066,-0.039
3.067,-0.041
3.068,-0.038
3.069,-0.034
3.070,-0.034
3.071,-0.034
3.072,-0.030
3.073,-0.028
3.074,-0.028
3.075,-0.028
3.076,-0.024
3.077,-0.022
3.078,-0.025
3.079,-0.028
3.080,-0.025
3.081,-0.025
3.082,-0.024
3.083,-0.022
3.084,-0.020
3.085,-0.019
3.086,-0.016
3.087,-0.013
3.088,-0.016
3.089,-0.016
3.090,-0.014
3.091,-0.016
3.092,-0.009
3.093,-0.009
3.094,-0.005
3.095,0.000
3.096,0.000
3.097,0.003
3.098,0.002
3.099,0.003
3.100,0.005
3.101,0.003
3.102,0.004
3.103,0.009
3.104,0.011
3.105,0.016
3.106,0.018
3.107,0.019
3.108,0.019
3.109,0.019
3.110,0.022
3.111,0.022
3.112,0.022
3.113,0.025
3.114,0.024
3.115,0.025
3.116,0.026
3.117,0.028
3.118,0.030
3.119,0.031
3.120,0.030
3.121,0.031
3.122,0.034
3.123,0.038
3.124,0.042
3.125,0.044
3.126,0.047
3.127,0.050
3.128,0.051
3.129,0.053
3.130,0.055
3.131,0.053
3.132,0.055
3.133,0.053
3.134,0.054
3.135,0.056
3.136,0.058
3.137,0.059
3.138,0.056
3.139,0.056
3.140,0.064
3.141,0.066
3.142,0.069
3.143,0.069
3.144,0.070
3.145,0.075
3.146,0.075
3.147,0.075
3.148,0.077
3.149,0.078
3.150,0.078
3.151,0.078
3.152,0.078
3.153,0.078
3.154,0.077
3.155,0.075
3.156,0.082
3.157,0.084
3.158,0.089
3.159,0.091
3.160,0.093
3.161,0.094
3.162,0.094
3.163,0.094
3.164,0.094
3.165,0.097
3.166,0.096
3.167,0.094
3.168,0.097
3.169,0.097
3.170,0.100
3.171,0.100
3.172,0.100
3.173,0.100
3.174,0.100
3.175,0.100
3.176,0.101
3.177,0.103
3.178,0.105
3.179,0.103
3.180,0.106
3.181,0.109
3.182,0.111
3.183,0.109
3.184,0.109
3.185,0.109
3.186,0.108
3.187,0.106
3.188,0.106
3.189,0.106
3.190,0.111
3.191,0.109
3.192,0.106
3.193,0.106
3.194,0.107
3.195,0.106
3.196,0.103
3.197,0.100
3.198,0.098
3.199,0.100
3.200,0.097
3.201,0.094
3.202,0.089
3.203,0.088
3.204,0.089
3.205,0.084
3.206,0.083
3.207,0.078
3.208,0.072
3.209,0.066
3.210,0.066
3.211,0.063
3.212,0.059
3.213,0.053
3.214,0.049
3.215,0.047
3.216,0.047
3.217,0.047
3.218,0.044
3.219,0.041
3.220,0.036
3.221,0.031
3.222,0.028
3.223,0.025
3.224,0.021
3.225,0.016
3.226,0.014
3.227,0.013
3.228,0.009
3.229,0.006
3.230,0.006
3.231,0.003
3.232,0.000
3.233,-0.003
3.234,-0.007
3.235,-0.013
3.236,-0.011
3.237,-0.013
3.238,-0.014
3.239,-0.013
3.240,-0.017
3.241,-0.019
3.242,-0.022
3.243,-0.022
3.244,-0.022
3.245,-0.022
3.246,-0.025
3.247,-0.025
3.248,-0.022
3.249,-0.022
3.250,-0.029
3.251,-0.034
3.252,-0.036
3.253,-0.038
3.254,-0.038
3.255,-0.038
3.256,-0.036
3.257,-0.034
3.258,-0.036
3.259,-0.038
3.260,-0.034
3.261,-0.034
3.262,-0.036
3.263,-0.038
3.264,-0.038
3.265,-0.038
3.266,-0.038
3.267,-0.038
3.268,-0.041
3.269,-0.041
3.270,-0.039
3.271,-0.038
3.272,-0.039
3.273,-0.038
3.274,-0.041
3.275,-0.041
3.276,-0.041
3.277,-0.038
3.278,-0.038
3.279,-0.038
3.280,-0.038
3.281,-0.038
3.282,-0.039
3.283,-0.041
3.284,-0.039
3.285,-0.041
3.286,-0.041
3.287,-0.038
3.288,-0.033
3.289,-0.031
3.290,-0.034
3.291,-0.034
3.292,-0.034
3.293,-0.034
3.294,-0.033
3.295,-0.031
3.296,-0.028
3.297,-0.031
3.298,-0.030
3.299,-0.031
3.300,-0.028
3.301,-0.031
3.302,-0.034
3.303,-0.034
3.304,-0.030
3.305,-0.025
3.306,-0.026
3.307,-0.028
3.308,-0.028
3.309,-0.031
3.310,-0.031
3.311,-0.031
3.312,-0.031
3.313,-0.031
3.314,-0.032
3.315,-0.034
3.316,-0.033
3.317,-0.034
3.318,-0.033
3.319,-0.031
3.320,-0.031
3.321,-0.031
3.322,-0.032
3.323,-0.034
3.324,-0.033
3.325,-0.034
3.326,-0.034
3.327,-0.034
3.328,-0.036
3.329,-0.034
3.330,-0.038
3.331,-0.038
3.332,-0.038
3.333,-0.038
3.334,-0.036
3.335,-0.034
3.336,-0.038
3.337,-0.038
3.338,-0.036
3.339,-0.034
3.340,-0.041
3.341,-0.044
3.342,-0.048
3.343,-0.047
3.344,-0.046
3.345,-0.047
3.346,-0.048
3.347,-0.050
3.348,-0.049
3.349,-0.050
3.350,-0.050
3.351,-0.050
3.352,-0.049
3.353,-0.050
3.354,-0.051
3.355,-0.053
3.356,-0.053
3.357,-0.053
3.358,-0.052
3.359,-0.053
3.360,-0.053
3.361,-0.053
3.362,-0.053
3.363,-0.053
3.364,-0.053
3.365,-0.056
3.366,-0.057
3.367,-0.059
3.368,-0.061
3.369,-0.063
3.370,-0.063
3.371,-0.066
3.372,-0.069
3.373,-0.069
3.374,-0.069
3.375,-0.069
3.376,-0.068
3.377,-0.066
3.378,-0.068
3.379,-0.066
3.380,-0.066
3.381,-0.066
3.382,-0.068
3.383,-0.066
3.384,-0.067
3.385,-0.069
3.386,-0.069
3.387,-0.069
3.388,-0.068
3.389,-0.069
3.390,-0.075
3.391,-0.075
3.392,-0.075
3.393,-0.075
3.394,-0.074
3.395,-0.072
3.396,-0.071
3.397,-0.072
3.398,-0.071
3.399,-0.072
3.400,-0.070
3.401,-0.072
3.402,-0.072
3.403,-0.072
3.404,-0.069
3.405,-0.072
3.406,-0.071
3.407,-0.069
3.408,-0.075
3.409,-0.078
3.410,-0.078
3.411,-0.078
3.412,-0.081
3.413,-0.081
3.414,-0.080
3.415,-0.078
3.416,-0.079
3.417,-0.081
3.418,-0.080
3.419,-0.081
3.420,-0.078
3.421,-0.081
3.422,-0.078
3.423,-0.081
3.424,-0.081
3.425,-0.078
3.426,-0.080
3.427,-0.081
3.428,-0.084
3.429,-0.084
3.430,-0.086
3.431,-0.084
3.432,-0.083
3.433,-0.081
3.434,-0.078
3.435,-0.075
3.436,-0.081
3.437,-0.084
3.438,-0.086
3.439,-0.088
3.440,-0.088
3.441,-0.088
3.442,-0.089
3.443,-0.091
3.444,-0.089
3.445,-0.091
3.446,-0.089
3.447,-0.091
3.448,-0.091
3.449,-0.094
3.450,-0.094
3.451,-0.094
3.452,-0.095
3.453,-0.094
3.454,-0.093
3.455,-0.088
3.456,-0.086
3.457,-0.084
3.458,-0.088
3.459,-0.088
3.460,-0.089
3.461,-0.091
3.462,-0.089
3.463,-0.091
3.464,-0.091
3.465,-0.088
3.466,-0.091
3.467,-0.091
3.468,-0.091
3.469,-0.091
3.470,-0.091
3.471,-0.091
3.472,-0.094
3.473,-0.091
3.474,-0.095
3.475,-0.094
3.476,-0.091
3.477,-0.091
3.478,-0.091
3.479,-0.091
3.480,-0.091
3.481,-0.091
3.482,-0.091
3.483,-0.094
3.484,-0.095
3.485,-0.094
3.486,-0.094
3.487,-0.097
3.488,-0.098
3.489,-0.100
3.490,-0.100
3.491,-0.100
3.492,-0.094
3.493,-0.094
3.494,-0.094
3.495,-0.091
3.496,-0.089
3.497,-0.088
3.498,-0.086
3.499,-0.081
3.500,-0.081
3.501,-0.081
3.502,-0.084
3.503,-0.084
3.504,-0.081
3.505,-0.081
3.506,-0.077
3.507,-0.075
3.508,-0.078
3.509,-0.075
3.510,-0.076
3.511,-0.078
3.512,-0.075
3.513,-0.072
3.514,-0.072
3.515,-0.069
3.516,-0.067
3.517,-0.066
3.518,-0.055
3.519,-0.044
3.520,-0.036
3.521,-0.025
3.522,-0.011
3.523,0.000
3.524,0.011
3.525,0.019
3.526,0.024
3.527,0.025
3.528,0.028
3.529,0.025
3.530,0.026
3.531,0.025
3.532,0.022
3.533,0.016
3.534,0.009
3.535,0.000
3.536,-0.003
3.537,-0.009
3.538,-0.014
3.539,-0.013
3.540,-0.017
3.541,-0.016
3.542,-0.016
3.543,-0.006
3.544,0.000
3.545,0.006
3.546,0.013
3.547,0.019
3.548,0.025
3.549,0.031
3.550,0.039
3.551,0.047
3.552,0.049
3.553,0.047
3.554,0.046
3.555,0.041
3.556,0.039
3.557,0.031
3.558,0.016
3.559,0.003
3.560,-0.007
3.561,-0.019
3.562,-0.027
3.563,-0.028
3.564,-0.033
3.565,-0.034
3.566,-0.034
3.567,-0.034
3.568,-0.033
3.569,-0.034
3.570,-0.039
3.571,-0.038
3.572,-0.042
3.573,-0.038
3.574,-0.038
3.575,-0.038
3.576,-0.039
3.577,-0.041
3.578,-0.048
3.579,-0.053
3.580,-0.054
3.581,-0.063
3.582,-0.064
3.583,-0.069
3.584,-0.069
3.585,-0.069
3.586,-0.072
3.587,-0.075
3.588,-0.081
3.589,-0.088
3.590,-0.089
3.591,-0.088
3.592,-0.089
3.593,-0.088
3.594,-0.095
3.595,-0.100
3.596,-0.103
3.597,-0.103
3.598,-0.106
3.599,-0.106
3.600,-0.109
3.601,-0.109
3.602,-0.109
3.603,-0.113
3.604,-0.117
3.605,-0.125
3.606,-0.122
3.607,-0.122
3.608,-0.125
3.609,-0.125
3.610,-0.119
3.611,-0.116
3.612,-0.119
3.613,-0.119
3.614,-0.120
3.615,-0.122
3.616,-0.118
3.617,-0.119
3.618,-0.120
3.619,-0.122
3.620,-0.123
3.621,-0.125
3.622,-0.122
3.623,-0.122
3.624,-0.118
3.625,-0.116
3.626,-0.114
3.627,-0.116
3.628,-0.113
3.629,-0.116
3.630,-0.113
3.631,-0.109
3.632,-0.109
3.633,-0.109
3.634,-0.116
3.635,-0.119
3.636,-0.119
3.637,-0.119
3.638,-0.118
3.639,-0.113
3.640,-0.111
3.641,-0.109
3.642,-0.108
3.643,-0.106
3.644,-0.106
3.645,-0.106
3.646,-0.102
3.647,-0.106
3.648,-0.106
3.649,-0.109
3.650,-0.119
3.651,-0.131
3.652,-0.136
3.653,-0.141
3.654,-0.147
3.655,-0.147
3.656,-0.153
3.657,-0.156
3.658,-0.155
3.659,-0.153
3.660,-0.147
3.661,-0.144
3.662,-0.138
3.663,-0.131
3.664,-0.132
3.665,-0.134
3.666,-0.132
3.667,-0.125
3.668,-0.111
3.669,-0.094
3.670,-0.073
3.671,-0.056
3.672,-0.034
3.673,0.000
3.674,0.034
3.675,0.084
3.676,0.141
3.677,0.200
3.678,0.264
3.679,0.334
3.680,0.400
3.681,0.459
3.682,0.512
3.683,0.566
3.684,0.622
3.685,0.691
3.686,0.755
3.687,0.819
3.688,0.880
3.689,0.931
3.690,0.976
3.691,1.009
3.692,1.038
3.693,1.050
3.694,1.053
3.695,1.041
3.696,1.013
3.697,0.953
3.698,0.881
3.699,0.778
3.700,0.676
3.701,0.562
3.702,0.445
3.703,0.359
3.704,0.267
3.705,0.200
3.706,0.143
3.707,0.084
3.708,0.028
3.709,-0.019
3.710,-0.063
3.711,-0.094
3.712,-0.122
3.713,-0.141
3.714,-0.152
3.715,-0.150
3.716,-0.136
3.717,-0.106
3.718,-0.081
3.719,-0.066
3.720,-0.049
3.721,-0.041
3.722,-0.031
3.723,-0.028
3.724,-0.028
3.725,-0.028
3.726,-0.030
3.727,-0.028
3.728,-0.029
3.729,-0.031
3.730,-0.036
3.731,-0.038
3.732,-0.042
3.733,-0.044
3.734,-0.045
3.735,-0.047
3.736,-0.046
3.737,-0.044
3.738,-0.046
3.739,-0.047
3.740,-0.047
3.741,-0.050
3.742,-0.050
3.743,-0.053
3.744,-0.053
3.745,-0.053
3.746,-0.054
3.747,-0.059
3.748,-0.059
3.749,-0.059
3.750,-0.059
3.751,-0.059
3.752,-0.059
3.753,-0.059
3.754,-0.058
3.755,-0.056
3.756,-0.057
3.757,-0.059
3.758,-0.061
3.759,-0.063
3.760,-0.059
3.761,-0.056
3.762,-0.056
3.763,-0.056
3.764,-0.061
3.765,-0.059
3.766,-0.059
3.767,-0.059
3.768,-0.059
3.769,-0.059
3.770,-0.058
3.771,-0.056
3.772,-0.057
3.773,-0.059
3.774,-0.057
3.775,-0.059
3.776,-0.058
3.777,-0.056
3.778,-0.059
3.779,-0.056
3.780,-0.056
3.781,-0.053
3.782,-0.052
3.783,-0.053
3.784,-0.051
3.785,-0.050
3.786,-0.050
3.787,-0.050
3.788,-0.050
3.789,-0.050
3.790,-0.053
3.791,-0.056
3.792,-0.058
3.793,-0.053
3.794,-0.053
3.795,-0.050
3.796,-0.047
3.797,-0.047
3.798,-0.041
3.799,-0.041
3.800,-0.039
3.801,-0.041
3.802,-0.038
3.803,-0.041
3.804,-0.039
3.805,-0.041
3.806,-0.038
3.807,-0.038
3.808,-0.042
3.809,-0.044
3.810,-0.042
3.811,-0.044
3.812,-0.044
3.813,-0.044
3.814,-0.044
3.815,-0.044
3.816,-0.041
3.817,-0.038
3.818,-0.038
3.819,-0.038
3.820,-0.039
3.821,-0.041
3.822,-0.038
3.823,-0.031
3.824,-0.032
3.825,-0.034
3.826,-0.034
3.827,-0.031
3.828,-0.034
3.829,-0.034
3.830,-0.036
3.831,-0.034
3.832,-0.034
3.833,-0.034
3.834,-0.034
3.835,-0.031
3.836,-0.031
3.837,-0.031
3.838,-0.031
3.839,-0.028
3.840,-0.027
3.841,-0.022
3.842,-0.023
3.843,-0.025
3.844,-0.025
3.845,-0.025
3.846,-0.026
3.847,-0.028
3.848,-0.029
3.849,-0.028
3.850,-0.027
3.851,-0.028
3.852,-0.028
3.853,-0.031
3.854,-0.031
3.855,-0.031
3.856,-0.027
3.857,-0.028
3.858,-0.028
3.859,-0.028
3.860,-0.031
3.861,-0.031
3.862,-0.031
3.863,-0.031
3.864,-0.032
3.865,-0.034
3.866,-0.030
3.867,-0.028
3.868,-0.029
3.869,-0.031
3.870,-0.028
3.871,-0.025
3.872,-0.024
3.873,-0.022
3.874,-0.020
3.875,-0.019
3.876,-0.018
3.877,-0.016
3.878,-0.013
3.879,-0.013
3.880,-0.014
3.881,-0.016
3.882,-0.013
3.883,-0.013
3.884,-0.013
3.885,-0.013
3.886,-0.008
3.887,-0.006
3.888,-0.003
3.889,0.000
3.890,0.002
3.891,0.003
3.892,0.003
3.893,0.003
3.894,0.003
3.895,0.006
3.896,0.011
3.897,0.013
3.898,0.016
3.899,0.013
3.900,0.016
3.901,0.019
3.902,0.018
3.903,0.019
3.904,0.018
3.905,0.019
3.906,0.022
3.907,0.022
3.908,0.021
3.909,0.022
3.910,0.021
3.911,0.022
3.912,0.025
3.913,0.028
3.914,0.031
3.915,0.034
3.916,0.036
3.917,0.034
3.918,0.036
3.919,0.041
3.920,0.041
3.921,0.044
3.922,0.045
3.923,0.047
3.924,0.049
3.925,0.050
3.926,0.050
3.927,0.053
3.928,0.057
3.929,0.063
3.930,0.066
3.931,0.066
3.932,0.066
3.933,0.066
3.934,0.066
3.935,0.066
3.936,0.070
3.937,0.072
3.938,0.074
3.939,0.072
3.940,0.073
3.941,0.075
3.942,0.079
3.943,0.084
3.944,0.083
3.945,0.084
3.946,0.088
3.947,0.084
3.948,0.086
3.949,0.084
3.950,0.086
3.951,0.091
3.952,0.091
3.953,0.091
3.954,0.091
3.955,0.091
3.956,0.092
3.957,0.094
3.958,0.094
3.959,0.094
3.960,0.097
3.961,0.100
3.962,0.103
3.963,0.100
3.964,0.103
3.965,0.103
3.966,0.109
3.967,0.116
3.968,0.114
3.969,0.113
3.970,0.113
3.971,0.116
3.972,0.116
3.973,0.116
3.974,0.119
3.975,0.119
3.976,0.122
3.977,0.122
3.978,0.124
3.979,0.125
3.980,0.125
3.981,0.125
3.982,0.125
3.983,0.125
3.984,0.131
3.985,0.134
3.986,0.136
3.987,0.138
3.988,0.141
3.989,0.141
3.990,0.141
3.991,0.141
3.992,0.139
3.993,0.138
3.994,0.136
3.995,0.134
3.996,0.138
3.997,0.134
3.998,0.130
3.999,0.128
4.000,0.128
4.001,0.125
4.002,0.126
4.003,0.128
4.004,0.126
4.005,0.128
4.006,0.125
4.007,0.122
4.008,0.119
4.009,0.119
4.010,0.118
4.011,0.109
4.012,0.109
4.013,0.106
4.014,0.106
4.015,0.106
4.016,0.102
4.017,0.094
4.018,0.093
4.019,0.088
4.020,0.083
4.021,0.081
4.022,0.077
4.023,0.072
4.024,0.070
4.025,0.069
4.026,0.067
4.027,0.066
4.028,0.064
4.029,0.063
4.030,0.056
4.031,0.050
4.032,0.048
4.033,0.047
4.034,0.043
4.035,0.038
4.036,0.039
4.037,0.038
4.038,0.034
4.039,0.031
4.040,0.028
4.041,0.025
4.042,0.026
4.043,0.025
4.044,0.019
4.045,0.016
4.046,0.011
4.047,0.009
4.048,0.006
4.049,0.006
4.050,0.006
4.051,0.006
4.052,0.003
4.053,0.003
4.054,0.006
4.055,0.006
4.056,0.003
4.057,0.003
4.058,0.002
4.059,0.000
4.060,0.000
4.061,0.000
4.062,-0.003
4.063,-0.006
4.064,-0.008
4.065,-0.009
4.066,-0.006
4.067,-0.006
4.068,-0.006
4.069,-0.006
4.070,-0.006
4.071,-0.006
4.072,-0.006
4.073,-0.006
4.074,-0.008
4.075,-0.006
4.076,-0.004
4.077,-0.003
4.078,-0.005
4.079,-0.003
4.080,-0.006
4.081,-0.006
4.082,-0.007
4.083,-0.006
4.084,-0.006
4.085,-0.006
4.086,-0.007
4.087,-0.009
4.088,-0.009
4.089,-0.009
4.090,-0.006
4.091,-0.006
4.092,-0.006
4.093,-0.003
4.094,0.000
4.095,0.000
4.096,-0.004
4.097,-0.006
4.098,-0.007
4.099,-0.009
4.100,-0.011
4.101,-0.013
4.102,-0.008
4.103,-0.009
4.104,-0.009
4.105,-0.013
4.106,-0.006
4.107,-0.006
4.108,-0.007
4.109,-0.006
4.110,-0.003
4.111,0.000
4.112,-0.001
4.113,-0.003
4.114,-0.003
4.115,-0.006
4.116,-0.005
4.117,-0.003
4.118,-0.004
4.119,-0.006
4.120,-0.006
4.121,-0.006
4.122,-0.003
4.123,-0.003
4.124,-0.004
4.125,-0.006
4.126,-0.006
4.127,-0.006
4.128,-0.006
4.129,-0.006
4.130,-0.006
4.131,-0.009
4.132,-0.009
4.133,-0.009
4.134,-0.011
4.135,-0.009
4.136,-0.014
4.137,-0.016
4.138,-0.014
4.139,-0.013
4.140,-0.013
4.141,-0.013
4.142,-0.016
4.143,-0.016
4.144,-0.016
4.145,-0.016
4.146,-0.018
4.147,-0.016
4.148,-0.020
4.149,-0.019
4.150,-0.019
4.151,-0.022
4.152,-0.023
4.153,-0.025
4.154,-0.024
4.155,-0.025
4.156,-0.026
4.157,-0.028
4.158,-0.028
4.159,-0.031
4.160,-0.031
4.161,-0.031
4.162,-0.031
4.163,-0.031
4.164,-0.031
4.165,-0.034
4.166,-0.034
4.167,-0.034
4.168,-0.036
4.169,-0.038
4.170,-0.036
4.171,-0.038
4.172,-0.038
4.173,-0.038
4.174,-0.038
4.175,-0.038
4.176,-0.039
4.177,-0.044
4.178,-0.047
4.179,-0.047
4.180,-0.047
4.181,-0.047
4.182,-0.044
4.183,-0.041
4.184,-0.044
4.185,-0.044
4.186,-0.044
4.187,-0.044
4.188,-0.048
4.189,-0.050
4.190,-0.050
4.191,-0.050
4.192,-0.050
4.193,-0.050
4.194,-0.049
4.195,-0.050
4.196,-0.054
4.197,-0.053
4.198,-0.052
4.199,-0.050
4.200,-0.051
4.201,-0.053
4.202,-0.054
4.203,-0.059
4.204,-0.058
4.205,-0.059
4.206,-0.057
4.207,-0.059
4.208,-0.059
4.209,-0.059
4.210,-0.056
4.211,-0.059
4.212,-0.061
4.213,-0.063
4.214,-0.064
4.215,-0.063
4.216,-0.063
4.217,-0.063
4.218,-0.067
4.219,-0.069
4.220,-0.069
4.221,-0.069
4.222,-0.070
4.223,-0.072
4.224,-0.071
4.225,-0.072
4.226,-0.070
4.227,-0.075
4.228,-0.071
4.229,-0.072
4.230,-0.073
4.231,-0.072
4.232,-0.074
4.233,-0.075
4.234,-0.075
4.235,-0.072
4.236,-0.075
4.237,-0.075
4.238,-0.075
4.239,-0.075
4.240,-0.075
4.241,-0.075
4.242,-0.078
4.243,-0.078
4.244,-0.077
4.245,-0.075
4.246,-0.076
4.247,-0.078
4.248,-0.079
4.249,-0.081
4.250,-0.080
4.251,-0.081
4.252,-0.079
4.253,-0.081
4.254,-0.080
4.255,-0.081
4.256,-0.082
4.257,-0.084
4.258,-0.084
4.259,-0.081
4.260,-0.078
4.261,-0.075
4.262,-0.076
4.263,-0.078
4.264,-0.081
4.265,-0.081
4.266,-0.080
4.267,-0.078
4.268,-0.082
4.269,-0.084
4.270,-0.086
4.271,-0.088
4.272,-0.084
4.273,-0.084
4.274,-0.086
4.275,-0.084
4.276,-0.086
4.277,-0.084
4.278,-0.086
4.279,-0.088
4.280,-0.086
4.281,-0.084
4.282,-0.089
4.283,-0.088
4.284,-0.091
4.285,-0.088
4.286,-0.086
4.287,-0.088
4.288,-0.088
4.289,-0.088
4.290,-0.088
4.291,-0.088
4.292,-0.086
4.293,-0.088
4.294,-0.089
4.295,-0.088
4.296,-0.088
4.297,-0.091
4.298,-0.091
4.299,-0.091
4.300,-0.092
4.301,-0.094
4.302,-0.091
4.303,-0.094
4.304,-0.094
4.305,-0.091
4.306,-0.089
4.307,-0.088
4.308,-0.086
4.309,-0.081
4.310,-0.078
4.311,-0.075
4.312,-0.075
4.313,-0.072
4.314,-0.069
4.315,-0.069
4.316,-0.068
4.317,-0.069
4.318,-0.073
4.319,-0.072
4.320,-0.069
4.321,-0.066
4.322,-0.066
4.323,-0.066
4.324,-0.064
4.325,-0.059
4.326,-0.056
4.327,-0.053
4.328,-0.044
4.329,-0.034
4.330,-0.023
4.331,-0.009
4.332,0.004
4.333,0.016
4.334,0.026
4.335,0.034
4.336,0.038
4.337,0.038
4.338,0.038
4.339,0.031
4.340,0.030
4.341,0.025
4.342,0.022
4.343,0.016
4.344,0.013
4.345,0.006
4.346,0.004
4.347,0.000
4.348,-0.006
4.349,-0.006
4.350,-0.006
4.351,0.000
4.352,-0.001
4.353,0.006
4.354,0.011
4.355,0.016
4.356,0.023
4.357,0.031
4.358,0.041
4.359,0.050
4.360,0.055
4.361,0.059
4.362,0.059
4.363,0.056
4.364,0.053
4.365,0.047
4.366,0.043
4.367,0.031
4.368,0.016
4.369,0.003
4.370,-0.007
4.371,-0.019
4.372,-0.024
4.373,-0.022
4.374,-0.027
4.375,-0.028
4.376,-0.025
4.377,-0.022
4.378,-0.022
4.379,-0.025
4.380,-0.028
4.381,-0.025
4.382,-0.031
4.383,-0.028
4.384,-0.028
4.385,-0.028
4.386,-0.032
4.387,-0.038
4.388,-0.045
4.389,-0.050
4.390,-0.050
4.391,-0.056
4.392,-0.058
4.393,-0.063
4.394,-0.063
4.395,-0.063
4.396,-0.066
4.397,-0.069
4.398,-0.075
4.399,-0.081
4.400,-0.086
4.401,-0.088
4.402,-0.089
4.403,-0.088
4.404,-0.089
4.405,-0.088
4.406,-0.091
4.407,-0.091
4.408,-0.097
4.409,-0.100
4.410,-0.103
4.411,-0.103
4.412,-0.104
4.413,-0.109
4.414,-0.109
4.415,-0.113
4.416,-0.109
4.417,-0.109
4.418,-0.113
4.419,-0.113
4.420,-0.109
4.421,-0.109
4.422,-0.113
4.423,-0.113
4.424,-0.113
4.425,-0.113
4.426,-0.109
4.427,-0.113
4.428,-0.114
4.429,-0.116
4.430,-0.117
4.431,-0.119
4.432,-0.118
4.433,-0.119
4.434,-0.114
4.435,-0.113
4.436,-0.109
4.437,-0.109
4.438,-0.106
4.439,-0.109
4.440,-0.109
4.441,-0.109
4.442,-0.109
4.443,-0.109
4.444,-0.113
4.445,-0.113
4.446,-0.111
4.447,-0.109
4.448,-0.111
4.449,-0.109
4.450,-0.109
4.451,-0.109
4.452,-0.113
4.453,-0.116
4.454,-0.116
4.455,-0.116
4.456,-0.111
4.457,-0.116
4.458,-0.116
4.459,-0.119
4.460,-0.121
4.461,-0.125
4.462,-0.131
4.463,-0.138
4.464,-0.148
4.465,-0.153
4.466,-0.158
4.467,-0.159
4.468,-0.158
4.469,-0.156
4.470,-0.150
4.471,-0.147
4.472,-0.144
4.473,-0.141
4.474,-0.136
4.475,-0.131
4.476,-0.129
4.477,-0.122
4.478,-0.108
4.479,-0.091
4.480,-0.070
4.481,-0.053
4.482,-0.028
4.483,0.009
4.484,0.047
4.485,0.100
4.486,0.163
4.487,0.228
4.488,0.294
4.489,0.366
4.490,0.430
4.491,0.487
4.492,0.541
4.493,0.594
4.494,0.651
4.495,0.722
4.496,0.784
4.497,0.847
4.498,0.903
4.499,0.950
4.500,0.994
4.501,1.025
4.502,1.049
4.503,1.056
4.504,1.050
4.505,1.028
4.506,0.989
4.507,0.919
4.508,0.843
4.509,0.734
4.510,0.634
4.511,0.522
4.512,0.408
4.513,0.325
4.514,0.239
4.515,0.178
4.516,0.122
4.517,0.066
4.518,0.016
4.519,-0.025
4.520,-0.068
4.521,-0.097
4.522,-0.122
4.523,-0.138
4.524,-0.146
4.525,-0.141
4.526,-0.125
4.527,-0.094
4.528,-0.073
4.529,-0.063
4.530,-0.047
4.531,-0.041
4.532,-0.034
4.533,-0.034
4.534,-0.036
4.535,-0.038
4.536,-0.042
4.537,-0.044
4.538,-0.041
4.539,-0.038
4.540,-0.041
4.541,-0.041
4.542,-0.042
4.543,-0.041
4.544,-0.041
4.545,-0.041
4.546,-0.044
4.547,-0.047
4.548,-0.049
4.549,-0.050
4.550,-0.049
4.551,-0.050
4.552,-0.049
4.553,-0.050
4.554,-0.050
4.555,-0.050
4.556,-0.053
4.557,-0.059
4.558,-0.058
4.559,-0.056
4.560,-0.057
4.561,-0.059
4.562,-0.059
4.563,-0.059
4.564,-0.059
4.565,-0.059
4.566,-0.061
4.567,-0.063
4.568,-0.064
4.569,-0.066
4.570,-0.066
4.571,-0.066
4.572,-0.066
4.573,-0.066
4.574,-0.066
4.575,-0.059
4.576,-0.058
4.577,-0.056
4.578,-0.057
4.579,-0.059
4.580,-0.059
4.581,-0.059
4.582,-0.058
4.583,-0.056
4.584,-0.052
4.585,-0.050
4.586,-0.050
4.587,-0.050
4.588,-0.054
4.589,-0.053
4.590,-0.054
4.591,-0.053
4.592,-0.050
4.593,-0.050
4.594,-0.048
4.595,-0.047
4.596,-0.047
4.597,-0.047
4.598,-0.048
4.599,-0.050
4.600,-0.050
4.601,-0.050
4.602,-0.053
4.603,-0.050
4.604,-0.051
4.605,-0.050
4.606,-0.047
4.607,-0.047
4.608,-0.044
4.609,-0.047
4.610,-0.044
4.611,-0.044
4.612,-0.039
4.613,-0.041
4.614,-0.039
4.615,-0.041
4.616,-0.039
4.617,-0.041
4.618,-0.043
4.619,-0.041
4.620,-0.038
4.621,-0.038
4.622,-0.039
4.623,-0.041
4.624,-0.041
4.625,-0.041
4.626,-0.041
4.627,-0.041
4.628,-0.041
4.629,-0.041
4.630,-0.041
4.631,-0.041
4.632,-0.041
4.633,-0.038
4.634,-0.038
4.635,-0.038
4.636,-0.039
4.637,-0.038
4.638,-0.041
4.639,-0.041
4.640,-0.039
4.641,-0.034
4.642,-0.034
4.643,-0.034
4.644,-0.036
4.645,-0.034
4.646,-0.033
4.647,-0.031
4.648,-0.033
4.649,-0.031
4.650,-0.032
4.651,-0.031
4.652,-0.032
4.653,-0.034
4.654,-0.034
4.655,-0.034
4.656,-0.031
4.657,-0.028
4.658,-0.029
4.659,-0.028
4.660,-0.027
4.661,-0.028
4.662,-0.026
4.663,-0.028
4.664,-0.029
4.665,-0.031
4.666,-0.027
4.667,-0.028
4.668,-0.029
4.669,-0.031
4.670,-0.030
4.671,-0.025
4.672,-0.024
4.673,-0.022
4.674,-0.025
4.675,-0.028
4.676,-0.024
4.677,-0.022
4.678,-0.021
4.679,-0.019
4.680,-0.019
4.681,-0.019
4.682,-0.019
4.683,-0.019
4.684,-0.014
4.685,-0.009
4.686,-0.011
4.687,-0.013
4.688,-0.011
4.689,-0.013
4.690,-0.011
4.691,-0.009
4.692,-0.006
4.693,-0.006
4.694,-0.005
4.695,-0.003
4.696,-0.001
4.697,-0.003
4.698,-0.003
4.699,-0.003
4.700,-0.001
4.701,0.000
4.702,0.001
4.703,0.003
4.704,0.003
4.705,0.006
4.706,0.009
4.707,0.009
4.708,0.014
4.709,0.013
4.710,0.017
4.711,0.022
4.712,0.021
4.713,0.022
4.714,0.021
4.715,0.022
4.716,0.026
4.717,0.028
4.718,0.029
4.719,0.034
4.720,0.034
4.721,0.038
4.722,0.041
4.723,0.044
4.724,0.044
4.725,0.044
4.726,0.047
4.727,0.047
4.728,0.046
4.729,0.047
4.730,0.048
4.731,0.053
4.732,0.053
4.733,0.053
4.734,0.055
4.735,0.056
4.736,0.055
4.737,0.056
4.738,0.057
4.739,0.059
4.740,0.064
4.741,0.066
4.742,0.066
4.743,0.066
4.744,0.069
4.745,0.072
4.746,0.074
4.747,0.072
4.748,0.074
4.749,0.072
4.750,0.073
4.751,0.075
4.752,0.077
4.753,0.078
4.754,0.078
4.755,0.081
4.756,0.084
4.757,0.081
4.758,0.086
4.759,0.088
4.760,0.089
4.761,0.094
4.762,0.094
4.763,0.094
4.764,0.097
4.765,0.100
4.766,0.099
4.767,0.097
4.768,0.097
4.769,0.097
4.770,0.097
4.771,0.097
4.772,0.103
4.773,0.103
4.774,0.105
4.775,0.103
4.776,0.107
4.777,0.113
4.778,0.114
4.779,0.116
4.780,0.114
4.781,0.116
4.782,0.116
4.783,0.116
4.784,0.118
4.785,0.116
4.786,0.120
4.787,0.122
4.788,0.124
4.789,0.125
4.790,0.125
4.791,0.125
4.792,0.128
4.793,0.131
4.794,0.136
4.795,0.138
4.796,0.136
4.797,0.134
4.798,0.136
4.799,0.134
4.800,0.138
4.801,0.141
4.802,0.141
4.803,0.141
4.804,0.139
4.805,0.138
4.806,0.142
4.807,0.141
4.808,0.138
4.809,0.138
4.810,0.136
4.811,0.131
4.812,0.132
4.813,0.134
4.814,0.130
4.815,0.128
4.816,0.126
4.817,0.125
4.818,0.122
4.819,0.122
4.820,0.125
4.821,0.122
4.822,0.121
4.823,0.116
4.824,0.116
4.825,0.116
4.826,0.114
4.827,0.109
4.828,0.108
4.829,0.103
4.830,0.096
4.831,0.091
4.832,0.091
4.833,0.091
4.834,0.086
4.835,0.081
4.836,0.075
4.837,0.069
4.838,0.069
4.839,0.069
4.840,0.063
4.841,0.056
4.842,0.053
4.843,0.050
4.844,0.048
4.845,0.047
4.846,0.046
4.847,0.041
4.848,0.036
4.849,0.031
4.850,0.028
4.851,0.025
4.852,0.026
4.853,0.025
4.854,0.019
4.855,0.016
4.856,0.014
4.857,0.016
4.858,0.013
4.859,0.013
4.860,0.013
4.861,0.013
4.862,0.009
4.863,0.009
4.864,0.008
4.865,0.003
4.866,0.001
4.867,0.003
4.868,0.003
4.869,0.003
4.870,0.002
4.871,0.000
4.872,0.001
4.873,0.003
4.874,0.000
4.875,-0.003
4.876,-0.001
4.877,-0.003
4.878,-0.003
4.879,-0.003
4.880,-0.003
4.881,-0.003
4.882,-0.002
4.883,0.000
4.884,-0.003
4.885,-0.003
4.886,-0.001
4.887,0.000
4.888,-0.002
4.889,0.000
4.890,-0.004
4.891,-0.006
4.892,-0.003
4.893,0.003
4.894,0.003
4.895,0.003
4.896,0.003
4.897,0.003
4.898,0.003
4.899,0.003
4.900,0.002
4.901,-0.003
4.902,-0.006
4.903,-0.006
4.904,-0.002
4.905,0.000
4.906,-0.002
4.907,0.000
4.908,0.001
4.909,0.003
4.910,0.003
4.911,0.003
4.912,0.006
4.913,0.003
4.914,0.003
4.915,0.000
4.916,0.000
4.917,-0.006
4.918,-0.006
4.919,-0.003
4.920,-0.003
4.921,-0.003
4.922,-0.003
4.923,-0.003
4.924,-0.002
4.925,-0.003
4.926,-0.003
4.927,-0.003
4.928,-0.002
4.929,0.000
4.930,0.000
4.931,0.000
4.932,0.000
4.933,-0.003
4.934,-0.003
4.935,-0.003
4.936,-0.004
4.937,-0.006
4.938,-0.007
4.939,-0.009
4.940,-0.008
4.941,-0.009
4.942,-0.009
4.943,-0.009
4.944,-0.011
4.945,-0.009
4.946,-0.013
4.947,-0.013
4.948,-0.013
4.949,-0.013
4.950,-0.016
4.951,-0.019
4.952,-0.023
4.953,-0.025
4.954,-0.022
4.955,-0.019
4.956,-0.021
4.957,-0.019
4.958,-0.022
4.959,-0.019
4.960,-0.019
4.961,-0.022
4.962,-0.022
4.963,-0.022
4.964,-0.021
4.965,-0.022
4.966,-0.023
4.967,-0.025
4.968,-0.025
4.969,-0.028
4.970,-0.029
4.971,-0.031
4.972,-0.031
4.973,-0.031
4.974,-0.030
4.975,-0.031
4.976,-0.031
4.977,-0.031
4.978,-0.032
4.979,-0.034
4.980,-0.033
4.981,-0.034
4.982,-0.034
4.983,-0.034
4.984,-0.038
4.985,-0.041
4.986,-0.041
4.987,-0.044
4.988,-0.047
4.989,-0.047
4.990,-0.047
4.991,-0.047
4.992,-0.047
4.993,-0.047
4.994,-0.049
4.995,-0.047
4.996,-0.047
4.997,-0.047
4.998,-0.050
4.999,-0.050
5.000,-0.050
5.001,-0.050
5.002,-0.050
5.003,-0.050
5.004,-0.049
5.005,-0.050
5.006,-0.054
5.007,-0.053
5.008,-0.052
5.009,-0.050
5.010,-0.051
5.011,-0.053
5.012,-0.053
5.013,-0.056
5.014,-0.057
5.015,-0.063
5.016,-0.063
5.017,-0.066
5.018,-0.064
5.019,-0.063
5.020,-0.059
5.021,-0.063
5.022,-0.061
5.023,-0.059
5.024,-0.063
5.025,-0.063
5.026,-0.061
5.027,-0.059
5.028,-0.061
5.029,-0.059
5.030,-0.063
5.031,-0.066
5.032,-0.067
5.033,-0.069
5.034,-0.068
5.035,-0.069
5.036,-0.066
5.037,-0.069
5.038,-0.066
5.039,-0.069
5.040,-0.069
5.041,-0.066
5.042,-0.066
5.043,-0.066
5.044,-0.067
5.045,-0.066
5.046,-0.069
5.047,-0.069
5.048,-0.069
5.049,-0.069
5.050,-0.070
5.051,-0.072
5.052,-0.075
5.053,-0.075
5.054,-0.075
5.055,-0.075
5.056,-0.075
5.057,-0.075
5.058,-0.074
5.059,-0.072
5.060,-0.072
5.061,-0.075
5.062,-0.073
5.063,-0.075
5.064,-0.074
5.065,-0.075
5.066,-0.078
5.067,-0.081
5.068,-0.082
5.069,-0.081
5.070,-0.082
5.071,-0.084
5.072,-0.084
5.073,-0.084
5.074,-0.084
5.075,-0.084
5.076,-0.084
5.077,-0.081
5.078,-0.078
5.079,-0.078
5.080,-0.078
5.081,-0.078
5.082,-0.079
5.083,-0.078
5.084,-0.077
5.085,-0.075
5.086,-0.079
5.087,-0.081
5.088,-0.081
5.089,-0.081
5.090,-0.082
5.091,-0.088
5.092,-0.088
5.093,-0.084
5.094,-0.086
5.095,-0.084
5.096,-0.084
5.097,-0.084
5.098,-0.084
5.099,-0.084
5.100,-0.088
5.101,-0.084
5.102,-0.089
5.103,-0.088
5.104,-0.086
5.105,-0.088
5.106,-0.088
5.107,-0.088
5.108,-0.092
5.109,-0.097
5.110,-0.093
5.111,-0.091
5.112,-0.092
5.113,-0.091
5.114,-0.091
5.115,-0.094
5.116,-0.094
5.117,-0.094
5.118,-0.093
5.119,-0.091
5.120,-0.086
5.121,-0.088
5.122,-0.089
5.123,-0.088
5.124,-0.084
5.125,-0.081
5.126,-0.081
5.127,-0.078
5.128,-0.078
5.129,-0.078
5.130,-0.079
5.131,-0.078
5.132,-0.076
5.133,-0.078
5.134,-0.075
5.135,-0.075
5.136,-0.079
5.137,-0.078
5.138,-0.077
5.139,-0.075
5.140,-0.072
5.141,-0.069
5.142,-0.068
5.143,-0.063
5.144,-0.059
5.145,-0.056
5.146,-0.050
5.147,-0.044
5.148,-0.031
5.149,-0.016
5.150,-0.002
5.151,0.009
5.152,0.016
5.153,0.019
5.154,0.025
5.155,0.028
5.156,0.031
5.157,0.028
5.158,0.029
5.159,0.028
5.160,0.022
5.161,0.013
5.162,0.003
5.163,-0.009
5.164,-0.016
5.165,-0.025
5.166,-0.030
5.167,-0.028
5.168,-0.027
5.169,-0.019
5.170,-0.019
5.171,-0.009
5.172,-0.002
5.173,0.006
5.174,0.016
5.175,0.025
5.176,0.031
5.177,0.038
5.178,0.041
5.179,0.044
5.180,0.046
5.181,0.044
5.182,0.039
5.183,0.031
5.184,0.025
5.185,0.013
5.186,-0.001
5.187,-0.013
5.188,-0.021
5.189,-0.028
5.190,-0.033
5.191,-0.031
5.192,-0.036
5.193,-0.038
5.194,-0.038
5.195,-0.038
5.196,-0.039
5.197,-0.044
5.198,-0.047
5.199,-0.044
5.200,-0.048
5.201,-0.044
5.202,-0.041
5.203,-0.038
5.204,-0.041
5.205,-0.044
5.206,-0.053
5.207,-0.059
5.208,-0.056
5.209,-0.059
5.210,-0.061
5.211,-0.066
5.212,-0.069
5.213,-0.072
5.214,-0.076
5.215,-0.081
5.216,-0.084
5.217,-0.088
5.218,-0.089
5.219,-0.088
5.220,-0.089
5.221,-0.088
5.222,-0.093
5.223,-0.094
5.224,-0.101
5.225,-0.106
5.226,-0.109
5.227,-0.109
5.228,-0.113
5.229,-0.113
5.230,-0.114
5.231,-0.119
5.232,-0.118
5.233,-0.119
5.234,-0.117
5.235,-0.119
5.236,-0.123
5.237,-0.125
5.238,-0.122
5.239,-0.122
5.240,-0.125
5.241,-0.125
5.242,-0.125
5.243,-0.125
5.244,-0.122
5.245,-0.125
5.246,-0.125
5.247,-0.125
5.248,-0.126
5.249,-0.128
5.250,-0.127
5.251,-0.128
5.252,-0.122
5.253,-0.119
5.254,-0.116
5.255,-0.116
5.256,-0.114
5.257,-0.119
5.258,-0.120
5.259,-0.122
5.260,-0.122
5.261,-0.122
5.262,-0.122
5.263,-0.119
5.264,-0.118
5.265,-0.116
5.266,-0.119
5.267,-0.119
5.268,-0.119
5.269,-0.119
5.270,-0.119
5.271,-0.119
5.272,-0.116
5.273,-0.113
5.274,-0.106
5.275,-0.109
5.276,-0.113
5.277,-0.119
5.278,-0.125
5.279,-0.134
5.280,-0.142
5.281,-0.150
5.282,-0.156
5.283,-0.156
5.284,-0.159
5.285,-0.159
5.286,-0.159
5.287,-0.159
5.288,-0.154
5.289,-0.153
5.290,-0.151
5.291,-0.150
5.292,-0.150
5.293,-0.150
5.294,-0.146
5.295,-0.134
5.296,-0.121
5.297,-0.103
5.298,-0.080
5.299,-0.059
5.300,-0.038
5.301,-0.003
5.302,0.034
5.303,0.088
5.304,0.151
5.305,0.219
5.306,0.284
5.307,0.356
5.308,0.419
5.309,0.475
5.310,0.531
5.311,0.587
5.312,0.642
5.313,0.709
5.314,0.775
5.315,0.841
5.316,0.900
5.317,0.950
5.318,0.989
5.319,1.016
5.320,1.039
5.321,1.047
5.322,1.039
5.323,1.016
5.324,0.974
5.325,0.900
5.326,0.827
5.327,0.722
5.328,0.617
5.329,0.500
5.330,0.391
5.331,0.313
5.332,0.231
5.333,0.175
5.334,0.120
5.335,0.066
5.336,0.016
5.337,-0.025
5.338,-0.069
5.339,-0.100
5.340,-0.128
5.341,-0.147
5.342,-0.156
5.343,-0.153
5.344,-0.141
5.345,-0.113
5.346,-0.088
5.347,-0.072
5.348,-0.059
5.349,-0.056
5.350,-0.050
5.351,-0.050
5.352,-0.050
5.353,-0.050
5.354,-0.053
5.355,-0.053
5.356,-0.052
5.357,-0.050
5.358,-0.052
5.359,-0.050
5.360,-0.053
5.361,-0.053
5.362,-0.056
5.363,-0.059
5.364,-0.058
5.365,-0.056
5.366,-0.058
5.367,-0.059
5.368,-0.061
5.369,-0.066
5.370,-0.067
5.371,-0.072
5.372,-0.072
5.373,-0.072
5.374,-0.071
5.375,-0.072
5.376,-0.072
5.377,-0.072
5.378,-0.071
5.379,-0.069
5.380,-0.069
5.381,-0.069
5.382,-0.070
5.383,-0.072
5.384,-0.072
5.385,-0.072
5.386,-0.072
5.387,-0.072
5.388,-0.071
5.389,-0.069
5.390,-0.069
5.391,-0.069
5.392,-0.072
5.393,-0.069
5.394,-0.068
5.395,-0.066
5.396,-0.066
5.397,-0.066
5.398,-0.066
5.399,-0.066
5.400,-0.066
5.401,-0.066
5.402,-0.064
5.403,-0.066
5.404,-0.064
5.405,-0.063
5.406,-0.067
5.407,-0.066
5.408,-0.066
5.409,-0.063
5.410,-0.059
5.411,-0.059
5.412,-0.059
5.413,-0.059
5.414,-0.059
5.415,-0.059
5.416,-0.059
5.417,-0.059
5.418,-0.059
5.419,-0.059
5.420,-0.061
5.421,-0.056
5.422,-0.057
5.423,-0.056
5.424,-0.055
5.425,-0.056
5.426,-0.052
5.427,-0.053
5.428,-0.051
5.429,-0.053
5.430,-0.049
5.431,-0.050
5.432,-0.048
5.433,-0.050
5.434,-0.048
5.435,-0.050
5.436,-0.053
5.437,-0.053
5.438,-0.050
5.439,-0.050
5.440,-0.050
5.441,-0.050
5.442,-0.051
5.443,-0.053
5.444,-0.050
5.445,-0.047
5.446,-0.048
5.447,-0.050
5.448,-0.049
5.449,-0.047
5.450,-0.048
5.451,-0.047
5.452,-0.046
5.453,-0.044
5.454,-0.043
5.455,-0.038
5.456,-0.042
5.457,-0.044
5.458,-0.045
5.459,-0.044
5.460,-0.041
5.461,-0.038
5.462,-0.039
5.463,-0.038
5.464,-0.036
5.465,-0.034
5.466,-0.038
5.467,-0.038
5.468,-0.039
5.469,-0.038
5.470,-0.039
5.471,-0.041
5.472,-0.042
5.473,-0.044
5.474,-0.043
5.475,-0.041
5.476,-0.041
5.477,-0.038
5.478,-0.036
5.479,-0.038
5.480,-0.036
5.481,-0.038
5.482,-0.039
5.483,-0.041
5.484,-0.036
5.485,-0.038
5.486,-0.038
5.487,-0.038
5.488,-0.039
5.489,-0.038
5.490,-0.036
5.491,-0.034
5.492,-0.036
5.493,-0.038
5.494,-0.033
5.495,-0.031
5.496,-0.031
5.497,-0.031
5.498,-0.031
5.499,-0.031
5.500,-0.030
5.501,-0.028
5.502,-0.028
5.503,-0.028
5.504,-0.027
5.505,-0.025
5.506,-0.021
5.507,-0.019
5.508,-0.018
5.509,-0.016
5.510,-0.013
5.511,-0.013
5.512,-0.011
5.513,-0.009
5.514,-0.007
5.515,-0.009
5.516,-0.009
5.517,-0.009
5.518,-0.006
5.519,-0.003
5.520,-0.004
5.521,-0.006
5.522,-0.009
5.523,-0.009
5.524,-0.005
5.525,-0.003
5.526,0.003
5.527,0.003
5.528,0.003
5.529,0.003
5.530,0.004
5.531,0.009
5.532,0.008
5.533,0.009
5.534,0.011
5.535,0.009
5.536,0.008
5.537,0.009
5.538,0.011
5.539,0.016
5.540,0.019
5.541,0.022
5.542,0.022
5.543,0.022
5.544,0.025
5.545,0.025
5.546,0.024
5.547,0.025
5.548,0.024
5.549,0.025
5.550,0.026
5.551,0.028
5.552,0.030
5.553,0.031
5.554,0.034
5.555,0.041
5.556,0.039
5.557,0.038
5.558,0.039
5.559,0.038
5.560,0.045
5.561,0.053
5.562,0.052
5.563,0.050
5.564,0.054
5.565,0.056
5.566,0.061
5.567,0.063
5.568,0.061
5.569,0.059
5.570,0.059
5.571,0.059
5.572,0.058
5.573,0.059
5.574,0.066
5.575,0.066
5.576,0.069
5.577,0.069
5.578,0.068
5.579,0.069
5.580,0.069
5.581,0.069
5.582,0.069
5.583,0.069
5.584,0.073
5.585,0.078
5.586,0.077
5.587,0.075
5.588,0.075
5.589,0.075
5.590,0.080
5.591,0.078
5.592,0.080
5.593,0.078
5.594,0.081
5.595,0.084
5.596,0.088
5.597,0.091
5.598,0.094
5.599,0.100
5.600,0.099
5.601,0.097
5.602,0.100
5.603,0.100
5.604,0.102
5.605,0.100
5.606,0.104
5.607,0.109
5.608,0.109
5.609,0.109
5.610,0.108
5.611,0.106
5.612,0.113
5.613,0.116
5.614,0.116
5.615,0.116
5.616,0.118
5.617,0.116
5.618,0.114
5.619,0.113
5.620,0.116
5.621,0.119
5.622,0.119
5.623,0.119
5.624,0.123
5.625,0.122
5.626,0.119
5.627,0.119
5.628,0.118
5.629,0.113
5.630,0.113
5.631,0.113
5.632,0.108
5.633,0.106
5.634,0.106
5.635,0.106
5.636,0.104
5.637,0.106
5.638,0.109
5.639,0.106
5.640,0.105
5.641,0.100
5.642,0.096
5.643,0.091
5.644,0.091
5.645,0.088
5.646,0.084
5.647,0.078
5.648,0.075
5.649,0.075
5.650,0.072
5.651,0.069
5.652,0.067
5.653,0.066
5.654,0.063
5.655,0.059
5.656,0.055
5.657,0.050
5.658,0.048
5.659,0.047
5.660,0.045
5.661,0.044
5.662,0.041
5.663,0.038
5.664,0.036
5.665,0.031
5.666,0.028
5.667,0.025
5.668,0.021
5.669,0.016
5.670,0.016
5.671,0.013
5.672,0.008
5.673,0.006
5.674,0.004
5.675,0.006
5.676,0.003
5.677,0.003
5.678,0.004
5.679,0.006
5.680,0.000
5.681,-0.003
5.682,-0.002
5.683,-0.003
5.684,-0.006
5.685,-0.006
5.686,-0.009
5.687,-0.013
5.688,-0.011
5.689,-0.009
5.690,-0.009
5.691,-0.009
5.692,-0.009
5.693,-0.009
5.694,-0.003
5.695,0.000
5.696,-0.006
5.697,-0.013
5.698,-0.013
5.699,-0.013
5.700,-0.013
5.701,-0.013
5.702,-0.016
5.703,-0.016
5.704,-0.011
5.705,-0.006
5.706,-0.008
5.707,-0.006
5.708,-0.009
5.709,-0.009
5.710,-0.011
5.711,-0.009
5.712,-0.011
5.713,-0.013
5.714,-0.014
5.715,-0.016
5.716,-0.014
5.717,-0.013
5.718,-0.013
5.719,-0.016
5.720,-0.016
5.721,-0.013
5.722,-0.009
5.723,-0.009
5.724,-0.013
5.725,-0.013
5.726,-0.006
5.727,0.000
5.728,-0.001
5.729,-0.003
5.730,-0.001
5.731,-0.006
5.732,-0.007
5.733,-0.013
5.734,-0.009
5.735,-0.013
5.736,-0.011
5.737,-0.006
5.738,-0.005
5.739,-0.003
5.740,-0.004
5.741,-0.006
5.742,-0.006
5.743,-0.009
5.744,-0.009
5.745,-0.009
5.746,-0.009
5.747,-0.009
5.748,-0.009
5.749,-0.009
5.750,-0.009
5.751,-0.013
5.752,-0.014
5.753,-0.016
5.754,-0.016
5.755,-0.016
5.756,-0.016
5.757,-0.016
5.758,-0.014
5.759,-0.016
5.760,-0.017
5.761,-0.019
5.762,-0.022
5.763,-0.022
5.764,-0.026
5.765,-0.028
5.766,-0.029
5.767,-0.031
5.768,-0.030
5.769,-0.028
5.770,-0.031
5.771,-0.031
5.772,-0.030
5.773,-0.028
5.774,-0.032
5.775,-0.034
5.776,-0.039
5.777,-0.038
5.778,-0.036
5.779,-0.038
5.780,-0.041
5.781,-0.044
5.782,-0.043
5.783,-0.044
5.784,-0.045
5.785,-0.047
5.786,-0.044
5.787,-0.044
5.788,-0.044
5.789,-0.044
5.790,-0.047
5.791,-0.050
5.792,-0.050
5.793,-0.053
5.794,-0.053
5.795,-0.053
5.796,-0.053
5.797,-0.053
5.798,-0.053
5.799,-0.056
5.800,-0.057
5.801,-0.059
5.802,-0.061
5.803,-0.063
5.804,-0.058
5.805,-0.056
5.806,-0.059
5.807,-0.059
5.808,-0.061
5.809,-0.063
5.810,-0.061
5.811,-0.059
5.812,-0.063
5.813,-0.063
5.814,-0.061
5.815,-0.059
5.816,-0.063
5.817,-0.063
5.818,-0.059
5.819,-0.056
5.820,-0.056
5.821,-0.056
5.822,-0.055
5.823,-0.056
5.824,-0.061
5.825,-0.059
5.826,-0.059
5.827,-0.059
5.828,-0.059
5.829,-0.059
5.830,-0.061
5.831,-0.066
5.832,-0.066
5.833,-0.069
5.834,-0.067
5.835,-0.069
5.836,-0.069
5.837,-0.069
5.838,-0.066
5.839,-0.069
5.840,-0.068
5.841,-0.066
5.842,-0.069
5.843,-0.069
5.844,-0.070
5.845,-0.072
5.846,-0.075
5.847,-0.075
5.848,-0.075
5.849,-0.075
5.850,-0.075
5.851,-0.075
5.852,-0.074
5.853,-0.072
5.854,-0.068
5.855,-0.066
5.856,-0.064
5.857,-0.066
5.858,-0.067
5.859,-0.069
5.860,-0.069
5.861,-0.069
5.862,-0.072
5.863,-0.072
5.864,-0.069
5.865,-0.072
5.866,-0.072
5.867,-0.072
5.868,-0.072
5.869,-0.072
5.870,-0.072
5.871,-0.075
5.872,-0.072
5.873,-0.075
5.874,-0.072
5.875,-0.072
5.876,-0.075
5.877,-0.075
5.878,-0.075
5.879,-0.075
5.880,-0.074
5.881,-0.072
5.882,-0.075
5.883,-0.075
5.884,-0.072
5.885,-0.072
5.886,-0.074
5.887,-0.072
5.888,-0.076
5.889,-0.081
5.890,-0.082
5.891,-0.081
5.892,-0.083
5.893,-0.081
5.894,-0.077
5.895,-0.072
5.896,-0.070
5.897,-0.072
5.898,-0.070
5.899,-0.072
5.900,-0.072
5.901,-0.072
5.902,-0.072
5.903,-0.072
5.904,-0.073
5.905,-0.075
5.906,-0.077
5.907,-0.078
5.908,-0.078
5.909,-0.081
5.910,-0.078
5.911,-0.072
5.912,-0.069
5.913,-0.069
5.914,-0.063
5.915,-0.056
5.916,-0.052
5.917,-0.044
5.918,-0.038
5.919,-0.025
5.920,-0.013
5.921,-0.003
5.922,0.009
5.923,0.022
5.924,0.025
5.925,0.028
5.926,0.031
5.927,0.034
5.928,0.031
5.929,0.031
5.930,0.027
5.931,0.022
5.932,0.013
5.933,0.003
5.934,-0.009
5.935,-0.019
5.936,-0.024
5.937,-0.025
5.938,-0.022
5.939,-0.022
5.940,-0.019
5.941,-0.019
5.942,-0.008
5.943,0.000
5.944,0.007
5.945,0.016
5.946,0.021
5.947,0.025
5.948,0.028
5.949,0.031
5.950,0.036
5.951,0.038
5.952,0.038
5.953,0.038
5.954,0.031
5.955,0.025
5.956,0.016
5.957,0.003
5.958,-0.006
5.959,-0.016
5.960,-0.021
5.961,-0.025
5.962,-0.029
5.963,-0.038
5.964,-0.042
5.965,-0.044
5.966,-0.044
5.967,-0.044
5.968,-0.043
5.969,-0.041
5.970,-0.036
5.971,-0.038
5.972,-0.032
5.973,-0.034
5.974,-0.033
5.975,-0.034
5.976,-0.034
5.977,-0.038
5.978,-0.042
5.979,-0.044
5.980,-0.056
5.981,-0.066
5.982,-0.071
5.983,-0.072
5.984,-0.072
5.985,-0.072
5.986,-0.078
5.987,-0.084
5.988,-0.086
5.989,-0.088
5.990,-0.088
5.991,-0.091
5.992,-0.086
5.993,-0.088
5.994,-0.095
5.995,-0.103
5.996,-0.103
5.997,-0.106
5.998,-0.105
5.999,-0.106
6.000,-0.105
6.001,-0.103
6.002,-0.106
6.003,-0.106
6.004,-0.109
6.005,-0.106
6.006,-0.106
6.007,-0.109
6.008,-0.111
6.009,-0.109
6.010,-0.109
6.011,-0.113
6.012,-0.113
6.013,-0.113
6.014,-0.114
6.015,-0.113
6.016,-0.113
6.017,-0.109
6.018,-0.113
6.019,-0.116
6.020,-0.116
6.021,-0.116
6.022,-0.120
6.023,-0.119
6.024,-0.116
6.025,-0.109
6.026,-0.111
6.027,-0.109
6.028,-0.116
6.029,-0.119
6.030,-0.119
6.031,-0.119
6.032,-0.118
6.033,-0.116
6.034,-0.111
6.035,-0.109
6.036,-0.108
6.037,-0.106
6.038,-0.103
6.039,-0.103
6.040,-0.103
6.041,-0.103
6.042,-0.103
6.043,-0.103
6.044,-0.104
6.045,-0.103
6.046,-0.108
6.047,-0.106
6.048,-0.109
6.049,-0.113
6.050,-0.123
6.051,-0.134
6.052,-0.139
6.053,-0.147
6.054,-0.149
6.055,-0.150
6.056,-0.150
6.057,-0.150
6.058,-0.150
6.059,-0.144
6.060,-0.139
6.061,-0.134
6.062,-0.132
6.063,-0.134
6.064,-0.134
6.065,-0.131
6.066,-0.121
6.067,-0.106
6.068,-0.092
6.069,-0.072
6.070,-0.050
6.071,-0.025
6.072,0.016
6.073,0.056
6.074,0.113
6.075,0.175
6.076,0.239
6.077,0.309
6.078,0.380
6.079,0.444
6.080,0.499
6.081,0.547
6.082,0.603
6.083,0.659
6.084,0.718
6.085,0.775
6.086,0.836
6.087,0.894
6.088,0.946
6.089,0.988
6.090,1.014
6.091,1.038
6.092,1.047
6.093,1.041
6.094,1.019
6.095,0.988
6.096,0.913
6.097,0.828
6.098,0.721
6.099,0.606
6.100,0.497
6.101,0.387
6.102,0.308
6.103,0.228
6.104,0.176
6.105,0.131
6.106,0.076
6.107,0.025
6.108,-0.016
6.109,-0.056
6.110,-0.084
6.111,-0.109
6.112,-0.129
6.113,-0.144
6.114,-0.148
6.115,-0.144
6.116,-0.123
6.117,-0.103
6.118,-0.088
6.119,-0.072
6.120,-0.067
6.121,-0.059
6.122,-0.055
6.123,-0.053
6.124,-0.052
6.125,-0.053
6.126,-0.052
6.127,-0.050
6.128,-0.047
6.129,-0.047
6.130,-0.046
6.131,-0.044
6.132,-0.041
6.133,-0.041
6.134,-0.041
6.135,-0.041
6.136,-0.041
6.137,-0.044
6.138,-0.046
6.139,-0.044
6.140,-0.048
6.141,-0.050
6.142,-0.053
6.143,-0.053
6.144,-0.052
6.145,-0.050
6.146,-0.053
6.147,-0.053
6.148,-0.054
6.149,-0.056
6.150,-0.057
6.151,-0.059
6.152,-0.061
6.153,-0.063
6.154,-0.063
6.155,-0.063
6.156,-0.063
6.157,-0.063
6.158,-0.063
6.159,-0.063
6.160,-0.063
6.161,-0.063
6.162,-0.059
6.163,-0.059
6.164,-0.059
6.165,-0.063
6.166,-0.064
6.167,-0.066
6.168,-0.066
6.169,-0.066
6.170,-0.066
6.171,-0.066
6.172,-0.063
6.173,-0.056
6.174,-0.057
6.175,-0.059
6.176,-0.059
6.177,-0.063
6.178,-0.059
6.179,-0.059
6.180,-0.053
6.181,-0.050
6.182,-0.053
6.183,-0.050
6.184,-0.047
6.185,-0.047
6.186,-0.048
6.187,-0.050
6.188,-0.050
6.189,-0.050
6.190,-0.047
6.191,-0.047
6.192,-0.044
6.193,-0.044
6.194,-0.042
6.195,-0.044
6.196,-0.047
6.197,-0.044
6.198,-0.048
6.199,-0.047
6.200,-0.048
6.201,-0.047
6.202,-0.050
6.203,-0.047
6.204,-0.047
6.205,-0.044
6.206,-0.043
6.207,-0.044
6.208,-0.047
6.209,-0.047
6.210,-0.046
6.211,-0.044
6.212,-0.044
6.213,-0.044
6.214,-0.045
6.215,-0.047
6.216,-0.046
6.217,-0.044
6.218,-0.043
6.219,-0.041
6.220,-0.041
6.221,-0.041
6.222,-0.039
6.223,-0.041
6.224,-0.041
6.225,-0.041
6.226,-0.034
6.227,-0.034
6.228,-0.034
6.229,-0.034
6.230,-0.032
6.231,-0.034
6.232,-0.034
6.233,-0.034
6.234,-0.032
6.235,-0.034
6.236,-0.033
6.237,-0.034
6.238,-0.036
6.239,-0.038
6.240,-0.033
6.241,-0.031
6.242,-0.031
6.243,-0.031
6.244,-0.031
6.245,-0.031
6.246,-0.032
6.247,-0.034
6.248,-0.032
6.249,-0.034
6.250,-0.031
6.251,-0.022
6.252,-0.022
6.253,-0.022
6.254,-0.022
6.255,-0.019
6.256,-0.022
6.257,-0.022
6.258,-0.023
6.259,-0.025
6.260,-0.023
6.261,-0.025
6.262,-0.024
6.263,-0.022
6.264,-0.023
6.265,-0.022
6.266,-0.023
6.267,-0.025
6.268,-0.025
6.269,-0.025
6.270,-0.025
6.271,-0.025
6.272,-0.024
6.273,-0.019
6.274,-0.017
6.275,-0.019
6.276,-0.020
6.277,-0.019
6.278,-0.018
6.279,-0.016
6.280,-0.017
6.281,-0.016
6.282,-0.016
6.283,-0.016
6.284,-0.016
6.285,-0.013
6.286,-0.014
6.287,-0.016
6.288,-0.016
6.289,-0.013
6.290,-0.009
6.291,-0.009
6.292,-0.008
6.293,-0.006
6.294,-0.004
6.295,-0.003
6.296,-0.004
6.297,0.000
6.298,0.001
6.299,0.003
6.300,0.003
6.301,0.003
6.302,0.005
6.303,0.003
6.304,0.007
6.305,0.013
6.306,0.014
6.307,0.016
6.308,0.020
6.309,0.022
6.310,0.024
6.311,0.025
6.312,0.027
6.313,0.025
6.314,0.024
6.315,0.025
6.316,0.026
6.317,0.028
6.318,0.031
6.319,0.031
6.320,0.034
6.321,0.034
6.322,0.036
6.323,0.041
6.324,0.044
6.325,0.044
6.326,0.047
6.327,0.047
6.328,0.046
6.329,0.047
6.330,0.046
6.331,0.047
6.332,0.051
6.333,0.053
6.334,0.056
6.335,0.063
6.336,0.064
6.337,0.069
6.338,0.068
6.339,0.066
6.340,0.064
6.341,0.066
6.342,0.070
6.343,0.072
6.344,0.074
6.345,0.075
6.346,0.071
6.347,0.072
6.348,0.072
6.349,0.072
6.350,0.074
6.351,0.072
6.352,0.071
6.353,0.072
6.354,0.078
6.355,0.081
6.356,0.082
6.357,0.084
6.358,0.084
6.359,0.084
6.360,0.084
6.361,0.091
6.362,0.089
6.363,0.091
6.364,0.088
6.365,0.088
6.366,0.092
6.367,0.094
6.368,0.094
6.369,0.094
6.370,0.097
6.371,0.097
6.372,0.097
6.373,0.100
6.374,0.099
6.375,0.100
6.376,0.103
6.377,0.109
6.378,0.111
6.379,0.109
6.380,0.109
6.381,0.109
6.382,0.108
6.383,0.109
6.384,0.109
6.385,0.109
6.386,0.108
6.387,0.109
6.388,0.111
6.389,0.113
6.390,0.116
6.391,0.119
6.392,0.119
6.393,0.119
6.394,0.118
6.395,0.119
6.396,0.117
6.397,0.116
6.398,0.117
6.399,0.119
6.400,0.113
6.401,0.109
6.402,0.111
6.403,0.109
6.404,0.111
6.405,0.109
6.406,0.106
6.407,0.103
6.408,0.103
6.409,0.103
6.410,0.098
6.411,0.100
6.412,0.096
6.413,0.091
6.414,0.086
6.415,0.081
6.416,0.072
6.417,0.069
6.418,0.069
6.419,0.069
6.420,0.070
6.421,0.069
6.422,0.067
6.423,0.066
6.424,0.058
6.425,0.050
6.426,0.047
6.427,0.044
6.428,0.041
6.429,0.038
6.430,0.034
6.431,0.031
6.432,0.031
6.433,0.031
6.434,0.027
6.435,0.025
6.436,0.019
6.437,0.013
6.438,0.011
6.439,0.009
6.440,0.006
6.441,0.006
6.442,0.003
6.443,0.000
6.444,0.001
6.445,0.000
6.446,-0.001
6.447,-0.006
6.448,-0.007
6.449,-0.009
6.450,-0.008
6.451,-0.009
6.452,-0.008
6.453,-0.006
6.454,-0.009
6.455,-0.013
6.456,-0.013
6.457,-0.013
6.458,-0.013
6.459,-0.013
6.460,-0.011
6.461,-0.009
6.462,-0.008
6.463,-0.009
6.464,-0.014
6.465,-0.013
6.466,-0.013
6.467,-0.013
6.468,-0.013
6.469,-0.013
6.470,-0.013
6.471,-0.013
6.472,-0.011
6.473,-0.013
6.474,-0.013
6.475,-0.009
6.476,-0.007
6.477,-0.013
6.478,-0.013
6.479,-0.016
6.480,-0.016
6.481,-0.016
6.482,-0.014
6.483,-0.016
6.484,-0.016
6.485,-0.016
6.486,-0.016
6.487,-0.016
6.488,-0.014
6.489,-0.013
6.490,-0.016
6.491,-0.016
6.492,-0.014
6.493,-0.013
6.494,-0.013
6.495,-0.016
6.496,-0.017
6.497,-0.019
6.498,-0.020
6.499,-0.022
6.500,-0.022
6.501,-0.019
6.502,-0.021
6.503,-0.019
6.504,-0.019
6.505,-0.013
6.506,-0.016
6.507,-0.016
6.508,-0.014
6.509,-0.016
6.510,-0.014
6.511,-0.013
6.512,-0.017
6.513,-0.022
6.514,-0.025
6.515,-0.025
6.516,-0.026
6.517,-0.028
6.518,-0.028
6.519,-0.028
6.520,-0.028
6.521,-0.028
6.522,-0.031
6.523,-0.031
6.524,-0.031
6.525,-0.031
6.526,-0.030
6.527,-0.028
6.528,-0.028
6.529,-0.028
6.530,-0.032
6.531,-0.034
6.532,-0.034
6.533,-0.038
6.534,-0.036
6.535,-0.038
6.536,-0.036
6.537,-0.034
6.538,-0.034
6.539,-0.034
6.540,-0.033
6.541,-0.034
6.542,-0.036
6.543,-0.038
6.544,-0.036
6.545,-0.038
6.546,-0.039
6.547,-0.044
6.548,-0.042
6.549,-0.044
6.550,-0.047
6.551,-0.047
6.552,-0.046
6.553,-0.044
6.554,-0.047
6.555,-0.047
6.556,-0.048
6.557,-0.050
6.558,-0.053
6.559,-0.053
6.560,-0.053
6.561,-0.053
6.562,-0.052
6.563,-0.050
6.564,-0.054
6.565,-0.056
6.566,-0.057
6.567,-0.059
6.568,-0.058
6.569,-0.056
6.570,-0.061
6.571,-0.063
6.572,-0.063
6.573,-0.063
6.574,-0.063
6.575,-0.063
6.576,-0.064
6.577,-0.066
6.578,-0.066
6.579,-0.066
6.580,-0.066
6.581,-0.066
6.582,-0.064
6.583,-0.066
6.584,-0.067
6.585,-0.069
6.586,-0.072
6.587,-0.078
6.588,-0.077
6.589,-0.075
6.590,-0.075
6.591,-0.075
6.592,-0.074
6.593,-0.072
6.594,-0.074
6.595,-0.075
6.596,-0.072
6.597,-0.072
6.598,-0.072
6.599,-0.072
6.600,-0.072
6.601,-0.072
6.602,-0.074
6.603,-0.072
6.604,-0.075
6.605,-0.072
6.606,-0.072
6.607,-0.072
6.608,-0.073
6.609,-0.072
6.610,-0.074
6.611,-0.072
6.612,-0.071
6.613,-0.072
6.614,-0.075
6.615,-0.075
6.616,-0.076
6.617,-0.078
6.618,-0.081
6.619,-0.081
6.620,-0.081
6.621,-0.081
6.622,-0.080
6.623,-0.081
6.624,-0.084
6.625,-0.084
6.626,-0.086
6.627,-0.084
6.628,-0.086
6.629,-0.088
6.630,-0.088
6.631,-0.088
6.632,-0.091
6.633,-0.088
6.634,-0.092
6.635,-0.091
6.636,-0.089
6.637,-0.091
6.638,-0.091
6.639,-0.091
6.640,-0.091
6.641,-0.091
6.642,-0.089
6.643,-0.091
6.644,-0.092
6.645,-0.091
6.646,-0.091
6.647,-0.094
6.648,-0.095
6.649,-0.097
6.650,-0.097
6.651,-0.097
6.652,-0.094
6.653,-0.097
6.654,-0.097
6.655,-0.094
6.656,-0.091
6.657,-0.088
6.658,-0.089
6.659,-0.088
6.660,-0.086
6.661,-0.084
6.662,-0.084
6.663,-0.081
6.664,-0.078
6.665,-0.078
6.666,-0.078
6.667,-0.081
6.668,-0.086
6.669,-0.084
6.670,-0.086
6.671,-0.088
6.672,-0.086
6.673,-0.084
6.674,-0.088
6.675,-0.088
6.676,-0.086
6.677,-0.084
6.678,-0.079
6.679,-0.075
6.680,-0.066
6.681,-0.053
6.682,-0.039
6.683,-0.028
6.684,-0.016
6.685,-0.006
6.686,0.004
6.687,0.013
6.688,0.019
6.689,0.019
6.690,0.022
6.691,0.022
6.692,0.022
6.693,0.019
6.694,0.011
6.695,0.000
6.696,-0.009
6.697,-0.022
6.698,-0.032
6.699,-0.038
6.700,-0.044
6.701,-0.044
6.702,-0.047
6.703,-0.041
6.704,-0.036
6.705,-0.031
6.706,-0.025
6.707,-0.019
6.708,-0.011
6.709,-0.003
6.710,0.002
6.711,0.006
6.712,0.017
6.713,0.025
6.714,0.028
6.715,0.028
6.716,0.029
6.717,0.025
6.718,0.013
6.719,0.003
6.720,-0.006
6.721,-0.016
6.722,-0.026
6.723,-0.031
6.724,-0.039
6.725,-0.044
6.726,-0.045
6.727,-0.047
6.728,-0.043
6.729,-0.041
6.730,-0.045
6.731,-0.044
6.732,-0.046
6.733,-0.038
6.734,-0.038
6.735,-0.038
6.736,-0.039
6.737,-0.041
6.738,-0.047
6.739,-0.050
6.740,-0.051
6.741,-0.059
6.742,-0.061
6.743,-0.066
6.744,-0.066
6.745,-0.066
6.746,-0.072
6.747,-0.078
6.748,-0.081
6.749,-0.084
6.750,-0.091
6.751,-0.094
6.752,-0.097
6.753,-0.097
6.754,-0.103
6.755,-0.106
6.756,-0.111
6.757,-0.113
6.758,-0.114
6.759,-0.113
6.760,-0.114
6.761,-0.113
6.762,-0.111
6.763,-0.113
6.764,-0.114
6.765,-0.119
6.766,-0.117
6.767,-0.119
6.768,-0.122
6.769,-0.122
6.770,-0.118
6.771,-0.116
6.772,-0.119
6.773,-0.119
6.774,-0.119
6.775,-0.119
6.776,-0.116
6.777,-0.119
6.778,-0.120
6.779,-0.122
6.780,-0.121
6.781,-0.119
6.782,-0.118
6.783,-0.119
6.784,-0.119
6.785,-0.122
6.786,-0.119
6.787,-0.119
6.788,-0.116
6.789,-0.119
6.790,-0.120
6.791,-0.122
6.792,-0.122
6.793,-0.122
6.794,-0.119
6.795,-0.113
6.796,-0.113
6.797,-0.113
6.798,-0.113
6.799,-0.109
6.800,-0.113
6.801,-0.116
6.802,-0.117
6.803,-0.119
6.804,-0.119
6.805,-0.119
6.806,-0.116
6.807,-0.122
6.808,-0.122
6.809,-0.125
6.810,-0.127
6.811,-0.131
6.812,-0.136
6.813,-0.141
6.814,-0.153
6.815,-0.159
6.816,-0.163
6.817,-0.163
6.818,-0.164
6.819,-0.166
6.820,-0.164
6.821,-0.166
6.822,-0.161
6.823,-0.156
6.824,-0.158
6.825,-0.159
6.826,-0.153
6.827,-0.141
6.828,-0.128
6.829,-0.113
6.830,-0.092
6.831,-0.075
6.832,-0.057
6.833,-0.028
6.834,0.007
6.835,0.059
6.836,0.114
6.837,0.172
6.838,0.238
6.839,0.309
6.840,0.378
6.841,0.441
6.842,0.495
6.843,0.550
6.844,0.604
6.845,0.672
6.846,0.734
6.847,0.797
6.848,0.861
6.849,0.916
6.850,0.964
6.851,1.000
6.852,1.031
6.853,1.047
6.854,1.051
6.855,1.041
6.856,1.022
6.857,0.972
6.858,0.909
6.859,0.816
6.860,0.708
6.861,0.587
6.862,0.453
6.863,0.350
6.864,0.256
6.865,0.188
6.866,0.134
6.867,0.081
6.868,0.027
6.869,-0.019
6.870,-0.063
6.871,-0.094
6.872,-0.123
6.873,-0.144
6.874,-0.161
6.875,-0.166
6.876,-0.163
6.877,-0.144
6.878,-0.114
6.879,-0.094
6.880,-0.075
6.881,-0.066
6.882,-0.056
6.883,-0.053
6.884,-0.052
6.885,-0.050
6.886,-0.052
6.887,-0.050
6.888,-0.050
6.889,-0.050
6.890,-0.053
6.891,-0.053
6.892,-0.054
6.893,-0.053
6.894,-0.052
6.895,-0.050
6.896,-0.050
6.897,-0.050
6.898,-0.052
6.899,-0.053
6.900,-0.052
6.901,-0.053
6.902,-0.056
6.903,-0.063
6.904,-0.064
6.905,-0.066
6.906,-0.064
6.907,-0.066
6.908,-0.067
6.909,-0.069
6.910,-0.069
6.911,-0.069
6.912,-0.070
6.913,-0.072
6.914,-0.072
6.915,-0.072
6.916,-0.073
6.917,-0.075
6.918,-0.075
6.919,-0.075
6.920,-0.074
6.921,-0.072
6.922,-0.072
6.923,-0.072
6.924,-0.076
6.925,-0.075
6.926,-0.074
6.927,-0.072
6.928,-0.072
6.929,-0.072
6.930,-0.072
6.931,-0.072
6.932,-0.072
6.933,-0.072
6.934,-0.069
6.935,-0.069
6.936,-0.069
6.937,-0.069
6.938,-0.073
6.939,-0.072
6.940,-0.073
6.941,-0.072
6.942,-0.069
6.943,-0.069
6.944,-0.064
6.945,-0.059
6.946,-0.059
6.947,-0.059
6.948,-0.059
6.949,-0.059
6.950,-0.059
6.951,-0.059
6.952,-0.061
6.953,-0.056
6.954,-0.059
6.955,-0.059
6.956,-0.058
6.957,-0.059
6.958,-0.056
6.959,-0.059
6.960,-0.057
6.961,-0.059
6.962,-0.056
6.963,-0.059
6.964,-0.057
6.965,-0.059
6.966,-0.055
6.967,-0.053
6.968,-0.057
6.969,-0.059
6.970,-0.057
6.971,-0.059
6.972,-0.056
6.973,-0.053
6.974,-0.052
6.975,-0.050
6.976,-0.050
6.977,-0.050
6.978,-0.051
6.979,-0.053
6.980,-0.053
6.981,-0.053
6.982,-0.053
6.983,-0.050
6.984,-0.050
6.985,-0.050
6.986,-0.051
6.987,-0.050
6.988,-0.053
6.989,-0.053
6.990,-0.054
6.991,-0.053
6.992,-0.052
6.993,-0.050
6.994,-0.050
6.995,-0.047
6.996,-0.046
6.997,-0.044
6.998,-0.047
6.999,-0.047
7.000,-0.050
7.001,-0.050
7.002,-0.050
7.003,-0.050
7.004,-0.049
7.005,-0.047
7.006,-0.047
7.007,-0.047
7.008,-0.048
7.009,-0.047
7.010,-0.044
7.011,-0.044
7.012,-0.039
7.013,-0.038
7.014,-0.038
7.015,-0.038
7.016,-0.034
7.017,-0.038
7.018,-0.039
7.019,-0.041
7.020,-0.044
7.021,-0.044
7.022,-0.044
7.023,-0.044
7.024,-0.044
7.025,-0.044
7.026,-0.041
7.027,-0.041
7.028,-0.041
7.029,-0.041
7.030,-0.038
7.031,-0.034
7.032,-0.034
7.033,-0.034
7.034,-0.032
7.035,-0.031
7.036,-0.031
7.037,-0.031
7.038,-0.028
7.039,-0.028
7.040,-0.028
7.041,-0.028
7.042,-0.026
7.043,-0.028
7.044,-0.027
7.045,-0.025
7.046,-0.023
7.047,-0.025
7.048,-0.024
7.049,-0.022
7.050,-0.022
7.051,-0.022
7.052,-0.022
7.053,-0.022
7.054,-0.018
7.055,-0.009
7.056,-0.006
7.057,-0.006
7.058,-0.001
7.059,-0.003
7.060,-0.003
7.061,-0.003
7.062,-0.004
7.063,-0.003
7.064,-0.003
7.065,0.000
7.066,0.003
7.067,0.003
7.068,0.003
7.069,0.006
7.070,0.006
7.071,0.009
7.072,0.016
7.073,0.022
7.074,0.021
7.075,0.019
7.076,0.023
7.077,0.025
7.078,0.024
7.079,0.025
7.080,0.024
7.081,0.025
7.082,0.025
7.083,0.025
7.084,0.028
7.085,0.031
7.086,0.034
7.087,0.041
7.088,0.041
7.089,0.041
7.090,0.043
7.091,0.041
7.092,0.045
7.093,0.050
7.094,0.051
7.095,0.053
7.096,0.055
7.097,0.053
7.098,0.055
7.099,0.053
7.100,0.053
7.101,0.053
7.102,0.055
7.103,0.056
7.104,0.056
7.105,0.059
7.106,0.064
7.107,0.063
7.108,0.064
7.109,0.063
7.110,0.063
7.111,0.066
7.112,0.066
7.113,0.066
7.114,0.072
7.115,0.078
7.116,0.077
7.117,0.075
7.118,0.074
7.119,0.072
7.120,0.071
7.121,0.069
7.122,0.078
7.123,0.081
7.124,0.084
7.125,0.084
7.126,0.086
7.127,0.088
7.128,0.089
7.129,0.091
7.130,0.091
7.131,0.094
7.132,0.094
7.133,0.094
7.134,0.096
7.135,0.094
7.136,0.096
7.137,0.094
7.138,0.096
7.139,0.097
7.140,0.098
7.141,0.100
7.142,0.100
7.143,0.100
7.144,0.103
7.145,0.103
7.146,0.103
7.147,0.103
7.148,0.105
7.149,0.103
7.150,0.106
7.151,0.109
7.152,0.109
7.153,0.109
7.154,0.109
7.155,0.109
7.156,0.114
7.157,0.113
7.158,0.108
7.159,0.106
7.160,0.106
7.161,0.103
7.162,0.103
7.163,0.103
7.164,0.099
7.165,0.097
7.166,0.094
7.167,0.091
7.168,0.088
7.169,0.088
7.170,0.089
7.171,0.084
7.172,0.086
7.173,0.084
7.174,0.081
7.175,0.078
7.176,0.076
7.177,0.072
7.178,0.073
7.179,0.072
7.180,0.068
7.181,0.066
7.182,0.059
7.183,0.053
7.184,0.051
7.185,0.050
7.186,0.048
7.187,0.047
7.188,0.044
7.189,0.041
7.190,0.036
7.191,0.031
7.192,0.028
7.193,0.025
7.194,0.023
7.195,0.022
7.196,0.021
7.197,0.016
7.198,0.014
7.199,0.013
7.200,0.011
7.201,0.009
7.202,0.009
7.203,0.006
7.204,0.003
7.205,0.003
7.206,0.001
7.207,0.003
7.208,0.000
7.209,0.000
7.210,0.001
7.211,0.003
7.212,0.000
7.213,0.000
7.214,-0.001
7.215,-0.006
7.216,-0.008
7.217,-0.006
7.218,-0.007
7.219,-0.009
7.220,-0.011
7.221,-0.013
7.222,-0.013
7.223,-0.013
7.224,-0.017
7.225,-0.022
7.226,-0.020
7.227,-0.022
7.228,-0.021
7.229,-0.019
7.230,-0.019
7.231,-0.019
7.232,-0.018
7.233,-0.016
7.234,-0.019
7.235,-0.019
7.236,-0.016
7.237,-0.013
7.238,-0.016
7.239,-0.016
7.240,-0.018
7.241,-0.016
7.242,-0.016
7.243,-0.013
7.244,-0.013
7.245,-0.013
7.246,-0.013
7.247,-0.013
7.248,-0.013
7.249,-0.013
7.250,-0.013
7.251,-0.016
7.252,-0.019
7.253,-0.019
7.254,-0.014
7.255,-0.013
7.256,-0.014
7.257,-0.013
7.258,-0.014
7.259,-0.016
7.260,-0.016
7.261,-0.016
7.262,-0.011
7.263,-0.013
7.264,-0.014
7.265,-0.019
7.266,-0.016
7.267,-0.019
7.268,-0.022
7.269,-0.022
7.270,-0.023
7.271,-0.025
7.272,-0.021
7.273,-0.016
7.274,-0.014
7.275,-0.016
7.276,-0.017
7.277,-0.019
7.278,-0.019
7.279,-0.019
7.280,-0.022
7.281,-0.025
7.282,-0.024
7.283,-0.025
7.284,-0.024
7.285,-0.022
7.286,-0.022
7.287,-0.022
7.288,-0.022
7.289,-0.022
7.290,-0.021
7.291,-0.022
7.292,-0.022
7.293,-0.022
7.294,-0.024
7.295,-0.022
7.296,-0.026
7.297,-0.028
7.298,-0.029
7.299,-0.031
7.300,-0.031
7.301,-0.031
7.302,-0.033
7.303,-0.031
7.304,-0.032
7.305,-0.034
7.306,-0.036
7.307,-0.034
7.308,-0.039
7.309,-0.038
7.310,-0.038
7.311,-0.041
7.312,-0.041
7.313,-0.041
7.314,-0.041
7.315,-0.044
7.316,-0.045
7.317,-0.047
7.318,-0.047
7.319,-0.050
7.320,-0.050
7.321,-0.050
7.322,-0.050
7.323,-0.050
7.324,-0.050
7.325,-0.053
7.326,-0.053
7.327,-0.053
7.328,-0.053
7.329,-0.053
7.330,-0.052
7.331,-0.053
7.332,-0.053
7.333,-0.053
7.334,-0.053
7.335,-0.053
7.336,-0.053
7.337,-0.056
7.338,-0.061
7.339,-0.063
7.340,-0.064
7.341,-0.066
7.342,-0.066
7.343,-0.066
7.344,-0.068
7.345,-0.066
7.346,-0.066
7.347,-0.066
7.348,-0.070
7.349,-0.072
7.350,-0.072
7.351,-0.072
7.352,-0.072
7.353,-0.072
7.354,-0.071
7.355,-0.072
7.356,-0.076
7.357,-0.075
7.358,-0.075
7.359,-0.075
7.360,-0.076
7.361,-0.078
7.362,-0.077
7.363,-0.078
7.364,-0.077
7.365,-0.078
7.366,-0.076
7.367,-0.078
7.368,-0.079
7.369,-0.081
7.370,-0.077
7.371,-0.078
7.372,-0.079
7.373,-0.081
7.374,-0.084
7.375,-0.084
7.376,-0.083
7.377,-0.081
7.378,-0.083
7.379,-0.081
7.380,-0.080
7.381,-0.078
7.382,-0.079
7.383,-0.081
7.384,-0.080
7.385,-0.081
7.386,-0.078
7.387,-0.081
7.388,-0.078
7.389,-0.081
7.390,-0.081
7.391,-0.078
7.392,-0.081
7.393,-0.084
7.394,-0.086
7.395,-0.084
7.396,-0.089
7.397,-0.091
7.398,-0.088
7.399,-0.088
7.400,-0.088
7.401,-0.091
7.402,-0.091
7.403,-0.091
7.404,-0.091
7.405,-0.091
7.406,-0.095
7.407,-0.097
7.408,-0.093
7.409,-0.094
7.410,-0.094
7.411,-0.094
7.412,-0.094
7.413,-0.094
7.414,-0.093
7.415,-0.094
7.416,-0.092
7.417,-0.097
7.418,-0.094
7.419,-0.094
7.420,-0.097
7.421,-0.097
7.422,-0.097
7.423,-0.097
7.424,-0.096
7.425,-0.094
7.426,-0.097
7.427,-0.097
7.428,-0.097
7.429,-0.100
7.430,-0.102
7.431,-0.100
7.432,-0.101
7.433,-0.103
7.434,-0.100
7.435,-0.094
7.436,-0.096
7.437,-0.094
7.438,-0.091
7.439,-0.088
7.440,-0.086
7.441,-0.088
7.442,-0.086
7.443,-0.088
7.444,-0.089
7.445,-0.091
7.446,-0.089
7.447,-0.088
7.448,-0.088
7.449,-0.088
7.450,-0.089
7.451,-0.091
7.452,-0.089
7.453,-0.091
7.454,-0.088
7.455,-0.081
7.456,-0.078
7.457,-0.078
7.458,-0.076
7.459,-0.075
7.460,-0.068
7.461,-0.056
7.462,-0.051
7.463,-0.041
7.464,-0.024
7.465,-0.009
7.466,0.001
7.467,0.013
7.468,0.014
7.469,0.016
7.470,0.016
7.471,0.016
7.472,0.011
7.473,0.009
7.474,0.006
7.475,0.003
7.476,-0.006
7.477,-0.016
7.478,-0.024
7.479,-0.028
7.480,-0.033
7.481,-0.034
7.482,-0.034
7.483,-0.038
7.484,-0.034
7.485,-0.034
7.486,-0.025
7.487,-0.019
7.488,-0.013
7.489,-0.006
7.490,0.001
7.491,0.009
7.492,0.014
7.493,0.019
7.494,0.022
7.495,0.022
7.496,0.022
7.497,0.022
7.498,0.016
7.499,0.009
7.500,0.000
7.501,-0.013
7.502,-0.019
7.503,-0.025
7.504,-0.030
7.505,-0.034
7.506,-0.039
7.507,-0.047
7.508,-0.050
7.509,-0.050
7.510,-0.050
7.511,-0.050
7.512,-0.052
7.513,-0.053
7.514,-0.050
7.515,-0.053
7.516,-0.048
7.517,-0.050
7.518,-0.049
7.519,-0.050
7.520,-0.054
7.521,-0.063
7.522,-0.066
7.523,-0.066
7.524,-0.072
7.525,-0.075
7.526,-0.081
7.527,-0.084
7.528,-0.086
7.529,-0.088
7.530,-0.094
7.531,-0.100
7.532,-0.103
7.533,-0.106
7.534,-0.105
7.535,-0.106
7.536,-0.107
7.537,-0.116
7.538,-0.119
7.539,-0.122
7.540,-0.122
7.541,-0.125
7.542,-0.125
7.543,-0.128
7.544,-0.127
7.545,-0.125
7.546,-0.127
7.547,-0.125
7.548,-0.129
7.549,-0.128
7.550,-0.125
7.551,-0.125
7.552,-0.128
7.553,-0.128
7.554,-0.127
7.555,-0.128
7.556,-0.129
7.557,-0.131
7.558,-0.131
7.559,-0.128
7.560,-0.128
7.561,-0.125
7.562,-0.125
7.563,-0.125
7.564,-0.124
7.565,-0.122
7.566,-0.124
7.567,-0.119
7.568,-0.120
7.569,-0.119
7.570,-0.120
7.571,-0.119
7.572,-0.122
7.573,-0.122
7.574,-0.122
7.575,-0.122
7.576,-0.121
7.577,-0.119
7.578,-0.116
7.579,-0.116
7.580,-0.117
7.581,-0.119
7.582,-0.117
7.583,-0.119
7.584,-0.119
7.585,-0.119
7.586,-0.119
7.587,-0.119
7.588,-0.116
7.589,-0.109
7.590,-0.119
7.591,-0.122
7.592,-0.126
7.593,-0.131
7.594,-0.138
7.595,-0.144
7.596,-0.153
7.597,-0.166
7.598,-0.168
7.599,-0.169
7.600,-0.166
7.601,-0.163
7.602,-0.163
7.603,-0.156
7.604,-0.153
7.605,-0.150
7.606,-0.146
7.607,-0.144
7.608,-0.141
7.609,-0.134
7.610,-0.121
7.611,-0.103
7.612,-0.084
7.613,-0.059
7.614,-0.038
7.615,-0.013
7.616,0.029
7.617,0.072
7.618,0.128
7.619,0.191
7.620,0.253
7.621,0.322
7.622,0.392
7.623,0.456
7.624,0.511
7.625,0.559
7.626,0.617
7.627,0.675
7.628,0.742
7.629,0.809
7.630,0.864
7.631,0.916
7.632,0.959
7.633,0.994
7.634,1.016
7.635,1.034
7.636,1.042
7.637,1.034
7.638,1.003
7.639,0.963
7.640,0.886
7.641,0.800
7.642,0.693
7.643,0.578
7.644,0.472
7.645,0.366
7.646,0.281
7.647,0.197
7.648,0.131
7.649,0.072
7.650,0.019
7.651,-0.031
7.652,-0.069
7.653,-0.106
7.654,-0.130
7.655,-0.150
7.656,-0.156
7.657,-0.156
7.658,-0.141
7.659,-0.116
7.660,-0.098
7.661,-0.081
7.662,-0.069
7.663,-0.056
7.664,-0.051
7.665,-0.044
7.666,-0.042
7.667,-0.044
7.668,-0.043
7.669,-0.044
7.670,-0.045
7.671,-0.047
7.672,-0.047
7.673,-0.050
7.674,-0.051
7.675,-0.053
7.676,-0.054
7.677,-0.059
7.678,-0.058
7.679,-0.056
7.680,-0.055
7.681,-0.056
7.682,-0.059
7.683,-0.059
7.684,-0.064
7.685,-0.066
7.686,-0.068
7.687,-0.066
7.688,-0.066
7.689,-0.066
7.690,-0.070
7.691,-0.072
7.692,-0.073
7.693,-0.075
7.694,-0.075
7.695,-0.075
7.696,-0.074
7.697,-0.072
7.698,-0.072
7.699,-0.072
7.700,-0.072
7.701,-0.072
7.702,-0.072
7.703,-0.072
7.704,-0.072
7.705,-0.072
7.706,-0.071
7.707,-0.072
7.708,-0.070
7.709,-0.072
7.710,-0.071
7.711,-0.069
7.712,-0.069
7.713,-0.069
7.714,-0.070
7.715,-0.072
7.716,-0.071
7.717,-0.066
7.718,-0.066
7.719,-0.066
7.720,-0.066
7.721,-0.069
7.722,-0.067
7.723,-0.069
7.724,-0.066
7.725,-0.066
7.726,-0.068
7.727,-0.063
7.728,-0.061
7.729,-0.063
7.730,-0.061
7.731,-0.059
7.732,-0.058
7.733,-0.056
7.734,-0.057
7.735,-0.063
7.736,-0.063
7.737,-0.066
7.738,-0.059
7.739,-0.056
7.740,-0.059
7.741,-0.056
7.742,-0.061
7.743,-0.059
7.744,-0.058
7.745,-0.053
7.746,-0.057
7.747,-0.056
7.748,-0.057
7.749,-0.056
7.750,-0.053
7.751,-0.053
7.752,-0.054
7.753,-0.053
7.754,-0.054
7.755,-0.056
7.756,-0.056
7.757,-0.056
7.758,-0.050
7.759,-0.044
7.760,-0.043
7.761,-0.041
7.762,-0.042
7.763,-0.044
7.764,-0.045
7.765,-0.047
7.766,-0.045
7.767,-0.047
7.768,-0.048
7.769,-0.050
7.770,-0.047
7.771,-0.050
7.772,-0.050
7.773,-0.050
7.774,-0.046
7.775,-0.044
7.776,-0.043
7.777,-0.041
7.778,-0.039
7.779,-0.041
7.780,-0.039
7.781,-0.041
7.782,-0.042
7.783,-0.044
7.784,-0.042
7.785,-0.044
7.786,-0.041
7.787,-0.038
7.788,-0.038
7.789,-0.038
7.790,-0.038
7.791,-0.038
7.792,-0.033
7.793,-0.031
7.794,-0.036
7.795,-0.034
7.796,-0.034
7.797,-0.034
7.798,-0.034
7.799,-0.031
7.800,-0.033
7.801,-0.031
7.802,-0.031
7.803,-0.031
7.804,-0.029
7.805,-0.031
7.806,-0.031
7.807,-0.031
7.808,-0.031
7.809,-0.028
7.810,-0.028
7.811,-0.028
7.812,-0.028
7.813,-0.028
7.814,-0.028
7.815,-0.028
7.816,-0.028
7.817,-0.025
7.818,-0.022
7.819,-0.022
7.820,-0.022
7.821,-0.019
7.822,-0.019
7.823,-0.019
7.824,-0.019
7.825,-0.016
7.826,-0.014
7.827,-0.013
7.828,-0.011
7.829,-0.006
7.830,-0.006
7.831,-0.006
7.832,-0.009
7.833,-0.009
7.834,-0.006
7.835,-0.006
7.836,-0.006
7.837,-0.006
7.838,0.000
7.839,0.006
7.840,0.003
7.841,0.006
7.842,0.006
7.843,0.006
7.844,0.006
7.845,0.006
7.846,0.009
7.847,0.009
7.848,0.013
7.849,0.016
7.850,0.017
7.851,0.019
7.852,0.021
7.853,0.019
7.854,0.021
7.855,0.022
7.856,0.026
7.857,0.028
7.858,0.028
7.859,0.031
7.860,0.031
7.861,0.031
7.862,0.036
7.863,0.038
7.864,0.041
7.865,0.041
7.866,0.039
7.867,0.041
7.868,0.043
7.869,0.041
7.870,0.045
7.871,0.047
7.872,0.047
7.873,0.050
7.874,0.053
7.875,0.059
7.876,0.063
7.877,0.063
7.878,0.061
7.879,0.063
7.880,0.061
7.881,0.063
7.882,0.064
7.883,0.066
7.884,0.064
7.885,0.066
7.886,0.070
7.887,0.072
7.888,0.074
7.889,0.075
7.890,0.072
7.891,0.075
7.892,0.075
7.893,0.075
7.894,0.078
7.895,0.078
7.896,0.078
7.897,0.081
7.898,0.083
7.899,0.081
7.900,0.082
7.901,0.084
7.902,0.084
7.903,0.084
7.904,0.088
7.905,0.097
7.906,0.096
7.907,0.097
7.908,0.096
7.909,0.097
7.910,0.103
7.911,0.106
7.912,0.106
7.913,0.106
7.914,0.108
7.915,0.106
7.916,0.105
7.917,0.106
7.918,0.111
7.919,0.119
7.920,0.118
7.921,0.119
7.922,0.125
7.923,0.128
7.924,0.129
7.925,0.131
7.926,0.130
7.927,0.131
7.928,0.130
7.929,0.128
7.930,0.127
7.931,0.128
7.932,0.129
7.933,0.131
7.934,0.131
7.935,0.131
7.936,0.131
7.937,0.131
7.938,0.132
7.939,0.138
7.940,0.138
7.941,0.138
7.942,0.138
7.943,0.138
7.944,0.131
7.945,0.128
7.946,0.127
7.947,0.122
7.948,0.123
7.949,0.122
7.950,0.118
7.951,0.113
7.952,0.113
7.953,0.113
7.954,0.107
7.955,0.109
7.956,0.106
7.957,0.103
7.958,0.100
7.959,0.097
7.960,0.091
7.961,0.091
7.962,0.088
7.963,0.084
7.964,0.084
7.965,0.081
7.966,0.079
7.967,0.078
7.968,0.074
7.969,0.069
7.970,0.067
7.971,0.066
7.972,0.063
7.973,0.059
7.974,0.056
7.975,0.053
7.976,0.050
7.977,0.047
7.978,0.043
7.979,0.041
7.980,0.039
7.981,0.038
7.982,0.038
7.983,0.038
7.984,0.034
7.985,0.034
7.986,0.030
7.987,0.025
7.988,0.026
7.989,0.025
7.990,0.025
7.991,0.022
7.992,0.019
7.993,0.016
7.994,0.017
7.995,0.016
7.996,0.014
7.997,0.013
7.998,0.009
7.999,0.006
8.000,0.005
8.001,0.003
8.002,0.003
8.003,0.003
8.004,0.004
8.005,0.006
8.006,0.007
8.007,0.006
8.008,0.002
8.009,0.003
8.010,0.004
8.011,0.006
8.012,0.006
8.013,0.006
8.014,0.006
8.015,0.006
8.016,0.006
8.017,0.003
8.018,0.002
8.019,0.003
8.020,0.006
8.021,0.003
8.022,0.004
8.023,0.003
8.024,0.003
8.025,0.003
8.026,0.005
8.027,0.003
8.028,0.003
8.029,0.003
8.030,0.003
8.031,0.003
8.032,0.003
8.033,0.003
8.034,0.000
8.035,0.000
8.036,0.002
8.037,0.003
8.038,0.004
8.039,0.003
8.040,0.003
8.041,0.003
8.042,0.003
8.043,0.003
8.044,0.002
8.045,0.003
8.046,0.001
8.047,0.003
8.048,0.000
8.049,0.003
8.050,0.000
8.051,0.000
8.052,0.002
8.053,0.000
8.054,0.001
8.055,0.003
8.056,0.003
8.057,0.003
8.058,0.000
8.059,0.000
8.060,0.000
8.061,0.000
8.062,-0.003
8.063,-0.006
8.064,-0.005
8.065,-0.003
8.066,-0.005
8.067,-0.003
8.068,-0.004
8.069,-0.006
8.070,-0.006
8.071,-0.006
8.072,-0.003
8.073,0.000
8.074,-0.004
8.075,-0.006
8.076,-0.006
8.077,-0.009
8.078,-0.008
8.079,-0.009
8.080,-0.011
8.081,-0.013
8.082,-0.013
8.083,-0.013
8.084,-0.011
8.085,-0.013
8.086,-0.013
8.087,-0.013
8.088,-0.011
8.089,-0.013
8.090,-0.011
8.091,-0.013
8.092,-0.011
8.093,-0.013
8.094,-0.016
8.095,-0.016
8.096,-0.014
8.097,-0.013
8.098,-0.017
8.099,-0.019
8.100,-0.018
8.101,-0.016
8.102,-0.019
8.103,-0.019
8.104,-0.019
8.105,-0.019
8.106,-0.018
8.107,-0.016
8.108,-0.020
8.109,-0.022
8.110,-0.023
8.111,-0.025
8.112,-0.026
8.113,-0.028
8.114,-0.031
8.115,-0.031
8.116,-0.031
8.117,-0.031
8.118,-0.030
8.119,-0.028
8.120,-0.030
8.121,-0.031
8.122,-0.031
8.123,-0.031
8.124,-0.036
8.125,-0.041
8.126,-0.039
8.127,-0.041
8.128,-0.039
8.129,-0.038
8.130,-0.038
8.131,-0.041
8.132,-0.042
8.133,-0.044
8.134,-0.045
8.135,-0.047
8.136,-0.047
8.137,-0.047
8.138,-0.049
8.139,-0.050
8.140,-0.048
8.141,-0.050
8.142,-0.050
8.143,-0.050
8.144,-0.047
8.145,-0.044
8.146,-0.047
8.147,-0.047
8.148,-0.049
8.149,-0.044
8.150,-0.045
8.151,-0.047
8.152,-0.048
8.153,-0.047
8.154,-0.050
8.155,-0.050
8.156,-0.049
8.157,-0.050
8.158,-0.051
8.159,-0.053
8.160,-0.052
8.161,-0.053
8.162,-0.054
8.163,-0.056
8.164,-0.056
8.165,-0.056
8.166,-0.055
8.167,-0.053
8.168,-0.057
8.169,-0.056
8.170,-0.059
8.171,-0.056
8.172,-0.059
8.173,-0.059
8.174,-0.056
8.175,-0.059
8.176,-0.063
8.177,-0.063
8.178,-0.059
8.179,-0.063
8.180,-0.064
8.181,-0.066
8.182,-0.066
8.183,-0.066
8.184,-0.066
8.185,-0.069
8.186,-0.068
8.187,-0.066
8.188,-0.066
8.189,-0.066
8.190,-0.066
8.191,-0.066
8.192,-0.066
8.193,-0.066
8.194,-0.070
8.195,-0.069
8.196,-0.068
8.197,-0.066
8.198,-0.068
8.199,-0.066
8.200,-0.066
8.201,-0.066
8.202,-0.064
8.203,-0.066
8.204,-0.067
8.205,-0.069
8.206,-0.070
8.207,-0.069
8.208,-0.068
8.209,-0.066
8.210,-0.069
8.211,-0.069
8.212,-0.070
8.213,-0.072
8.214,-0.072
8.215,-0.075
8.216,-0.075
8.217,-0.072
8.218,-0.075
8.219,-0.075
8.220,-0.075
8.221,-0.075
8.222,-0.075
8.223,-0.075
8.224,-0.078
8.225,-0.075
8.226,-0.079
8.227,-0.078
8.228,-0.078
8.229,-0.081
8.230,-0.082
8.231,-0.084
8.232,-0.084
8.233,-0.084
8.234,-0.083
8.235,-0.084
8.236,-0.083
8.237,-0.078
8.238,-0.078
8.239,-0.081
8.240,-0.082
8.241,-0.084
8.242,-0.084
8.243,-0.084
8.244,-0.081
8.245,-0.084
8.246,-0.088
8.247,-0.088
8.248,-0.083
8.249,-0.078
8.250,-0.079
8.251,-0.078
8.252,-0.078
8.253,-0.078
8.254,-0.078
8.255,-0.075
8.256,-0.072
8.257,-0.072
8.258,-0.071
8.259,-0.072
8.260,-0.076
8.261,-0.075
8.262,-0.072
8.263,-0.069
8.264,-0.067
8.265,-0.066
8.266,-0.064
8.267,-0.059
8.268,-0.053
8.269,-0.047
8.270,-0.042
8.271,-0.038
8.272,-0.028
8.273,-0.016
8.274,-0.003
8.275,0.006
8.276,0.017
8.277,0.025
8.278,0.030
8.279,0.031
8.280,0.034
8.281,0.031
8.282,0.032
8.283,0.031
8.284,0.025
8.285,0.016
8.286,0.009
8.287,0.000
8.288,-0.003
8.289,-0.009
8.290,-0.016
8.291,-0.016
8.292,-0.019
8.293,-0.016
8.294,-0.014
8.295,-0.003
8.296,0.000
8.297,0.003
8.298,0.011
8.299,0.019
8.300,0.024
8.301,0.028
8.302,0.036
8.303,0.044
8.304,0.047
8.305,0.047
8.306,0.046
8.307,0.041
8.308,0.034
8.309,0.022
8.310,0.011
8.311,0.003
8.312,-0.005
8.313,-0.013
8.314,-0.021
8.315,-0.022
8.316,-0.031
8.317,-0.038
8.318,-0.039
8.319,-0.041
8.320,-0.038
8.321,-0.038
8.322,-0.041
8.323,-0.038
8.324,-0.041
8.325,-0.034
8.326,-0.031
8.327,-0.028
8.328,-0.028
8.329,-0.028
8.330,-0.041
8.331,-0.050
8.332,-0.047
8.333,-0.050
8.334,-0.054
8.335,-0.063
8.336,-0.064
8.337,-0.066
8.338,-0.066
8.339,-0.066
8.340,-0.068
8.341,-0.069
8.342,-0.072
8.343,-0.072
8.344,-0.076
8.345,-0.078
8.346,-0.084
8.347,-0.088
8.348,-0.089
8.349,-0.088
8.350,-0.092
8.351,-0.094
8.352,-0.098
8.353,-0.100
8.354,-0.099
8.355,-0.100
8.356,-0.099
8.357,-0.100
8.358,-0.098
8.359,-0.100
8.360,-0.102
8.361,-0.100
8.362,-0.097
8.363,-0.097
8.364,-0.100
8.365,-0.100
8.366,-0.100
8.367,-0.100
8.368,-0.097
8.369,-0.100
8.370,-0.103
8.371,-0.106
8.372,-0.106
8.373,-0.106
8.374,-0.106
8.375,-0.109
8.376,-0.103
8.377,-0.100
8.378,-0.097
8.379,-0.097
8.380,-0.093
8.381,-0.094
8.382,-0.095
8.383,-0.097
8.384,-0.098
8.385,-0.100
8.386,-0.103
8.387,-0.103
8.388,-0.103
8.389,-0.103
8.390,-0.102
8.391,-0.097
8.392,-0.096
8.393,-0.094
8.394,-0.094
8.395,-0.094
8.396,-0.095
8.397,-0.097
8.398,-0.093
8.399,-0.097
8.400,-0.098
8.401,-0.103
8.402,-0.103
8.403,-0.106
8.404,-0.113
8.405,-0.119
8.406,-0.131
8.407,-0.138
8.408,-0.141
8.409,-0.141
8.410,-0.138
8.411,-0.134
8.412,-0.131
8.413,-0.131
8.414,-0.129
8.415,-0.128
8.416,-0.127
8.417,-0.125
8.418,-0.119
8.419,-0.106
8.420,-0.093
8.421,-0.075
8.422,-0.053
8.423,-0.034
8.424,-0.013
8.425,0.022
8.426,0.059
8.427,0.113
8.428,0.173
8.429,0.238
8.430,0.302
8.431,0.372
8.432,0.434
8.433,0.491
8.434,0.548
8.435,0.606
8.436,0.658
8.437,0.722
8.438,0.786
8.439,0.850
8.440,0.909
8.441,0.959
8.442,1.002
8.443,1.031
8.444,1.055
8.445,1.063
8.446,1.058
8.447,1.038
8.448,1.009
8.449,0.950
8.450,0.878
8.451,0.775
8.452,0.672
8.453,0.556
8.454,0.441
8.455,0.356
8.456,0.267
8.457,0.203
8.458,0.144
8.459,0.084
8.460,0.032
8.461,-0.009
8.462,-0.053
8.463,-0.084
8.464,-0.111
8.465,-0.128
8.466,-0.133
8.467,-0.125
8.468,-0.111
8.469,-0.081
8.470,-0.061
8.471,-0.050
8.472,-0.038
8.473,-0.034
8.474,-0.028
8.475,-0.028
8.476,-0.028
8.477,-0.028
8.478,-0.028
8.479,-0.025
8.480,-0.024
8.481,-0.022
8.482,-0.025
8.483,-0.025
8.484,-0.028
8.485,-0.028
8.486,-0.028
8.487,-0.028
8.488,-0.028
8.489,-0.028
8.490,-0.030
8.491,-0.031
8.492,-0.031
8.493,-0.034
8.494,-0.033
8.495,-0.034
8.496,-0.038
8.497,-0.041
8.498,-0.039
8.499,-0.041
8.500,-0.041
8.501,-0.041
8.502,-0.042
8.503,-0.044
8.504,-0.044
8.505,-0.044
8.506,-0.044
8.507,-0.044
8.508,-0.044
8.509,-0.044
8.510,-0.043
8.511,-0.041
8.512,-0.041
8.513,-0.041
8.514,-0.039
8.515,-0.038
8.516,-0.042
8.517,-0.041
8.518,-0.042
8.519,-0.044
8.520,-0.045
8.521,-0.047
8.522,-0.047
8.523,-0.047
8.524,-0.047
8.525,-0.047
8.526,-0.044
8.527,-0.044
8.528,-0.044
8.529,-0.044
8.530,-0.048
8.531,-0.047
8.532,-0.048
8.533,-0.047
8.534,-0.046
8.535,-0.047
8.536,-0.047
8.537,-0.047
8.538,-0.043
8.539,-0.038
8.540,-0.039
8.541,-0.041
8.542,-0.041
8.543,-0.041
8.544,-0.045
8.545,-0.044
8.546,-0.045
8.547,-0.044
8.548,-0.043
8.549,-0.044
8.550,-0.041
8.551,-0.044
8.552,-0.042
8.553,-0.044
8.554,-0.039
8.555,-0.041
8.556,-0.038
8.557,-0.038
8.558,-0.034
8.559,-0.034
8.560,-0.039
8.561,-0.041
8.562,-0.039
8.563,-0.041
8.564,-0.041
8.565,-0.041
8.566,-0.038
8.567,-0.034
8.568,-0.034
8.569,-0.034
8.570,-0.034
8.571,-0.034
8.572,-0.034
8.573,-0.034
8.574,-0.036
8.575,-0.034
8.576,-0.034
8.577,-0.034
8.578,-0.033
8.579,-0.028
8.580,-0.031
8.581,-0.031
8.582,-0.034
8.583,-0.034
8.584,-0.034
8.585,-0.034
8.586,-0.034
8.587,-0.031
8.588,-0.031
8.589,-0.031
8.590,-0.033
8.591,-0.031
8.592,-0.031
8.593,-0.028
8.594,-0.027
8.595,-0.025
8.596,-0.025
8.597,-0.025
8.598,-0.026
8.599,-0.028
8.600,-0.029
8.601,-0.028
8.602,-0.028
8.603,-0.031
8.604,-0.029
8.605,-0.031
8.606,-0.032
8.607,-0.034
8.608,-0.030
8.609,-0.031
8.610,-0.030
8.611,-0.028
8.612,-0.029
8.613,-0.028
8.614,-0.025
8.615,-0.022
8.616,-0.021
8.617,-0.019
8.618,-0.019
8.619,-0.022
8.620,-0.023
8.621,-0.025
8.622,-0.026
8.623,-0.028
8.624,-0.028
8.625,-0.028
8.626,-0.028
8.627,-0.028
8.628,-0.027
8.629,-0.025
8.630,-0.021
8.631,-0.019
8.632,-0.018
8.633,-0.016
8.634,-0.009
8.635,-0.006
8.636,-0.007
8.637,-0.009
8.638,-0.009
8.639,-0.013
8.640,-0.013
8.641,-0.013
8.642,-0.009
8.643,-0.006
8.644,-0.005
8.645,-0.003
8.646,-0.004
8.647,-0.003
8.648,0.000
8.649,0.000
8.650,0.007
8.651,0.009
8.652,0.008
8.653,0.006
8.654,0.006
8.655,0.009
8.656,0.006
8.657,0.006
8.658,0.009
8.659,0.009
8.660,0.011
8.661,0.016
8.662,0.014
8.663,0.016
8.664,0.019
8.665,0.022
8.666,0.022
8.667,0.022
8.668,0.024
8.669,0.022
8.670,0.022
8.671,0.025
8.672,0.024
8.673,0.025
8.674,0.026
8.675,0.028
8.676,0.030
8.677,0.031
8.678,0.030
8.679,0.031
8.680,0.034
8.681,0.038
8.682,0.039
8.683,0.038
8.684,0.042
8.685,0.047
8.686,0.046
8.687,0.044
8.688,0.047
8.689,0.047
8.690,0.049
8.691,0.047
8.692,0.048
8.693,0.050
8.694,0.050
8.695,0.050
8.696,0.053
8.697,0.059
8.698,0.064
8.699,0.063
8.700,0.064
8.701,0.063
8.702,0.063
8.703,0.066
8.704,0.069
8.705,0.072
8.706,0.074
8.707,0.075
8.708,0.075
8.709,0.075
8.710,0.075
8.711,0.075
8.712,0.075
8.713,0.075
8.714,0.080
8.715,0.078
8.716,0.080
8.717,0.078
8.718,0.080
8.719,0.081
8.720,0.082
8.721,0.084
8.722,0.086
8.723,0.091
8.724,0.094
8.725,0.097
8.726,0.099
8.727,0.097
8.728,0.100
8.729,0.100
8.730,0.100
8.731,0.100
8.732,0.103
8.733,0.106
8.734,0.105
8.735,0.103
8.736,0.105
8.737,0.103
8.738,0.104
8.739,0.106
8.740,0.111
8.741,0.113
8.742,0.111
8.743,0.109
8.744,0.109
8.745,0.109
8.746,0.111
8.747,0.113
8.748,0.117
8.749,0.116
8.750,0.111
8.751,0.109
8.752,0.109
8.753,0.106
8.754,0.107
8.755,0.109
8.756,0.105
8.757,0.103
8.758,0.103
8.759,0.103
8.760,0.100
8.761,0.100
8.762,0.099
8.763,0.091
8.764,0.091
8.765,0.088
8.766,0.083
8.767,0.078
8.768,0.076
8.769,0.072
8.770,0.075
8.771,0.075
8.772,0.069
8.773,0.066
8.774,0.063
8.775,0.059
8.776,0.056
8.777,0.053
8.778,0.050
8.779,0.047
8.780,0.044
8.781,0.041
8.782,0.039
8.783,0.038
8.784,0.034
8.785,0.031
8.786,0.025
8.787,0.019
8.788,0.022
8.789,0.022
8.790,0.019
8.791,0.016
8.792,0.013
8.793,0.009
8.794,0.011
8.795,0.009
8.796,0.007
8.797,0.009
8.798,0.006
8.799,0.006
8.800,0.003
8.801,0.003
8.802,0.003
8.803,0.003
8.804,-0.003
8.805,-0.006
8.806,-0.005
8.807,-0.006
8.808,-0.009
8.809,-0.009
8.810,-0.009
8.811,-0.009
8.812,-0.011
8.813,-0.013
8.814,-0.013
8.815,-0.013
8.816,-0.017
8.817,-0.022
8.818,-0.019
8.819,-0.019
8.820,-0.019
8.821,-0.019
8.822,-0.019
8.823,-0.019
8.824,-0.018
8.825,-0.016
8.826,-0.018
8.827,-0.016
8.828,-0.016
8.829,-0.016
8.830,-0.019
8.831,-0.019
8.832,-0.023
8.833,-0.025
8.834,-0.026
8.835,-0.025
8.836,-0.024
8.837,-0.022
8.838,-0.021
8.839,-0.019
8.840,-0.020
8.841,-0.022
8.842,-0.022
8.843,-0.025
8.844,-0.024
8.845,-0.019
8.846,-0.016
8.847,-0.016
8.848,-0.019
8.849,-0.019
8.850,-0.019
8.851,-0.019
8.852,-0.018
8.853,-0.016
8.854,-0.013
8.855,-0.016
8.856,-0.014
8.857,-0.016
8.858,-0.013
8.859,-0.016
8.860,-0.017
8.861,-0.016
8.862,-0.014
8.863,-0.013
8.864,-0.014
8.865,-0.016
8.866,-0.014
8.867,-0.016
8.868,-0.014
8.869,-0.013
8.870,-0.014
8.871,-0.016
8.872,-0.016
8.873,-0.016
8.874,-0.014
8.875,-0.016
8.876,-0.020
8.877,-0.025
8.878,-0.025
8.879,-0.025
8.880,-0.026
8.881,-0.028
8.882,-0.027
8.883,-0.028
8.884,-0.028
8.885,-0.028
8.886,-0.030
8.887,-0.028
8.888,-0.031
8.889,-0.031
8.890,-0.031
8.891,-0.031
8.892,-0.030
8.893,-0.028
8.894,-0.031
8.895,-0.031
8.896,-0.032
8.897,-0.034
8.898,-0.036
8.899,-0.034
8.900,-0.038
8.901,-0.034
8.902,-0.038
8.903,-0.044
8.904,-0.044
8.905,-0.044
8.906,-0.043
8.907,-0.044
8.908,-0.044
8.909,-0.044
8.910,-0.043
8.911,-0.044
8.912,-0.045
8.913,-0.047
8.914,-0.047
8.915,-0.047
8.916,-0.047
8.917,-0.050
8.918,-0.051
8.919,-0.053
8.920,-0.052
8.921,-0.050
8.922,-0.050
8.923,-0.053
8.924,-0.053
8.925,-0.053
8.926,-0.053
8.927,-0.053
8.928,-0.052
8.929,-0.053
8.930,-0.056
8.931,-0.056
8.932,-0.057
8.933,-0.059
8.934,-0.059
8.935,-0.059
8.936,-0.063
8.937,-0.063
8.938,-0.063
8.939,-0.063
8.940,-0.066
8.941,-0.066
8.942,-0.067
8.943,-0.069
8.944,-0.069
8.945,-0.069
8.946,-0.068
8.947,-0.069
8.948,-0.073
8.949,-0.072
8.950,-0.072
8.951,-0.072
8.952,-0.073
8.953,-0.075
8.954,-0.074
8.955,-0.075
8.956,-0.076
8.957,-0.081
8.958,-0.079
8.959,-0.081
8.960,-0.081
8.961,-0.081
8.962,-0.078
8.963,-0.081
8.964,-0.080
8.965,-0.078
8.966,-0.080
8.967,-0.078
8.968,-0.079
8.969,-0.081
8.970,-0.084
8.971,-0.084
8.972,-0.086
8.973,-0.088
8.974,-0.088
8.975,-0.088
8.976,-0.086
8.977,-0.088
8.978,-0.083
8.979,-0.084
8.980,-0.081
8.981,-0.084
8.982,-0.083
8.983,-0.081
8.984,-0.079
8.985,-0.081
8.986,-0.081
8.987,-0.084
8.988,-0.086
8.989,-0.088
8.990,-0.088
8.991,-0.088
8.992,-0.091
8.993,-0.091
8.994,-0.088
8.995,-0.091
8.996,-0.094
8.997,-0.097
8.998,-0.097
8.999,-0.097
9.000,-0.096
9.001,-0.097
9.002,-0.094
9.003,-0.097
9.004,-0.093
9.005,-0.091
9.006,-0.094
9.007,-0.094
9.008,-0.094
9.009,-0.094
9.010,-0.095
9.011,-0.097
9.012,-0.100
9.013,-0.100
9.014,-0.097
9.015,-0.097
9.016,-0.097
9.017,-0.094
9.018,-0.095
9.019,-0.097
9.020,-0.098
9.021,-0.097
9.022,-0.101
9.023,-0.103
9.024,-0.104
9.025,-0.106
9.026,-0.103
9.027,-0.103
9.028,-0.096
9.029,-0.091
9.030,-0.091
9.031,-0.091
9.032,-0.089
9.033,-0.088
9.034,-0.088
9.035,-0.088
9.036,-0.089
9.037,-0.091
9.038,-0.088
9.039,-0.088
9.040,-0.091
9.041,-0.091
9.042,-0.088
9.043,-0.088
9.044,-0.083
9.045,-0.078
9.046,-0.081
9.047,-0.081
9.048,-0.078
9.049,-0.069
9.050,-0.053
9.051,-0.041
9.052,-0.031
9.053,-0.022
9.054,-0.009
9.055,0.003
9.056,0.011
9.057,0.019
9.058,0.016
9.059,0.016
9.060,0.016
9.061,0.016
9.062,0.013
9.063,0.009
9.064,-0.001
9.065,-0.009
9.066,-0.020
9.067,-0.028
9.068,-0.031
9.069,-0.038
9.070,-0.038
9.071,-0.041
9.072,-0.036
9.073,-0.034
9.074,-0.028
9.075,-0.022
9.076,-0.016
9.077,-0.009
9.078,-0.003
9.079,0.003
9.080,0.014
9.081,0.022
9.082,0.026
9.083,0.031
9.084,0.031
9.085,0.031
9.086,0.025
9.087,0.016
9.088,0.005
9.089,-0.006
9.090,-0.019
9.091,-0.031
9.092,-0.034
9.093,-0.041
9.094,-0.047
9.095,-0.050
9.096,-0.053
9.097,-0.056
9.098,-0.058
9.099,-0.059
9.100,-0.056
9.101,-0.059
9.102,-0.052
9.103,-0.050
9.104,-0.047
9.105,-0.047
9.106,-0.047
9.107,-0.050
9.108,-0.054
9.109,-0.056
9.110,-0.061
9.111,-0.063
9.112,-0.072
9.113,-0.078
9.114,-0.082
9.115,-0.088
9.116,-0.088
9.117,-0.088
9.118,-0.089
9.119,-0.091
9.120,-0.092
9.121,-0.097
9.122,-0.096
9.123,-0.100
9.124,-0.103
9.125,-0.106
9.126,-0.106
9.127,-0.109
9.128,-0.113
9.129,-0.119
9.130,-0.119
9.131,-0.119
9.132,-0.121
9.133,-0.119
9.134,-0.123
9.135,-0.122
9.136,-0.122
9.137,-0.125
9.138,-0.126
9.139,-0.125
9.140,-0.125
9.141,-0.128
9.142,-0.129
9.143,-0.131
9.144,-0.130
9.145,-0.125
9.146,-0.128
9.147,-0.128
9.148,-0.129
9.149,-0.131
9.150,-0.134
9.151,-0.138
9.152,-0.142
9.153,-0.141
9.154,-0.139
9.155,-0.134
9.156,-0.133
9.157,-0.128
9.158,-0.131
9.159,-0.131
9.160,-0.131
9.161,-0.131
9.162,-0.131
9.163,-0.131
9.164,-0.129
9.165,-0.131
9.166,-0.131
9.167,-0.131
9.168,-0.127
9.169,-0.125
9.170,-0.125
9.171,-0.125
9.172,-0.122
9.173,-0.119
9.174,-0.119
9.175,-0.116
9.176,-0.121
9.177,-0.119
9.178,-0.119
9.179,-0.119
9.180,-0.121
9.181,-0.122
9.182,-0.128
9.183,-0.138
9.184,-0.150
9.185,-0.163
9.186,-0.167
9.187,-0.172
9.188,-0.175
9.189,-0.172
9.190,-0.169
9.191,-0.166
9.192,-0.163
9.193,-0.163
9.194,-0.159
9.195,-0.153
9.196,-0.158
9.197,-0.159
9.198,-0.151
9.199,-0.138
9.200,-0.126
9.201,-0.113
9.202,-0.098
9.203,-0.084
9.204,-0.054
9.205,-0.019
9.206,0.031
9.207,0.088
9.208,0.166
9.209,0.238
9.210,0.304
9.211,0.366
9.212,0.417
9.213,0.469
9.214,0.527
9.215,0.584
9.216,0.654
9.217,0.722
9.218,0.795
9.219,0.859
9.220,0.911
9.221,0.959
9.222,1.008
9.223,1.041
9.224,1.059
9.225,1.069
9.226,1.059
9.227,1.041
9.228,0.981
9.229,0.916
9.230,0.803
9.231,0.691
9.232,0.574
9.233,0.456
9.234,0.364
9.235,0.278
9.236,0.211
9.237,0.147
9.238,0.089
9.239,0.031
9.240,-0.017
9.241,-0.063
9.242,-0.101
9.243,-0.134
9.244,-0.161
9.245,-0.178
9.246,-0.170
9.247,-0.163
9.248,-0.134
9.249,-0.106
9.250,-0.096
9.251,-0.081
9.252,-0.072
9.253,-0.066
9.254,-0.059
9.255,-0.056
9.256,-0.056
9.257,-0.056
9.258,-0.055
9.259,-0.056
9.260,-0.055
9.261,-0.053
9.262,-0.050
9.263,-0.050
9.264,-0.051
9.265,-0.053
9.266,-0.056
9.267,-0.063
9.268,-0.066
9.269,-0.066
9.270,-0.068
9.271,-0.066
9.272,-0.069
9.273,-0.069
9.274,-0.068
9.275,-0.066
9.276,-0.069
9.277,-0.069
9.278,-0.069
9.279,-0.069
9.280,-0.070
9.281,-0.072
9.282,-0.072
9.283,-0.072
9.284,-0.072
9.285,-0.072
9.286,-0.073
9.287,-0.075
9.288,-0.075
9.289,-0.075
9.290,-0.076
9.291,-0.078
9.292,-0.077
9.293,-0.078
9.294,-0.076
9.295,-0.078
9.296,-0.078
9.297,-0.078
9.298,-0.075
9.299,-0.072
9.300,-0.075
9.301,-0.078
9.302,-0.079
9.303,-0.078
9.304,-0.074
9.305,-0.069
9.306,-0.068
9.307,-0.069
9.308,-0.067
9.309,-0.069
9.310,-0.066
9.311,-0.066
9.312,-0.073
9.313,-0.075
9.314,-0.071
9.315,-0.069
9.316,-0.069
9.317,-0.069
9.318,-0.069
9.319,-0.069
9.320,-0.070
9.321,-0.075
9.322,-0.072
9.323,-0.072
9.324,-0.069
9.325,-0.069
9.326,-0.072
9.327,-0.069
9.328,-0.071
9.329,-0.066
9.330,-0.069
9.331,-0.069
9.332,-0.073
9.333,-0.072
9.334,-0.073
9.335,-0.072
9.336,-0.071
9.337,-0.072
9.338,-0.069
9.339,-0.063
9.340,-0.047
9.341,-0.031
9.342,-0.018
9.343,-0.003
9.344,-0.003
9.345,-0.003
9.346,-0.003
9.347,-0.003
9.348,-0.017
9.349,-0.031
9.350,-0.045
9.351,-0.059
9.352,-0.057
9.353,-0.059
9.354,-0.059
9.355,-0.059
9.356,-0.056
9.357,-0.059
9.358,-0.059
9.359,-0.059
9.360,-0.053
9.361,-0.050
9.362,-0.051
9.363,-0.053
9.364,-0.050
9.365,-0.050
9.366,-0.050
9.367,-0.053
9.368,-0.054
9.369,-0.056
9.370,-0.052
9.371,-0.050
9.372,-0.049
9.373,-0.047
9.374,-0.047
9.375,-0.047
9.376,-0.047
9.377,-0.047
9.378,-0.044
9.379,-0.044
9.380,-0.048
9.381,-0.047
9.382,-0.046
9.383,-0.044
9.384,-0.043
9.385,-0.038
9.386,-0.044
9.387,-0.047
9.388,-0.047
9.389,-0.047
9.390,-0.043
9.391,-0.041
9.392,-0.041
9.393,-0.041
9.394,-0.042
9.395,-0.041
9.396,-0.042
9.397,-0.044
9.398,-0.044
9.399,-0.044
9.400,-0.043
9.401,-0.041
9.402,-0.042
9.403,-0.041
9.404,-0.036
9.405,-0.034
9.406,-0.039
9.407,-0.041
9.408,-0.041
9.409,-0.041
9.410,-0.039
9.411,-0.034
9.412,-0.034
9.413,-0.034
9.414,-0.038
9.415,-0.038
9.416,-0.036
9.417,-0.034
9.418,-0.034
9.419,-0.031
9.420,-0.029
9.421,-0.031
9.422,-0.028
9.423,-0.025
9.424,-0.022
9.425,-0.019
9.426,-0.022
9.427,-0.019
9.428,-0.019
