'Elapsed time','II'
'seconds','mV'
0.000,-0.095
0.001,-0.091
0.002,-0.086
0.003,-0.081
0.004,-0.080
0.005,-0.078
0.006,-0.075
0.007,-0.072
0.008,-0.069
0.009,-0.066
0.010,-0.061
0.011,-0.056
0.012,-0.057
0.013,-0.059
0.014,-0.061
0.015,-0.062
0.016,-0.064
0.017,-0.066
0.018,-0.069
0.019,-0.072
0.020,-0.072
0.021,-0.072
0.022,-0.073
0.023,-0.075
0.024,-0.075
0.025,-0.075
0.026,-0.075
0.027,-0.075
0.028,-0.078
0.029,-0.081
0.030,-0.081
0.031,-0.081
0.032,-0.082
0.033,-0.084
0.034,-0.084
0.035,-0.084
0.036,-0.084
0.037,-0.084
0.038,-0.083
0.039,-0.081
0.040,-0.081
0.041,-0.081
0.042,-0.081
0.043,-0.081
0.044,-0.078
0.045,-0.075
0.046,-0.076
0.047,-0.078
0.048,-0.079
0.049,-0.081
0.050,-0.081
0.051,-0.081
0.052,-0.081
0.053,-0.081
0.054,-0.081
0.055,-0.081
0.056,-0.081
0.057,-0.081
0.058,-0.081
0.059,-0.081
0.060,-0.081
0.061,-0.081
0.062,-0.081
0.063,-0.081
0.064,-0.078
0.065,-0.075
0.066,-0.075
0.067,-0.075
0.068,-0.076
0.069,-0.078
0.070,-0.079
0.071,-0.081
0.072,-0.081
0.073,-0.081
0.074,-0.080
0.075,-0.078
0.076,-0.079
0.077,-0.081
0.078,-0.082
0.079,-0.084
0.080,-0.084
0.081,-0.084
0.082,-0.080
0.083,-0.075
0.084,-0.075
0.085,-0.075
0.086,-0.075
0.087,-0.075
0.088,-0.075
0.089,-0.075
0.090,-0.074
0.091,-0.072
0.092,-0.072
0.093,-0.072
0.094,-0.072
0.095,-0.072
0.096,-0.071
0.097,-0.069
0.098,-0.070
0.099,-0.072
0.100,-0.072
0.101,-0.072
0.102,-0.071
0.103,-0.069
0.104,-0.069
0.105,-0.069
0.106,-0.070
0.107,-0.072
0.108,-0.072
0.109,-0.072
0.110,-0.072
0.111,-0.072
0.112,-0.072
0.113,-0.072
0.114,-0.075
0.115,-0.078
0.116,-0.077
0.117,-0.075
0.118,-0.074
0.119,-0.072
0.120,-0.069
0.121,-0.066
0.122,-0.066
0.123,-0.066
0.124,-0.061
0.125,-0.056
0.126,-0.061
0.127,-0.066
0.128,-0.066
0.129,-0.066
0.130,-0.067
0.131,-0.069
0.132,-0.069
0.133,-0.069
0.134,-0.069
0.135,-0.069
0.136,-0.066
0.137,-0.062
0.138,-0.059
0.139,-0.056
0.140,-0.056
0.141,-0.056
0.142,-0.056
0.143,-0.056
0.144,-0.056
0.145,-0.056
0.146,-0.056
0.147,-0.056
0.148,-0.056
0.149,-0.056
0.150,-0.055
0.151,-0.053
0.152,-0.053
0.153,-0.053
0.154,-0.053
0.155,-0.053
0.156,-0.052
0.157,-0.050
0.158,-0.051
0.159,-0.053
0.160,-0.054
0.161,-0.056
0.162,-0.056
0.163,-0.056
0.164,-0.053
0.165,-0.050
0.166,-0.050
0.167,-0.050
0.168,-0.047
0.169,-0.044
0.170,-0.041
0.171,-0.037
0.172,-0.037
0.173,-0.037
0.174,-0.036
0.175,-0.034
0.176,-0.034
0.177,-0.034
0.178,-0.034
0.179,-0.034
0.180,-0.034
0.181,-0.034
0.182,-0.034
0.183,-0.034
0.184,-0.034
0.185,-0.034
0.186,-0.031
0.187,-0.028
0.188,-0.028
0.189,-0.028
0.190,-0.028
0.191,-0.028
0.192,-0.028
0.193,-0.028
0.194,-0.024
0.195,-0.019
0.196,-0.019
0.197,-0.019
0.198,-0.016
0.199,-0.012
0.200,-0.012
0.201,-0.012
0.202,-0.012
0.203,-0.012
0.204,-0.009
0.205,-0.006
0.206,-0.005
0.207,-0.003
0.208,-0.003
0.209,-0.003
0.210,-0.003
0.211,-0.003
0.212,0.000
0.213,0.003
0.214,0.006
0.215,0.009
0.216,0.009
0.217,0.009
0.218,0.009
0.219,0.009
0.220,0.009
0.221,0.009
0.222,0.009
0.223,0.009
0.224,0.013
0.225,0.016
0.226,0.017
0.227,0.019
0.228,0.018
0.229,0.016
0.230,0.019
0.231,0.022
0.232,0.022
0.233,0.022
0.234,0.023
0.235,0.025
0.236,0.025
0.237,0.025
0.238,0.025
0.239,0.025
0.240,0.028
0.241,0.031
0.242,0.031
0.243,0.031
0.244,0.031
0.245,0.031
0.246,0.031
0.247,0.031
0.248,0.031
0.249,0.031
0.250,0.036
0.251,0.041
0.252,0.041
0.253,0.041
0.254,0.042
0.255,0.044
0.256,0.044
0.257,0.044
0.258,0.047
0.259,0.050
0.260,0.051
0.261,0.053
0.262,0.053
0.263,0.053
0.264,0.056
0.265,0.059
0.266,0.059
0.267,0.059
0.268,0.061
0.269,0.063
0.270,0.061
0.271,0.059
0.272,0.063
0.273,0.066
0.274,0.066
0.275,0.066
0.276,0.064
0.277,0.063
0.278,0.067
0.279,0.072
0.280,0.075
0.281,0.078
0.282,0.078
0.283,0.078
0.284,0.078
0.285,0.078
0.286,0.077
0.287,0.075
0.288,0.075
0.289,0.075
0.290,0.075
0.291,0.075
0.292,0.071
0.293,0.066
0.294,0.064
0.295,0.063
0.296,0.063
0.297,0.063
0.298,0.063
0.299,0.063
0.300,0.059
0.301,0.056
0.302,0.055
0.303,0.053
0.304,0.052
0.305,0.050
0.306,0.049
0.307,0.047
0.308,0.046
0.309,0.044
0.310,0.041
0.311,0.038
0.312,0.038
0.313,0.038
0.314,0.036
0.315,0.034
0.316,0.031
0.317,0.028
0.318,0.027
0.319,0.025
0.320,0.024
0.321,0.022
0.322,0.018
0.323,0.013
0.324,0.011
0.325,0.009
0.326,0.006
0.327,0.003
0.328,-0.001
0.329,-0.006
0.330,-0.003
0.331,0.000
0.332,-0.001
0.333,-0.003
0.334,-0.003
0.335,-0.003
0.336,-0.004
0.337,-0.006
0.338,-0.009
0.339,-0.012
0.340,-0.014
0.341,-0.016
0.342,-0.020
0.343,-0.025
0.344,-0.023
0.345,-0.022
0.346,-0.019
0.347,-0.019
0.348,-0.023
0.349,-0.028
0.350,-0.028
0.351,-0.028
0.352,-0.031
0.353,-0.031
0.354,-0.028
0.355,-0.028
0.356,-0.028
0.357,-0.028
0.358,-0.027
0.359,-0.028
0.360,-0.032
0.361,-0.031
0.362,-0.024
0.363,-0.022
0.364,-0.022
0.365,-0.022
0.366,-0.021
0.367,-0.019
0.368,-0.022
0.369,-0.022
0.370,-0.022
0.371,-0.025
0.372,-0.024
0.373,-0.022
0.374,-0.022
0.375,-0.022
0.376,-0.019
0.377,-0.022
0.378,-0.023
0.379,-0.025
0.380,-0.025
0.381,-0.025
0.382,-0.026
0.383,-0.028
0.384,-0.030
0.385,-0.025
0.386,-0.025
0.387,-0.025
0.388,-0.025
0.389,-0.025
0.390,-0.025
0.391,-0.025
0.392,-0.025
0.393,-0.025
0.394,-0.024
0.395,-0.022
0.396,-0.021
0.397,-0.022
0.398,-0.019
0.399,-0.019
0.400,-0.019
0.401,-0.019
0.402,-0.019
0.403,-0.019
0.404,-0.017
0.405,-0.016
0.406,-0.020
0.407,-0.019
0.408,-0.019
0.409,-0.016
0.410,-0.016
0.411,-0.016
0.412,-0.019
0.413,-0.022
0.414,-0.021
0.415,-0.022
0.416,-0.022
0.417,-0.028
0.418,-0.029
0.419,-0.028
0.420,-0.028
0.421,-0.028
0.422,-0.024
0.423,-0.019
0.424,-0.017
0.425,-0.019
0.426,-0.019
0.427,-0.019
0.428,-0.023
0.429,-0.025
0.430,-0.025
0.431,-0.028
0.432,-0.029
0.433,-0.031
0.434,-0.028
0.435,-0.028
0.436,-0.030
0.437,-0.028
0.438,-0.028
0.439,-0.028
0.440,-0.027
0.441,-0.028
0.442,-0.028
0.443,-0.025
0.444,-0.024
0.445,-0.025
0.446,-0.025
0.447,-0.025
0.448,-0.025
0.449,-0.025
0.450,-0.028
0.451,-0.028
0.452,-0.029
0.453,-0.031
0.454,-0.031
0.455,-0.031
0.456,-0.030
0.457,-0.031
0.458,-0.030
0.459,-0.028
0.460,-0.031
0.461,-0.031
0.462,-0.031
0.463,-0.034
0.464,-0.034
0.465,-0.034
0.466,-0.034
0.467,-0.034
0.468,-0.033
0.469,-0.031
0.470,-0.034
0.471,-0.034
0.472,-0.036
0.473,-0.037
0.474,-0.036
0.475,-0.034
0.476,-0.037
0.477,-0.037
0.478,-0.036
0.479,-0.034
0.480,-0.037
0.481,-0.037
0.482,-0.042
0.483,-0.047
0.484,-0.051
0.485,-0.050
0.486,-0.049
0.487,-0.047
0.488,-0.044
0.489,-0.047
0.490,-0.050
0.491,-0.050
0.492,-0.049
0.493,-0.047
0.494,-0.045
0.495,-0.047
0.496,-0.050
0.497,-0.050
0.498,-0.050
0.499,-0.050
0.500,-0.050
0.501,-0.050
0.502,-0.049
0.503,-0.050
0.504,-0.050
0.505,-0.050
0.506,-0.053
0.507,-0.053
0.508,-0.056
0.509,-0.056
0.510,-0.053
0.511,-0.053
0.512,-0.050
0.513,-0.050
0.514,-0.051
0.515,-0.053
0.516,-0.053
0.517,-0.053
0.518,-0.053
0.519,-0.053
0.520,-0.053
0.521,-0.053
0.522,-0.053
0.523,-0.053
0.524,-0.050
0.525,-0.047
0.526,-0.044
0.527,-0.041
0.528,-0.045
0.529,-0.044
0.530,-0.044
0.531,-0.044
0.532,-0.044
0.533,-0.044
0.534,-0.047
0.535,-0.050
0.536,-0.050
0.537,-0.050
0.538,-0.050
0.539,-0.050
0.540,-0.050
0.541,-0.050
0.542,-0.054
0.543,-0.059
0.544,-0.058
0.545,-0.056
0.546,-0.055
0.547,-0.053
0.548,-0.050
0.549,-0.053
0.550,-0.053
0.551,-0.053
0.552,-0.056
0.553,-0.059
0.554,-0.058
0.555,-0.056
0.556,-0.056
0.557,-0.056
0.558,-0.059
0.559,-0.059
0.560,-0.062
0.561,-0.062
0.562,-0.059
0.563,-0.059
0.564,-0.059
0.565,-0.056
0.566,-0.059
0.567,-0.059
0.568,-0.058
0.569,-0.056
0.570,-0.056
0.571,-0.056
0.572,-0.056
0.573,-0.056
0.574,-0.061
0.575,-0.062
0.576,-0.062
0.577,-0.062
0.578,-0.062
0.579,-0.059
0.580,-0.058
0.581,-0.059
0.582,-0.061
0.583,-0.062
0.584,-0.059
0.585,-0.056
0.586,-0.056
0.587,-0.059
0.588,-0.059
0.589,-0.062
0.590,-0.059
0.591,-0.056
0.592,-0.061
0.593,-0.062
0.594,-0.061
0.595,-0.062
0.596,-0.058
0.597,-0.053
0.598,-0.057
0.599,-0.059
0.600,-0.062
0.601,-0.066
0.602,-0.066
0.603,-0.066
0.604,-0.066
0.605,-0.066
0.606,-0.066
0.607,-0.066
0.608,-0.067
0.609,-0.066
0.610,-0.066
0.611,-0.066
0.612,-0.067
0.613,-0.066
0.614,-0.066
0.615,-0.066
0.616,-0.062
0.617,-0.066
0.618,-0.062
0.619,-0.062
0.620,-0.061
0.621,-0.056
0.622,-0.057
0.623,-0.059
0.624,-0.061
0.625,-0.062
0.626,-0.061
0.627,-0.059
0.628,-0.062
0.629,-0.062
0.630,-0.062
0.631,-0.062
0.632,-0.061
0.633,-0.059
0.634,-0.062
0.635,-0.062
0.636,-0.064
0.637,-0.062
0.638,-0.062
0.639,-0.062
0.640,-0.064
0.641,-0.066
0.642,-0.067
0.643,-0.066
0.644,-0.066
0.645,-0.066
0.646,-0.066
0.647,-0.066
0.648,-0.062
0.649,-0.056
0.650,-0.059
0.651,-0.059
0.652,-0.058
0.653,-0.056
0.654,-0.056
0.655,-0.056
0.656,-0.056
0.657,-0.056
0.658,-0.056
0.659,-0.056
0.660,-0.056
0.661,-0.053
0.662,-0.056
0.663,-0.056
0.664,-0.053
0.665,-0.050
0.666,-0.050
0.667,-0.050
0.668,-0.048
0.669,-0.050
0.670,-0.047
0.671,-0.044
0.672,-0.037
0.673,-0.031
0.674,-0.024
0.675,-0.019
0.676,-0.011
0.677,-0.003
0.678,0.000
0.679,0.000
0.680,0.000
0.681,0.003
0.682,0.003
0.683,0.006
0.684,0.008
0.685,0.009
0.686,0.013
0.687,0.016
0.688,0.023
0.689,0.031
0.690,0.027
0.691,0.025
0.692,0.027
0.693,0.025
0.694,0.026
0.695,0.025
0.696,0.025
0.697,0.025
0.698,0.026
0.699,0.028
0.700,0.036
0.701,0.047
0.702,0.053
0.703,0.059
0.704,0.063
0.705,0.063
0.706,0.067
0.707,0.069
0.708,0.070
0.709,0.075
0.710,0.081
0.711,0.087
0.712,0.093
0.713,0.094
0.714,0.095
0.715,0.094
0.716,0.093
0.717,0.091
0.718,0.087
0.719,0.081
0.720,0.078
0.721,0.075
0.722,0.069
0.723,0.063
0.724,0.056
0.725,0.050
0.726,0.043
0.727,0.038
0.728,0.038
0.729,0.031
0.730,0.031
0.731,0.031
0.732,0.025
0.733,0.019
0.734,0.013
0.735,0.006
0.736,0.000
0.737,-0.009
0.738,-0.014
0.739,-0.016
0.740,-0.016
0.741,-0.019
0.742,-0.020
0.743,-0.019
0.744,-0.023
0.745,-0.028
0.746,-0.032
0.747,-0.037
0.748,-0.041
0.749,-0.037
0.750,-0.036
0.751,-0.037
0.752,-0.041
0.753,-0.047
0.754,-0.050
0.755,-0.056
0.756,-0.056
0.757,-0.062
0.758,-0.066
0.759,-0.066
0.760,-0.069
0.761,-0.069
0.762,-0.073
0.763,-0.072
0.764,-0.072
0.765,-0.072
0.766,-0.072
0.767,-0.075
0.768,-0.075
0.769,-0.075
0.770,-0.072
0.771,-0.072
0.772,-0.071
0.773,-0.069
0.774,-0.071
0.775,-0.069
0.776,-0.072
0.777,-0.072
0.778,-0.073
0.779,-0.075
0.780,-0.075
0.781,-0.075
0.782,-0.072
0.783,-0.072
0.784,-0.069
0.785,-0.059
0.786,-0.062
0.787,-0.059
0.788,-0.061
0.789,-0.062
0.790,-0.066
0.791,-0.069
0.792,-0.066
0.793,-0.066
0.794,-0.069
0.795,-0.072
0.796,-0.073
0.797,-0.075
0.798,-0.075
0.799,-0.075
0.800,-0.074
0.801,-0.072
0.802,-0.071
0.803,-0.072
0.804,-0.075
0.805,-0.084
0.806,-0.089
0.807,-0.097
0.808,-0.100
0.809,-0.103
0.810,-0.111
0.811,-0.119
0.812,-0.122
0.813,-0.125
0.814,-0.119
0.815,-0.112
0.816,-0.100
0.817,-0.087
0.818,-0.067
0.819,-0.047
0.820,-0.017
0.821,0.013
0.822,0.044
0.823,0.081
0.824,0.122
0.825,0.169
0.826,0.221
0.827,0.275
0.828,0.331
0.829,0.387
0.830,0.444
0.831,0.506
0.832,0.570
0.833,0.644
0.834,0.716
0.835,0.784
0.836,0.848
0.837,0.903
0.838,0.952
0.839,0.997
0.840,1.034
0.841,1.059
0.842,1.072
0.843,1.072
0.844,1.049
0.845,1.009
0.846,0.941
0.847,0.863
0.848,0.784
0.849,0.713
0.850,0.642
0.851,0.575
0.852,0.508
0.853,0.441
0.854,0.376
0.855,0.309
0.856,0.247
0.857,0.188
0.858,0.125
0.859,0.069
0.860,0.019
0.861,-0.016
0.862,-0.028
0.863,-0.037
0.864,-0.041
0.865,-0.044
0.866,-0.041
0.867,-0.044
0.868,-0.050
0.869,-0.059
0.870,-0.067
0.871,-0.075
0.872,-0.083
0.873,-0.091
0.874,-0.095
0.875,-0.103
0.876,-0.106
0.877,-0.106
0.878,-0.104
0.879,-0.103
0.880,-0.103
0.881,-0.103
0.882,-0.096
0.883,-0.081
0.884,-0.072
0.885,-0.069
0.886,-0.069
0.887,-0.069
0.888,-0.062
0.889,-0.059
0.890,-0.055
0.891,-0.050
0.892,-0.050
0.893,-0.050
0.894,-0.052
0.895,-0.050
0.896,-0.054
0.897,-0.059
0.898,-0.059
0.899,-0.066
0.900,-0.069
0.901,-0.069
0.902,-0.073
0.903,-0.075
0.904,-0.072
0.905,-0.072
0.906,-0.071
0.907,-0.069
0.908,-0.067
0.909,-0.069
0.910,-0.067
0.911,-0.069
0.912,-0.067
0.913,-0.069
0.914,-0.067
0.915,-0.069
0.916,-0.070
0.917,-0.072
0.918,-0.075
0.919,-0.075
0.920,-0.074
0.921,-0.075
0.922,-0.071
0.923,-0.069
0.924,-0.072
0.925,-0.072
0.926,-0.072
0.927,-0.072
0.928,-0.072
0.929,-0.072
0.930,-0.071
0.931,-0.072
0.932,-0.071
0.933,-0.069
0.934,-0.070
0.935,-0.072
0.936,-0.072
0.937,-0.075
0.938,-0.072
0.939,-0.069
0.940,-0.072
0.941,-0.072
0.942,-0.071
0.943,-0.069
0.944,-0.067
0.945,-0.066
0.946,-0.066
0.947,-0.069
0.948,-0.069
0.949,-0.069
0.950,-0.072
0.951,-0.072
0.952,-0.069
0.953,-0.069
0.954,-0.070
0.955,-0.072
0.956,-0.073
0.957,-0.075
0.958,-0.073
0.959,-0.075
0.960,-0.071
0.961,-0.069
0.962,-0.069
0.963,-0.069
0.964,-0.069
0.965,-0.069
0.966,-0.069
0.967,-0.069
0.968,-0.069
0.969,-0.069
0.970,-0.066
0.971,-0.066
0.972,-0.069
0.973,-0.069
0.974,-0.069
0.975,-0.069
0.976,-0.069
0.977,-0.069
0.978,-0.066
0.979,-0.062
0.980,-0.061
0.981,-0.062
0.982,-0.062
0.983,-0.066
0.984,-0.064
0.985,-0.062
0.986,-0.064
0.987,-0.059
0.988,-0.058
0.989,-0.059
0.990,-0.061
0.991,-0.059
0.992,-0.061
0.993,-0.053
0.994,-0.053
0.995,-0.056
0.996,-0.062
0.997,-0.069
0.998,-0.066
0.999,-0.066
1.000,-0.064
1.001,-0.066
1.002,-0.061
1.003,-0.056
1.004,-0.055
1.005,-0.056
1.006,-0.054
1.007,-0.056
1.008,-0.056
1.009,-0.056
1.010,-0.055
1.011,-0.053
1.012,-0.054
1.013,-0.053
1.014,-0.053
1.015,-0.053
1.016,-0.052
1.017,-0.050
1.018,-0.051
1.019,-0.050
1.020,-0.051
1.021,-0.053
1.022,-0.053
1.023,-0.050
1.024,-0.049
1.025,-0.047
1.026,-0.047
1.027,-0.047
1.028,-0.043
1.029,-0.037
1.030,-0.041
1.031,-0.041
1.032,-0.041
1.033,-0.041
1.034,-0.042
1.035,-0.041
1.036,-0.039
1.037,-0.041
1.038,-0.037
1.039,-0.037
1.040,-0.033
1.041,-0.028
1.042,-0.031
1.043,-0.028
1.044,-0.028
1.045,-0.025
1.046,-0.022
1.047,-0.019
1.048,-0.020
1.049,-0.022
1.050,-0.023
1.051,-0.025
1.052,-0.026
1.053,-0.025
1.054,-0.029
1.055,-0.034
1.056,-0.032
1.057,-0.034
1.058,-0.032
1.059,-0.034
1.060,-0.031
1.061,-0.028
1.062,-0.025
1.063,-0.022
1.064,-0.020
1.065,-0.022
1.066,-0.022
1.067,-0.019
1.068,-0.019
1.069,-0.019
1.070,-0.016
1.071,-0.012
1.072,-0.012
1.073,-0.012
1.074,-0.014
1.075,-0.012
1.076,-0.008
1.077,-0.006
1.078,-0.005
1.079,-0.003
1.080,-0.003
1.081,0.000
1.082,-0.002
1.083,0.003
1.084,0.003
1.085,0.003
1.086,0.002
1.087,0.003
1.088,0.005
1.089,0.003
1.090,0.005
1.091,0.003
1.092,0.002
1.093,0.003
1.094,0.006
1.095,0.009
1.096,0.008
1.097,0.006
1.098,0.003
1.099,0.006
1.100,0.006
1.101,0.006
1.102,0.011
1.103,0.016
1.104,0.017
1.105,0.022
1.106,0.025
1.107,0.025
1.108,0.026
1.109,0.028
1.110,0.030
1.111,0.028
1.112,0.030
1.113,0.028
1.114,0.028
1.115,0.028
1.116,0.034
1.117,0.041
1.118,0.039
1.119,0.038
1.120,0.038
1.121,0.038
1.122,0.041
1.123,0.041
1.124,0.043
1.125,0.041
1.126,0.039
1.127,0.041
1.128,0.041
1.129,0.041
1.130,0.043
1.131,0.041
1.132,0.041
1.133,0.041
1.134,0.044
1.135,0.047
1.136,0.053
1.137,0.059
1.138,0.058
1.139,0.056
1.140,0.059
1.141,0.059
1.142,0.061
1.143,0.063
1.144,0.066
1.145,0.066
1.146,0.066
1.147,0.069
1.148,0.069
1.149,0.069
1.150,0.072
1.151,0.075
1.152,0.078
1.153,0.081
1.154,0.081
1.155,0.081
1.156,0.084
1.157,0.084
1.158,0.086
1.159,0.087
1.160,0.084
1.161,0.084
1.162,0.083
1.163,0.084
1.164,0.086
1.165,0.084
1.166,0.084
1.167,0.084
1.168,0.081
1.169,0.081
1.170,0.083
1.171,0.081
1.172,0.077
1.173,0.075
1.174,0.075
1.175,0.072
1.176,0.073
1.177,0.072
1.178,0.068
1.179,0.066
1.180,0.067
1.181,0.063
1.182,0.066
1.183,0.066
1.184,0.063
1.185,0.059
1.186,0.058
1.187,0.056
1.188,0.053
1.189,0.050
1.190,0.051
1.191,0.050
1.192,0.050
1.193,0.047
1.194,0.039
1.195,0.034
1.196,0.034
1.197,0.034
1.198,0.031
1.199,0.028
1.200,0.027
1.201,0.022
1.202,0.020
1.203,0.019
1.204,0.014
1.205,0.013
1.206,0.013
1.207,0.009
1.208,0.008
1.209,0.006
1.210,0.008
1.211,0.006
1.212,0.004
1.213,0.006
1.214,0.003
1.215,0.003
1.216,0.004
1.217,0.006
1.218,0.003
1.219,0.006
1.220,0.002
1.221,-0.003
1.222,-0.002
1.223,0.000
1.224,0.001
1.225,0.003
1.226,0.002
1.227,0.000
1.228,0.000
1.229,-0.003
1.230,-0.002
1.231,0.000
1.232,-0.004
1.233,-0.003
1.234,-0.004
1.235,-0.006
1.236,-0.006
1.237,-0.006
1.238,-0.005
1.239,-0.003
1.240,-0.007
1.241,-0.006
1.242,-0.009
1.243,-0.006
1.244,-0.009
1.245,-0.009
1.246,-0.009
1.247,-0.009
1.248,-0.008
1.249,-0.006
1.250,-0.003
1.251,-0.003
1.252,-0.004
1.253,-0.006
1.254,-0.007
1.255,-0.009
1.256,-0.009
1.257,-0.009
1.258,-0.008
1.259,-0.006
1.260,-0.004
1.261,-0.006
1.262,-0.005
1.263,-0.003
1.264,-0.002
1.265,-0.003
1.266,-0.001
1.267,-0.003
1.268,-0.003
1.269,-0.003
1.270,-0.002
1.271,0.000
1.272,0.000
1.273,0.000
1.274,0.000
1.275,0.000
1.276,0.000
1.277,0.000
1.278,-0.001
1.279,-0.003
1.280,-0.003
1.281,-0.003
1.282,-0.003
1.283,-0.003
1.284,-0.002
1.285,-0.003
1.286,-0.001
1.287,-0.003
1.288,-0.003
1.289,-0.003
1.290,-0.003
1.291,-0.003
1.292,-0.002
1.293,0.000
1.294,0.000
1.295,0.000
1.296,-0.003
1.297,-0.006
1.298,-0.009
1.299,-0.006
1.300,-0.006
1.301,0.000
1.302,0.000
1.303,0.000
1.304,0.000
1.305,0.000
1.306,-0.004
1.307,-0.006
1.308,-0.009
1.309,-0.009
1.310,-0.007
1.311,-0.009
1.312,-0.008
1.313,-0.009
1.314,-0.009
1.315,-0.009
1.316,-0.009
1.317,-0.009
1.318,-0.011
1.319,-0.012
1.320,-0.011
1.321,-0.012
1.322,-0.014
1.323,-0.016
1.324,-0.016
1.325,-0.016
1.326,-0.017
1.327,-0.016
1.328,-0.017
1.329,-0.022
1.330,-0.020
1.331,-0.025
1.332,-0.022
1.333,-0.025
1.334,-0.024
1.335,-0.025
1.336,-0.022
1.337,-0.025
1.338,-0.021
1.339,-0.022
1.340,-0.019
1.341,-0.022
1.342,-0.023
1.343,-0.025
1.344,-0.022
1.345,-0.022
1.346,-0.023
1.347,-0.025
1.348,-0.029
1.349,-0.031
1.350,-0.031
1.351,-0.028
1.352,-0.031
1.353,-0.031
1.354,-0.031
1.355,-0.034
1.356,-0.034
1.357,-0.034
1.358,-0.034
1.359,-0.034
1.360,-0.034
1.361,-0.034
1.362,-0.036
1.363,-0.037
1.364,-0.036
1.365,-0.034
1.366,-0.039
1.367,-0.037
1.368,-0.037
1.369,-0.041
1.370,-0.037
1.371,-0.034
1.372,-0.036
1.373,-0.041
1.374,-0.044
1.375,-0.047
1.376,-0.049
1.377,-0.047
1.378,-0.041
1.379,-0.041
1.380,-0.041
1.381,-0.041
1.382,-0.042
1.383,-0.044
1.384,-0.045
1.385,-0.047
1.386,-0.046
1.387,-0.044
1.388,-0.045
1.389,-0.047
1.390,-0.051
1.391,-0.050
1.392,-0.047
1.393,-0.044
1.394,-0.043
1.395,-0.044
1.396,-0.045
1.397,-0.047
1.398,-0.046
1.399,-0.044
1.400,-0.047
1.401,-0.047
1.402,-0.047
1.403,-0.047
1.404,-0.047
1.405,-0.047
1.406,-0.046
1.407,-0.044
1.408,-0.051
1.409,-0.053
1.410,-0.050
1.411,-0.053
1.412,-0.050
1.413,-0.050
1.414,-0.053
1.415,-0.053
1.416,-0.053
1.417,-0.053
1.418,-0.053
1.419,-0.053
1.420,-0.056
1.421,-0.056
1.422,-0.056
1.423,-0.056
1.424,-0.057
1.425,-0.056
1.426,-0.053
1.427,-0.056
1.428,-0.056
1.429,-0.056
1.430,-0.055
1.431,-0.053
1.432,-0.056
1.433,-0.056
1.434,-0.056
1.435,-0.056
1.436,-0.056
1.437,-0.056
1.438,-0.056
1.439,-0.056
1.440,-0.056
1.441,-0.056
1.442,-0.053
1.443,-0.050
1.444,-0.050
1.445,-0.050
1.446,-0.051
1.447,-0.053
1.448,-0.056
1.449,-0.059
1.450,-0.056
1.451,-0.056
1.452,-0.056
1.453,-0.056
1.454,-0.057
1.455,-0.059
1.456,-0.058
1.457,-0.056
1.458,-0.057
1.459,-0.056
1.460,-0.055
1.461,-0.053
1.462,-0.057
1.463,-0.059
1.464,-0.059
1.465,-0.059
1.466,-0.055
1.467,-0.056
1.468,-0.053
1.469,-0.053
1.470,-0.057
1.471,-0.059
1.472,-0.058
1.473,-0.056
1.474,-0.057
1.475,-0.059
1.476,-0.059
1.477,-0.059
1.478,-0.066
1.479,-0.069
1.480,-0.067
1.481,-0.066
1.482,-0.064
1.483,-0.062
1.484,-0.066
1.485,-0.066
1.486,-0.062
1.487,-0.056
1.488,-0.056
1.489,-0.056
1.490,-0.056
1.491,-0.056
1.492,-0.061
1.493,-0.062
1.494,-0.059
1.495,-0.056
1.496,-0.057
1.497,-0.059
1.498,-0.059
1.499,-0.056
1.500,-0.059
1.501,-0.059
1.502,-0.061
1.503,-0.062
1.504,-0.059
1.505,-0.056
1.506,-0.057
1.507,-0.059
1.508,-0.061
1.509,-0.062
1.510,-0.062
1.511,-0.059
1.512,-0.062
1.513,-0.062
1.514,-0.059
1.515,-0.056
1.516,-0.055
1.517,-0.053
1.518,-0.051
1.519,-0.053
1.520,-0.050
1.521,-0.047
1.522,-0.042
1.523,-0.037
1.524,-0.028
1.525,-0.022
1.526,-0.016
1.527,-0.009
1.528,-0.002
1.529,0.003
1.530,0.000
1.531,0.000
1.532,0.001
1.533,0.006
1.534,0.011
1.535,0.016
1.536,0.019
1.537,0.022
1.538,0.025
1.539,0.028
1.540,0.025
1.541,0.025
1.542,0.027
1.543,0.025
1.544,0.026
1.545,0.025
1.546,0.025
1.547,0.025
1.548,0.025
1.549,0.025
1.550,0.031
1.551,0.041
1.552,0.044
1.553,0.047
1.554,0.050
1.555,0.050
1.556,0.056
1.557,0.059
1.558,0.061
1.559,0.066
1.560,0.073
1.561,0.081
1.562,0.086
1.563,0.087
1.564,0.087
1.565,0.084
1.566,0.084
1.567,0.084
1.568,0.080
1.569,0.072
1.570,0.067
1.571,0.063
1.572,0.059
1.573,0.056
1.574,0.050
1.575,0.044
1.576,0.036
1.577,0.031
1.578,0.034
1.579,0.031
1.580,0.027
1.581,0.022
1.582,0.016
1.583,0.009
1.584,0.003
1.585,-0.003
1.586,-0.011
1.587,-0.022
1.588,-0.027
1.589,-0.028
1.590,-0.027
1.591,-0.028
1.592,-0.029
1.593,-0.028
1.594,-0.030
1.595,-0.031
1.596,-0.036
1.597,-0.041
1.598,-0.047
1.599,-0.047
1.600,-0.047
1.601,-0.050
1.602,-0.050
1.603,-0.053
1.604,-0.056
1.605,-0.062
1.606,-0.059
1.607,-0.062
1.608,-0.066
1.609,-0.066
1.610,-0.070
1.611,-0.072
1.612,-0.076
1.613,-0.075
1.614,-0.075
1.615,-0.075
1.616,-0.074
1.617,-0.075
1.618,-0.076
1.619,-0.078
1.620,-0.075
1.621,-0.075
1.622,-0.075
1.623,-0.075
1.624,-0.077
1.625,-0.075
1.626,-0.079
1.627,-0.081
1.628,-0.078
1.629,-0.075
1.630,-0.076
1.631,-0.078
1.632,-0.075
1.633,-0.075
1.634,-0.078
1.635,-0.075
1.636,-0.081
1.637,-0.081
1.638,-0.081
1.639,-0.081
1.640,-0.080
1.641,-0.078
1.642,-0.076
1.643,-0.078
1.644,-0.080
1.645,-0.081
1.646,-0.081
1.647,-0.081
1.648,-0.080
1.649,-0.078
1.650,-0.079
1.651,-0.081
1.652,-0.081
1.653,-0.084
1.654,-0.083
1.655,-0.087
1.656,-0.091
1.657,-0.097
1.658,-0.107
1.659,-0.119
1.660,-0.126
1.661,-0.134
1.662,-0.133
1.663,-0.131
1.664,-0.123
1.665,-0.116
1.666,-0.103
1.667,-0.091
1.668,-0.066
1.669,-0.041
1.670,-0.011
1.671,0.019
1.672,0.053
1.673,0.094
1.674,0.134
1.675,0.181
1.676,0.239
1.677,0.300
1.678,0.354
1.679,0.409
1.680,0.458
1.681,0.513
1.682,0.576
1.683,0.650
1.684,0.719
1.685,0.784
1.686,0.844
1.687,0.894
1.688,0.942
1.689,0.988
1.690,1.027
1.691,1.053
1.692,1.067
1.693,1.069
1.694,1.046
1.695,1.006
1.696,0.939
1.697,0.863
1.698,0.781
1.699,0.706
1.700,0.634
1.701,0.566
1.702,0.500
1.703,0.434
1.704,0.368
1.705,0.297
1.706,0.231
1.707,0.169
1.708,0.103
1.709,0.044
1.710,-0.003
1.711,-0.034
1.712,-0.046
1.713,-0.053
1.714,-0.051
1.715,-0.050
1.716,-0.043
1.717,-0.041
1.718,-0.049
1.719,-0.059
1.720,-0.070
1.721,-0.081
1.722,-0.089
1.723,-0.097
1.724,-0.098
1.725,-0.103
1.726,-0.107
1.727,-0.109
1.728,-0.105
1.729,-0.100
1.730,-0.097
1.731,-0.094
1.732,-0.095
1.733,-0.091
1.734,-0.080
1.735,-0.075
1.736,-0.072
1.737,-0.069
1.738,-0.066
1.739,-0.066
1.740,-0.061
1.741,-0.056
1.742,-0.055
1.743,-0.053
1.744,-0.059
1.745,-0.062
1.746,-0.066
1.747,-0.069
1.748,-0.066
1.749,-0.069
1.750,-0.072
1.751,-0.072
1.752,-0.079
1.753,-0.084
1.754,-0.082
1.755,-0.084
1.756,-0.081
1.757,-0.078
1.758,-0.076
1.759,-0.078
1.760,-0.075
1.761,-0.075
1.762,-0.074
1.763,-0.075
1.764,-0.075
1.765,-0.078
1.766,-0.078
1.767,-0.078
1.768,-0.081
1.769,-0.081
1.770,-0.080
1.771,-0.081
1.772,-0.078
1.773,-0.078
1.774,-0.079
1.775,-0.078
1.776,-0.078
1.777,-0.078
1.778,-0.078
1.779,-0.078
1.780,-0.077
1.781,-0.078
1.782,-0.078
1.783,-0.078
1.784,-0.077
1.785,-0.075
1.786,-0.073
1.787,-0.075
1.788,-0.075
1.789,-0.075
1.790,-0.078
1.791,-0.078
1.792,-0.078
1.793,-0.078
1.794,-0.074
1.795,-0.069
1.796,-0.067
1.797,-0.069
1.798,-0.072
1.799,-0.075
1.800,-0.077
1.801,-0.075
1.802,-0.072
1.803,-0.072
1.804,-0.072
1.805,-0.072
1.806,-0.071
1.807,-0.069
1.808,-0.067
1.809,-0.069
1.810,-0.067
1.811,-0.069
1.812,-0.070
1.813,-0.072
1.814,-0.072
1.815,-0.072
1.816,-0.071
1.817,-0.069
1.818,-0.069
1.819,-0.069
1.820,-0.069
1.821,-0.072
1.822,-0.073
1.823,-0.072
1.824,-0.072
1.825,-0.072
1.826,-0.071
1.827,-0.069
1.828,-0.070
1.829,-0.072
1.830,-0.070
1.831,-0.072
1.832,-0.069
1.833,-0.069
1.834,-0.066
1.835,-0.062
1.836,-0.067
1.837,-0.066
1.838,-0.064
1.839,-0.066
1.840,-0.062
1.841,-0.056
1.842,-0.059
1.843,-0.053
1.844,-0.053
1.845,-0.056
1.846,-0.059
1.847,-0.062
1.848,-0.058
1.849,-0.056
1.850,-0.053
1.851,-0.053
1.852,-0.051
1.853,-0.050
1.854,-0.049
1.855,-0.050
1.856,-0.048
1.857,-0.050
1.858,-0.049
1.859,-0.047
1.860,-0.047
1.861,-0.047
1.862,-0.046
1.863,-0.041
1.864,-0.042
1.865,-0.044
1.866,-0.045
1.867,-0.047
1.868,-0.048
1.869,-0.047
1.870,-0.047
1.871,-0.047
1.872,-0.044
1.873,-0.037
1.874,-0.037
1.875,-0.037
1.876,-0.037
1.877,-0.037
1.878,-0.039
1.879,-0.041
1.880,-0.042
1.881,-0.041
1.882,-0.041
1.883,-0.041
1.884,-0.039
1.885,-0.034
1.886,-0.034
1.887,-0.037
1.888,-0.036
1.889,-0.037
1.890,-0.034
1.891,-0.031
1.892,-0.031
1.893,-0.025
1.894,-0.026
1.895,-0.025
1.896,-0.026
1.897,-0.028
1.898,-0.028
1.899,-0.028
1.900,-0.025
1.901,-0.022
1.902,-0.023
1.903,-0.022
1.904,-0.022
1.905,-0.022
1.906,-0.020
1.907,-0.022
1.908,-0.019
1.909,-0.019
1.910,-0.016
1.911,-0.012
1.912,-0.012
1.913,-0.012
1.914,-0.011
1.915,-0.012
1.916,-0.012
1.917,-0.009
1.918,-0.006
1.919,-0.003
1.920,-0.001
1.921,0.000
1.922,0.000
1.923,0.000
1.924,-0.003
1.925,-0.003
1.926,-0.001
1.927,-0.003
1.928,0.000
1.929,0.003
1.930,0.004
1.931,0.009
1.932,0.006
1.933,0.009
1.934,0.009
1.935,0.009
1.936,0.009
1.937,0.013
1.938,0.014
1.939,0.013
1.940,0.019
1.941,0.022
1.942,0.022
1.943,0.025
1.944,0.025
1.945,0.025
1.946,0.024
1.947,0.022
1.948,0.021
1.949,0.025
1.950,0.026
1.951,0.028
1.952,0.031
1.953,0.034
1.954,0.034
1.955,0.038
1.956,0.036
1.957,0.031
1.958,0.030
1.959,0.028
1.960,0.034
1.961,0.038
1.962,0.041
1.963,0.041
1.964,0.042
1.965,0.044
1.966,0.046
1.967,0.047
1.968,0.047
1.969,0.047
1.970,0.048
1.971,0.050
1.972,0.052
1.973,0.050
1.974,0.056
1.975,0.059
1.976,0.058
1.977,0.059
1.978,0.058
1.979,0.056
1.980,0.059
1.981,0.059
1.982,0.061
1.983,0.063
1.984,0.064
1.985,0.066
1.986,0.070
1.987,0.075
1.988,0.075
1.989,0.075
1.990,0.078
1.991,0.078
1.992,0.081
1.993,0.084
1.994,0.086
1.995,0.084
1.996,0.083
1.997,0.084
1.998,0.084
1.999,0.084
2.000,0.087
2.001,0.091
2.002,0.093
2.003,0.094
2.004,0.094
2.005,0.094
2.006,0.094
2.007,0.091
2.008,0.091
2.009,0.091
2.010,0.092
2.011,0.097
2.012,0.094
2.013,0.094
2.014,0.091
2.015,0.084
2.016,0.084
2.017,0.084
2.018,0.081
2.019,0.081
2.020,0.084
2.021,0.084
2.022,0.081
2.023,0.081
2.024,0.078
2.025,0.072
2.026,0.073
2.027,0.072
2.028,0.068
2.029,0.066
2.030,0.067
2.031,0.063
2.032,0.059
2.033,0.053
2.034,0.050
2.035,0.047
2.036,0.047
2.037,0.047
2.038,0.045
2.039,0.044
2.040,0.041
2.041,0.034
2.042,0.036
2.043,0.034
2.044,0.028
2.045,0.025
2.046,0.025
2.047,0.025
2.048,0.023
2.049,0.022
2.050,0.021
2.051,0.016
2.052,0.016
2.053,0.016
2.054,0.013
2.055,0.013
2.056,0.013
2.057,0.009
2.058,0.008
2.059,0.006
2.060,0.009
2.061,0.009
2.062,0.003
2.063,0.000
2.064,-0.004
2.065,-0.006
2.066,-0.006
2.067,-0.006
2.068,-0.009
2.069,-0.006
2.070,-0.008
2.071,-0.009
2.072,-0.009
2.073,-0.009
2.074,-0.011
2.075,-0.012
2.076,-0.012
2.077,-0.012
2.078,-0.011
2.079,-0.012
2.080,-0.016
2.081,-0.019
2.082,-0.021
2.083,-0.016
2.084,-0.016
2.085,-0.016
2.086,-0.016
2.087,-0.016
2.088,-0.014
2.089,-0.012
2.090,-0.016
2.091,-0.012
2.092,-0.016
2.093,-0.012
2.094,-0.016
2.095,-0.016
2.096,-0.017
2.097,-0.019
2.098,-0.020
2.099,-0.022
2.100,-0.016
2.101,-0.012
2.102,-0.014
2.103,-0.016
2.104,-0.016
2.105,-0.016
2.106,-0.017
2.107,-0.019
2.108,-0.017
2.109,-0.016
2.110,-0.012
2.111,-0.012
2.112,-0.012
2.113,-0.012
2.114,-0.011
2.115,-0.012
2.116,-0.011
2.117,-0.012
2.118,-0.011
2.119,-0.009
2.120,-0.009
2.121,-0.009
2.122,-0.011
2.123,-0.012
2.124,-0.012
2.125,-0.012
2.126,-0.012
2.127,-0.012
2.128,-0.011
2.129,-0.009
2.130,-0.011
2.131,-0.012
2.132,-0.012
2.133,-0.012
2.134,-0.012
2.135,-0.016
2.136,-0.012
2.137,-0.012
2.138,-0.012
2.139,-0.012
2.140,-0.012
2.141,-0.012
2.142,-0.014
2.143,-0.016
2.144,-0.016
2.145,-0.016
2.146,-0.014
2.147,-0.012
2.148,-0.016
2.149,-0.012
2.150,-0.017
2.151,-0.016
2.152,-0.012
2.153,-0.009
2.154,-0.009
2.155,-0.009
2.156,-0.011
2.157,-0.009
2.158,-0.012
2.159,-0.012
2.160,-0.011
2.161,-0.012
2.162,-0.012
2.163,-0.016
2.164,-0.016
2.165,-0.016
2.166,-0.016
2.167,-0.016
2.168,-0.016
2.169,-0.016
2.170,-0.014
2.171,-0.016
2.172,-0.016
2.173,-0.016
2.174,-0.016
2.175,-0.016
2.176,-0.019
2.177,-0.019
2.178,-0.019
2.179,-0.022
2.180,-0.017
2.181,-0.019
2.182,-0.016
2.183,-0.019
2.184,-0.022
2.185,-0.028
2.186,-0.025
2.187,-0.028
2.188,-0.025
2.189,-0.028
2.190,-0.025
2.191,-0.028
2.192,-0.029
2.193,-0.031
2.194,-0.030
2.195,-0.031
2.196,-0.031
2.197,-0.031
2.198,-0.034
2.199,-0.034
2.200,-0.033
2.201,-0.028
2.202,-0.031
2.203,-0.031
2.204,-0.031
2.205,-0.034
2.206,-0.037
2.207,-0.041
2.208,-0.042
2.209,-0.044
2.210,-0.041
2.211,-0.037
2.212,-0.037
2.213,-0.037
2.214,-0.037
2.215,-0.037
2.216,-0.041
2.217,-0.037
2.218,-0.034
2.219,-0.034
2.220,-0.034
2.221,-0.034
2.222,-0.034
2.223,-0.037
2.224,-0.039
2.225,-0.041
2.226,-0.044
2.227,-0.044
2.228,-0.041
2.229,-0.044
2.230,-0.045
2.231,-0.047
2.232,-0.047
2.233,-0.047
2.234,-0.047
2.235,-0.047
2.236,-0.047
2.237,-0.047
2.238,-0.047
2.239,-0.047
2.240,-0.051
2.241,-0.050
2.242,-0.050
2.243,-0.050
2.244,-0.049
2.245,-0.050
2.246,-0.050
2.247,-0.050
2.248,-0.050
2.249,-0.050
2.250,-0.053
2.251,-0.053
2.252,-0.054
2.253,-0.056
2.254,-0.053
2.255,-0.050
2.256,-0.050
2.257,-0.050
2.258,-0.055
2.259,-0.053
2.260,-0.050
2.261,-0.053
2.262,-0.050
2.263,-0.050
2.264,-0.050
2.265,-0.047
2.266,-0.048
2.267,-0.050
2.268,-0.051
2.269,-0.053
2.270,-0.055
2.271,-0.053
2.272,-0.053
2.273,-0.053
2.274,-0.056
2.275,-0.056
2.276,-0.053
2.277,-0.056
2.278,-0.055
2.279,-0.053
2.280,-0.052
2.281,-0.050
2.282,-0.053
2.283,-0.053
2.284,-0.053
2.285,-0.053
2.286,-0.053
2.287,-0.053
2.288,-0.053
2.289,-0.053
2.290,-0.054
2.291,-0.056
2.292,-0.057
2.293,-0.059
2.294,-0.058
2.295,-0.056
2.296,-0.057
2.297,-0.059
2.298,-0.058
2.299,-0.056
2.300,-0.056
2.301,-0.059
2.302,-0.059
2.303,-0.056
2.304,-0.058
2.305,-0.056
2.306,-0.056
2.307,-0.056
2.308,-0.056
2.309,-0.059
2.310,-0.057
2.311,-0.056
2.312,-0.055
2.313,-0.056
2.314,-0.056
2.315,-0.056
2.316,-0.057
2.317,-0.059
2.318,-0.058
2.319,-0.056
2.320,-0.057
2.321,-0.059
2.322,-0.061
2.323,-0.062
2.324,-0.058
2.325,-0.056
2.326,-0.057
2.327,-0.059
2.328,-0.061
2.329,-0.059
2.330,-0.059
2.331,-0.059
2.332,-0.062
2.333,-0.062
2.334,-0.062
2.335,-0.062
2.336,-0.062
2.337,-0.062
2.338,-0.061
2.339,-0.062
2.340,-0.062
2.341,-0.066
2.342,-0.066
2.343,-0.066
2.344,-0.066
2.345,-0.066
2.346,-0.067
2.347,-0.069
2.348,-0.066
2.349,-0.066
2.350,-0.062
2.351,-0.056
2.352,-0.056
2.353,-0.056
2.354,-0.064
2.355,-0.066
2.356,-0.066
2.357,-0.066
2.358,-0.066
2.359,-0.066
2.360,-0.067
2.361,-0.069
2.362,-0.069
2.363,-0.069
2.364,-0.067
2.365,-0.069
2.366,-0.066
2.367,-0.066
2.368,-0.066
2.369,-0.066
2.370,-0.066
2.371,-0.062
2.372,-0.067
2.373,-0.066
2.374,-0.064
2.375,-0.066
2.376,-0.066
2.377,-0.066
2.378,-0.066
2.379,-0.066
2.380,-0.066
2.381,-0.066
2.382,-0.064
2.383,-0.066
2.384,-0.069
2.385,-0.069
2.386,-0.067
2.387,-0.069
2.388,-0.066
2.389,-0.066
2.390,-0.062
2.391,-0.059
2.392,-0.056
2.393,-0.056
2.394,-0.057
2.395,-0.059
2.396,-0.058
2.397,-0.059
2.398,-0.062
2.399,-0.066
2.400,-0.066
2.401,-0.066
2.402,-0.066
2.403,-0.066
2.404,-0.062
2.405,-0.066
2.406,-0.066
2.407,-0.066
2.408,-0.066
2.409,-0.066
2.410,-0.067
2.411,-0.069
2.412,-0.069
2.413,-0.069
2.414,-0.070
2.415,-0.072
2.416,-0.066
2.417,-0.066
2.418,-0.067
2.419,-0.066
2.420,-0.059
2.421,-0.056
2.422,-0.057
2.423,-0.056
2.424,-0.057
2.425,-0.056
2.426,-0.054
2.427,-0.050
2.428,-0.043
2.429,-0.034
2.430,-0.027
2.431,-0.012
2.432,-0.006
2.433,-0.003
2.434,-0.001
2.435,-0.003
2.436,0.000
2.437,0.000
2.438,0.004
2.439,0.009
2.440,0.016
2.441,0.022
2.442,0.024
2.443,0.025
2.444,0.028
2.445,0.025
2.446,0.025
2.447,0.028
2.448,0.029
2.449,0.031
2.450,0.028
2.451,0.028
2.452,0.028
2.453,0.028
2.454,0.027
2.455,0.028
2.456,0.034
2.457,0.041
2.458,0.047
2.459,0.053
2.460,0.058
2.461,0.063
2.462,0.061
2.463,0.059
2.464,0.058
2.465,0.059
2.466,0.070
2.467,0.084
2.468,0.089
2.469,0.087
2.470,0.084
2.471,0.084
2.472,0.087
2.473,0.087
2.474,0.081
2.475,0.075
2.476,0.066
2.477,0.059
2.478,0.058
2.479,0.053
2.480,0.050
2.481,0.047
2.482,0.043
2.483,0.041
2.484,0.033
2.485,0.028
2.486,0.024
2.487,0.016
2.488,0.009
2.489,0.003
2.490,0.000
2.491,-0.003
2.492,-0.012
2.493,-0.019
2.494,-0.025
2.495,-0.028
2.496,-0.031
2.497,-0.031
2.498,-0.027
2.499,-0.028
2.500,-0.030
2.501,-0.031
2.502,-0.033
2.503,-0.037
2.504,-0.041
2.505,-0.044
2.506,-0.047
2.507,-0.047
2.508,-0.047
2.509,-0.047
2.510,-0.054
2.511,-0.056
2.512,-0.064
2.513,-0.069
2.514,-0.069
2.515,-0.072
2.516,-0.069
2.517,-0.069
2.518,-0.066
2.519,-0.066
2.520,-0.066
2.521,-0.066
2.522,-0.069
2.523,-0.069
2.524,-0.070
2.525,-0.069
2.526,-0.069
2.527,-0.069
2.528,-0.069
2.529,-0.072
2.530,-0.071
2.531,-0.072
2.532,-0.072
2.533,-0.072
2.534,-0.072
2.535,-0.072
2.536,-0.073
2.537,-0.072
2.538,-0.072
2.539,-0.075
2.540,-0.072
2.541,-0.075
2.542,-0.072
2.543,-0.072
2.544,-0.073
2.545,-0.075
2.546,-0.079
2.547,-0.081
2.548,-0.075
2.549,-0.072
2.550,-0.075
2.551,-0.075
2.552,-0.074
2.553,-0.072
2.554,-0.072
2.555,-0.072
2.556,-0.072
2.557,-0.072
2.558,-0.076
2.559,-0.078
2.560,-0.086
2.561,-0.091
2.562,-0.096
2.563,-0.103
2.564,-0.114
2.565,-0.122
2.566,-0.128
2.567,-0.128
2.568,-0.128
2.569,-0.119
2.570,-0.109
2.571,-0.100
2.572,-0.087
2.573,-0.062
2.574,-0.041
2.575,-0.012
2.576,0.017
2.577,0.053
2.578,0.093
2.579,0.134
2.580,0.189
2.581,0.247
2.582,0.300
2.583,0.350
2.584,0.400
2.585,0.447
2.586,0.503
2.587,0.566
2.588,0.638
2.589,0.709
2.590,0.777
2.591,0.838
2.592,0.894
2.593,0.947
2.594,0.997
2.595,1.044
2.596,1.072
2.597,1.081
2.598,1.084
2.599,1.069
2.600,1.033
2.601,0.969
2.602,0.898
2.603,0.819
2.604,0.741
2.605,0.666
2.606,0.598
2.607,0.534
2.608,0.468
2.609,0.400
2.610,0.331
2.611,0.266
2.612,0.202
2.613,0.134
2.614,0.076
2.615,0.028
2.616,-0.005
2.617,-0.019
2.618,-0.030
2.619,-0.025
2.620,-0.022
2.621,-0.019
2.622,-0.026
2.623,-0.041
2.624,-0.054
2.625,-0.066
2.626,-0.069
2.627,-0.072
2.628,-0.084
2.629,-0.087
2.630,-0.091
2.631,-0.094
2.632,-0.097
2.633,-0.097
2.634,-0.092
2.635,-0.087
2.636,-0.081
2.637,-0.078
2.638,-0.073
2.639,-0.069
2.640,-0.066
2.641,-0.059
2.642,-0.057
2.643,-0.053
2.644,-0.053
2.645,-0.053
2.646,-0.050
2.647,-0.050
2.648,-0.051
2.649,-0.056
2.650,-0.057
2.651,-0.062
2.652,-0.066
2.653,-0.066
2.654,-0.071
2.655,-0.072
2.656,-0.072
2.657,-0.075
2.658,-0.075
2.659,-0.072
2.660,-0.072
2.661,-0.072
2.662,-0.073
2.663,-0.072
2.664,-0.073
2.665,-0.072
2.666,-0.072
2.667,-0.072
2.668,-0.074
2.669,-0.072
2.670,-0.075
2.671,-0.075
2.672,-0.074
2.673,-0.075
2.674,-0.075
2.675,-0.075
2.676,-0.079
2.677,-0.078
2.678,-0.078
2.679,-0.078
2.680,-0.075
2.681,-0.075
2.682,-0.075
2.683,-0.075
2.684,-0.075
2.685,-0.075
2.686,-0.077
2.687,-0.075
2.688,-0.075
2.689,-0.075
2.690,-0.078
2.691,-0.078
2.692,-0.078
2.693,-0.078
2.694,-0.077
2.695,-0.078
2.696,-0.078
2.697,-0.078
2.698,-0.078
2.699,-0.075
2.700,-0.072
2.701,-0.072
2.702,-0.074
2.703,-0.072
2.704,-0.073
2.705,-0.078
2.706,-0.078
2.707,-0.075
2.708,-0.072
2.709,-0.069
2.710,-0.069
2.711,-0.069
2.712,-0.072
2.713,-0.072
2.714,-0.072
2.715,-0.072
2.716,-0.075
2.717,-0.075
2.718,-0.076
2.719,-0.075
2.720,-0.071
2.721,-0.069
2.722,-0.069
2.723,-0.069
2.724,-0.069
2.725,-0.069
2.726,-0.072
2.727,-0.072
2.728,-0.069
2.729,-0.069
2.730,-0.069
2.731,-0.069
2.732,-0.069
2.733,-0.069
2.734,-0.067
2.735,-0.062
2.736,-0.059
2.737,-0.056
2.738,-0.061
2.739,-0.059
2.740,-0.055
2.741,-0.056
2.742,-0.053
2.743,-0.053
2.744,-0.056
2.745,-0.056
2.746,-0.054
2.747,-0.059
2.748,-0.053
2.749,-0.053
2.750,-0.056
2.751,-0.056
2.752,-0.056
2.753,-0.053
2.754,-0.053
2.755,-0.053
2.756,-0.057
2.757,-0.056
2.758,-0.053
2.759,-0.053
2.760,-0.057
2.761,-0.056
2.762,-0.057
2.763,-0.059
2.764,-0.059
2.765,-0.059
2.766,-0.058
2.767,-0.056
2.768,-0.053
2.769,-0.053
2.770,-0.053
2.771,-0.053
2.772,-0.053
2.773,-0.053
2.774,-0.050
2.775,-0.050
2.776,-0.050
2.777,-0.050
2.778,-0.048
2.779,-0.050
2.780,-0.050
2.781,-0.050
2.782,-0.050
2.783,-0.050
2.784,-0.050
2.785,-0.050
2.786,-0.047
2.787,-0.047
2.788,-0.047
2.789,-0.047
2.790,-0.044
2.791,-0.044
2.792,-0.044
2.793,-0.037
2.794,-0.037
2.795,-0.034
2.796,-0.031
2.797,-0.034
2.798,-0.031
2.799,-0.031
2.800,-0.029
2.801,-0.031
2.802,-0.031
2.803,-0.031
2.804,-0.030
2.805,-0.028
2.806,-0.028
2.807,-0.028
2.808,-0.026
2.809,-0.028
2.810,-0.028
2.811,-0.025
2.812,-0.026
2.813,-0.025
2.814,-0.025
2.815,-0.025
2.816,-0.024
2.817,-0.022
2.818,-0.022
2.819,-0.019
2.820,-0.017
2.821,-0.016
2.822,-0.012
2.823,-0.012
2.824,-0.014
2.825,-0.012
2.826,-0.011
2.827,-0.012
2.828,-0.012
2.829,-0.012
2.830,-0.006
2.831,0.000
2.832,-0.001
2.833,-0.003
2.834,-0.002
2.835,0.000
2.836,0.002
2.837,-0.003
2.838,0.001
2.839,0.003
2.840,0.002
2.841,0.000
2.842,0.003
2.843,0.006
2.844,0.005
2.845,0.006
2.846,0.006
2.847,0.006
2.848,0.009
2.849,0.009
2.850,0.011
2.851,0.013
2.852,0.016
2.853,0.019
2.854,0.025
2.855,0.025
2.856,0.025
2.857,0.025
2.858,0.025
2.859,0.025
2.860,0.025
2.861,0.025
2.862,0.025
2.863,0.025
2.864,0.025
2.865,0.028
2.866,0.027
2.867,0.028
2.868,0.029
2.869,0.031
2.870,0.033
2.871,0.038
2.872,0.039
2.873,0.038
2.874,0.039
2.875,0.041
2.876,0.042
2.877,0.047
2.878,0.046
2.879,0.047
2.880,0.047
2.881,0.047
2.882,0.049
2.883,0.047
2.884,0.047
2.885,0.050
2.886,0.049
2.887,0.050
2.888,0.056
2.889,0.059
2.890,0.061
2.891,0.066
2.892,0.069
2.893,0.069
2.894,0.070
2.895,0.075
2.896,0.075
2.897,0.078
2.898,0.078
2.899,0.078
2.900,0.078
2.901,0.078
2.902,0.083
2.903,0.084
2.904,0.084
2.905,0.084
2.906,0.083
2.907,0.084
2.908,0.086
2.909,0.084
2.910,0.086
2.911,0.091
2.912,0.092
2.913,0.094
2.914,0.094
2.915,0.091
2.916,0.089
2.917,0.087
2.918,0.091
2.919,0.091
2.920,0.087
2.921,0.087
2.922,0.087
2.923,0.084
2.924,0.086
2.925,0.087
2.926,0.084
2.927,0.081
2.928,0.080
2.929,0.078
2.930,0.076
2.931,0.078
2.932,0.074
2.933,0.069
2.934,0.069
2.935,0.069
2.936,0.066
2.937,0.069
2.938,0.064
2.939,0.059
2.940,0.053
2.941,0.050
2.942,0.050
2.943,0.047
2.944,0.043
2.945,0.041
2.946,0.039
2.947,0.041
2.948,0.039
2.949,0.034
2.950,0.030
2.951,0.028
2.952,0.027
2.953,0.022
2.954,0.016
2.955,0.013
2.956,0.013
2.957,0.013
2.958,0.011
2.959,0.009
2.960,0.009
2.961,0.009
2.962,0.006
2.963,0.006
2.964,0.005
2.965,0.003
2.966,0.001
2.967,0.000
2.968,0.001
2.969,0.000
2.970,-0.003
2.971,-0.006
2.972,-0.006
2.973,-0.009
2.974,-0.005
2.975,-0.006
2.976,-0.009
2.977,-0.009
2.978,-0.011
2.979,-0.012
2.980,-0.014
2.981,-0.016
2.982,-0.014
2.983,-0.012
2.984,-0.016
2.985,-0.016
2.986,-0.014
2.987,-0.016
2.988,-0.014
2.989,-0.016
2.990,-0.019
2.991,-0.022
2.992,-0.023
2.993,-0.025
2.994,-0.022
2.995,-0.022
2.996,-0.017
2.997,-0.019
2.998,-0.016
2.999,-0.019
3.000,-0.019
3.001,-0.019
3.002,-0.019
3.003,-0.019
3.004,-0.020
3.005,-0.019
3.006,-0.016
3.007,-0.012
3.008,-0.012
3.009,-0.012
3.010,-0.014
3.011,-0.016
3.012,-0.016
3.013,-0.016
3.014,-0.017
3.015,-0.016
3.016,-0.014
3.017,-0.012
3.018,-0.011
3.019,-0.009
3.020,-0.014
3.021,-0.012
3.022,-0.012
3.023,-0.012
3.024,-0.012
3.025,-0.012
3.026,-0.012
3.027,-0.012
3.028,-0.012
3.029,-0.012
3.030,-0.012
3.031,-0.012
3.032,-0.012
3.033,-0.012
3.034,-0.012
3.035,-0.012
3.036,-0.012
3.037,-0.012
3.038,-0.012
3.039,-0.012
3.040,-0.017
3.041,-0.016
3.042,-0.016
3.043,-0.016
3.044,-0.016
3.045,-0.016
3.046,-0.016
3.047,-0.016
3.048,-0.014
3.049,-0.012
3.050,-0.012
3.051,-0.012
3.052,-0.011
3.053,-0.012
3.054,-0.009
3.055,-0.012
3.056,-0.011
3.057,-0.012
3.058,-0.014
3.059,-0.016
3.060,-0.014
3.061,-0.016
3.062,-0.014
3.063,-0.016
3.064,-0.019
3.065,-0.019
3.066,-0.017
3.067,-0.016
3.068,-0.019
3.069,-0.019
3.070,-0.017
3.071,-0.016
3.072,-0.017
3.073,-0.019
3.074,-0.017
3.075,-0.016
3.076,-0.017
3.077,-0.016
3.078,-0.017
3.079,-0.019
3.080,-0.020
3.081,-0.025
3.082,-0.024
3.083,-0.022
3.084,-0.025
3.085,-0.022
3.086,-0.025
3.087,-0.022
3.088,-0.025
3.089,-0.025
3.090,-0.027
3.091,-0.022
3.092,-0.026
3.093,-0.025
3.094,-0.029
3.095,-0.028
3.096,-0.031
3.097,-0.031
3.098,-0.030
3.099,-0.028
3.100,-0.031
3.101,-0.031
3.102,-0.030
3.103,-0.031
3.104,-0.032
3.105,-0.034
3.106,-0.031
3.107,-0.034
3.108,-0.034
3.109,-0.034
3.110,-0.037
3.111,-0.037
3.112,-0.041
3.113,-0.044
3.114,-0.045
3.115,-0.047
3.116,-0.043
3.117,-0.037
3.118,-0.037
3.119,-0.037
3.120,-0.036
3.121,-0.037
3.122,-0.036
3.123,-0.037
3.124,-0.042
3.125,-0.044
3.126,-0.044
3.127,-0.044
3.128,-0.047
3.129,-0.047
3.130,-0.046
3.131,-0.047
3.132,-0.044
3.133,-0.037
3.134,-0.042
3.135,-0.044
3.136,-0.045
3.137,-0.047
3.138,-0.047
3.139,-0.047
3.140,-0.047
3.141,-0.047
3.142,-0.047
3.143,-0.047
3.144,-0.047
3.145,-0.050
3.146,-0.048
3.147,-0.050
3.148,-0.049
3.149,-0.047
3.150,-0.050
3.151,-0.050
3.152,-0.050
3.153,-0.050
3.154,-0.050
3.155,-0.053
3.156,-0.053
3.157,-0.053
3.158,-0.054
3.159,-0.053
3.160,-0.051
3.161,-0.053
3.162,-0.052
3.163,-0.056
3.164,-0.056
3.165,-0.053
3.166,-0.057
3.167,-0.056
3.168,-0.055
3.169,-0.056
3.170,-0.056
3.171,-0.056
3.172,-0.056
3.173,-0.056
3.174,-0.056
3.175,-0.059
3.176,-0.056
3.177,-0.053
3.178,-0.053
3.179,-0.053
3.180,-0.053
3.181,-0.053
3.182,-0.056
3.183,-0.056
3.184,-0.056
3.185,-0.056
3.186,-0.055
3.187,-0.056
3.188,-0.056
3.189,-0.056
3.190,-0.056
3.191,-0.056
3.192,-0.056
3.193,-0.056
3.194,-0.056
3.195,-0.056
3.196,-0.056
3.197,-0.056
3.198,-0.056
3.199,-0.056
3.200,-0.056
3.201,-0.056
3.202,-0.056
3.203,-0.056
3.204,-0.056
3.205,-0.056
3.206,-0.059
3.207,-0.059
3.208,-0.053
3.209,-0.053
3.210,-0.054
3.211,-0.056
3.212,-0.057
3.213,-0.059
3.214,-0.062
3.215,-0.059
3.216,-0.056
3.217,-0.056
3.218,-0.061
3.219,-0.062
3.220,-0.062
3.221,-0.062
3.222,-0.062
3.223,-0.062
3.224,-0.059
3.225,-0.056
3.226,-0.057
3.227,-0.059
3.228,-0.059
3.229,-0.059
3.230,-0.062
3.231,-0.062
3.232,-0.061
3.233,-0.059
3.234,-0.057
3.235,-0.059
3.236,-0.059
3.237,-0.062
3.238,-0.062
3.239,-0.062
3.240,-0.062
3.241,-0.062
3.242,-0.061
3.243,-0.059
3.244,-0.061
3.245,-0.056
3.246,-0.057
3.247,-0.059
3.248,-0.061
3.249,-0.062
3.250,-0.062
3.251,-0.062
3.252,-0.059
3.253,-0.056
3.254,-0.059
3.255,-0.059
3.256,-0.061
3.257,-0.066
3.258,-0.066
3.259,-0.069
3.260,-0.066
3.261,-0.066
3.262,-0.062
3.263,-0.059
3.264,-0.058
3.265,-0.056
3.266,-0.062
3.267,-0.066
3.268,-0.067
3.269,-0.069
3.270,-0.069
3.271,-0.069
3.272,-0.069
3.273,-0.069
3.274,-0.069
3.275,-0.069
3.276,-0.069
3.277,-0.066
3.278,-0.067
3.279,-0.069
3.280,-0.067
3.281,-0.069
3.282,-0.067
3.283,-0.066
3.284,-0.066
3.285,-0.066
3.286,-0.069
3.287,-0.069
3.288,-0.070
3.289,-0.069
3.290,-0.067
3.291,-0.069
3.292,-0.072
3.293,-0.072
3.294,-0.071
3.295,-0.072
3.296,-0.072
3.297,-0.075
3.298,-0.075
3.299,-0.075
3.300,-0.075
3.301,-0.075
3.302,-0.074
3.303,-0.072
3.304,-0.072
3.305,-0.072
3.306,-0.073
3.307,-0.075
3.308,-0.072
3.309,-0.072
3.310,-0.069
3.311,-0.069
3.312,-0.069
3.313,-0.069
3.314,-0.070
3.315,-0.069
3.316,-0.072
3.317,-0.069
3.318,-0.067
3.319,-0.069
3.320,-0.070
3.321,-0.072
3.322,-0.072
3.323,-0.072
3.324,-0.072
3.325,-0.072
3.326,-0.069
3.327,-0.069
3.328,-0.072
3.329,-0.072
3.330,-0.070
3.331,-0.072
3.332,-0.071
3.333,-0.072
3.334,-0.072
3.335,-0.072
3.336,-0.070
3.337,-0.072
3.338,-0.072
3.339,-0.072
3.340,-0.067
3.341,-0.066
3.342,-0.069
3.343,-0.072
3.344,-0.073
3.345,-0.075
3.346,-0.074
3.347,-0.072
3.348,-0.067
3.349,-0.069
3.350,-0.070
3.351,-0.072
3.352,-0.073
3.353,-0.075
3.354,-0.075
3.355,-0.075
3.356,-0.075
3.357,-0.075
3.358,-0.075
3.359,-0.075
3.360,-0.072
3.361,-0.075
3.362,-0.076
3.363,-0.075
3.364,-0.072
3.365,-0.072
3.366,-0.071
3.367,-0.066
3.368,-0.064
3.369,-0.059
3.370,-0.055
3.371,-0.047
3.372,-0.041
3.373,-0.034
3.374,-0.031
3.375,-0.022
3.376,-0.016
3.377,-0.012
3.378,-0.005
3.379,0.000
3.380,0.003
3.381,0.003
3.382,0.005
3.383,0.006
3.384,0.011
3.385,0.016
3.386,0.018
3.387,0.019
3.388,0.022
3.389,0.019
3.390,0.018
3.391,0.019
3.392,0.019
3.393,0.019
3.394,0.017
3.395,0.019
3.396,0.020
3.397,0.022
3.398,0.021
3.399,0.022
3.400,0.027
3.401,0.031
3.402,0.038
3.403,0.044
3.404,0.044
3.405,0.044
3.406,0.047
3.407,0.050
3.408,0.058
3.409,0.069
3.410,0.072
3.411,0.078
3.412,0.084
3.413,0.084
3.414,0.081
3.415,0.081
3.416,0.081
3.417,0.078
3.418,0.069
3.419,0.059
3.420,0.052
3.421,0.047
3.422,0.043
3.423,0.034
3.424,0.031
3.425,0.028
3.426,0.025
3.427,0.025
3.428,0.019
3.429,0.016
3.430,0.016
3.431,0.013
3.432,0.006
3.433,0.000
3.434,-0.007
3.435,-0.016
3.436,-0.024
3.437,-0.028
3.438,-0.032
3.439,-0.034
3.440,-0.037
3.441,-0.037
3.442,-0.036
3.443,-0.041
3.444,-0.044
3.445,-0.047
3.446,-0.049
3.447,-0.053
3.448,-0.053
3.449,-0.053
3.450,-0.055
3.451,-0.053
3.452,-0.055
3.453,-0.056
3.454,-0.062
3.455,-0.062
3.456,-0.072
3.457,-0.078
3.458,-0.078
3.459,-0.081
3.460,-0.080
3.461,-0.081
3.462,-0.078
3.463,-0.078
3.464,-0.079
3.465,-0.081
3.466,-0.084
3.467,-0.084
3.468,-0.084
3.469,-0.081
3.470,-0.081
3.471,-0.081
3.472,-0.081
3.473,-0.084
3.474,-0.084
3.475,-0.087
3.476,-0.087
3.477,-0.087
3.478,-0.087
3.479,-0.087
3.480,-0.089
3.481,-0.087
3.482,-0.084
3.483,-0.084
3.484,-0.078
3.485,-0.078
3.486,-0.076
3.487,-0.078
3.488,-0.079
3.489,-0.081
3.490,-0.084
3.491,-0.084
3.492,-0.083
3.493,-0.084
3.494,-0.086
3.495,-0.084
3.496,-0.084
3.497,-0.084
3.498,-0.086
3.499,-0.087
3.500,-0.086
3.501,-0.084
3.502,-0.086
3.503,-0.084
3.504,-0.089
3.505,-0.091
3.506,-0.098
3.507,-0.109
3.508,-0.120
3.509,-0.128
3.510,-0.136
3.511,-0.137
3.512,-0.144
3.513,-0.141
3.514,-0.127
3.515,-0.112
3.516,-0.104
3.517,-0.084
3.518,-0.061
3.519,-0.031
3.520,-0.006
3.521,0.025
3.522,0.069
3.523,0.116
3.524,0.166
3.525,0.219
3.526,0.274
3.527,0.325
3.528,0.374
3.529,0.419
3.530,0.474
3.531,0.534
3.532,0.608
3.533,0.681
3.534,0.751
3.535,0.816
3.536,0.873
3.537,0.928
3.538,0.981
3.539,1.031
3.540,1.064
3.541,1.078
3.542,1.086
3.543,1.075
3.544,1.047
3.545,0.991
3.546,0.919
3.547,0.838
3.548,0.759
3.549,0.684
3.550,0.622
3.551,0.563
3.552,0.501
3.553,0.441
3.554,0.373
3.555,0.309
3.556,0.241
3.557,0.169
3.558,0.106
3.559,0.053
3.560,0.014
3.561,-0.006
3.562,-0.019
3.563,-0.016
3.564,-0.017
3.565,-0.019
3.566,-0.021
3.567,-0.028
3.568,-0.044
3.569,-0.056
3.570,-0.066
3.571,-0.075
3.572,-0.086
3.573,-0.087
3.574,-0.094
3.575,-0.100
3.576,-0.097
3.577,-0.091
3.578,-0.089
3.579,-0.087
3.580,-0.086
3.581,-0.087
3.582,-0.080
3.583,-0.072
3.584,-0.072
3.585,-0.069
3.586,-0.066
3.587,-0.059
3.588,-0.057
3.589,-0.056
3.590,-0.056
3.591,-0.059
3.592,-0.059
3.593,-0.062
3.594,-0.059
3.595,-0.059
3.596,-0.066
3.597,-0.069
3.598,-0.076
3.599,-0.081
3.600,-0.080
3.601,-0.081
3.602,-0.082
3.603,-0.081
3.604,-0.080
3.605,-0.078
3.606,-0.077
3.607,-0.072
3.608,-0.073
3.609,-0.072
3.610,-0.072
3.611,-0.072
3.612,-0.074
3.613,-0.072
3.614,-0.075
3.615,-0.075
3.616,-0.078
3.617,-0.084
3.618,-0.084
3.619,-0.084
3.620,-0.089
3.621,-0.087
3.622,-0.086
3.623,-0.084
3.624,-0.082
3.625,-0.084
3.626,-0.083
3.627,-0.081
3.628,-0.080
3.629,-0.078
3.630,-0.081
3.631,-0.081
3.632,-0.081
3.633,-0.081
3.634,-0.082
3.635,-0.081
3.636,-0.080
3.637,-0.078
3.638,-0.077
3.639,-0.078
3.640,-0.079
3.641,-0.081
3.642,-0.084
3.643,-0.084
3.644,-0.077
3.645,-0.072
3.646,-0.075
3.647,-0.075
3.648,-0.074
3.649,-0.075
3.650,-0.076
3.651,-0.075
3.652,-0.078
3.653,-0.081
3.654,-0.081
3.655,-0.081
3.656,-0.080
3.657,-0.075
3.658,-0.075
3.659,-0.075
3.660,-0.077
3.661,-0.075
3.662,-0.075
3.663,-0.072
3.664,-0.069
3.665,-0.069
3.666,-0.070
3.667,-0.072
3.668,-0.071
3.669,-0.069
3.670,-0.072
3.671,-0.072
3.672,-0.069
3.673,-0.069
3.674,-0.069
3.675,-0.069
3.676,-0.069
3.677,-0.069
3.678,-0.070
3.679,-0.069
3.680,-0.069
3.681,-0.069
3.682,-0.075
3.683,-0.075
3.684,-0.071
3.685,-0.072
3.686,-0.069
3.687,-0.069
3.688,-0.072
3.689,-0.072
3.690,-0.070
3.691,-0.075
3.692,-0.069
3.693,-0.069
3.694,-0.072
3.695,-0.072
3.696,-0.073
3.697,-0.072
3.698,-0.071
3.699,-0.069
3.700,-0.072
3.701,-0.069
3.702,-0.066
3.703,-0.066
3.704,-0.069
3.705,-0.066
3.706,-0.066
3.707,-0.066
3.708,-0.061
3.709,-0.056
3.710,-0.056
3.711,-0.056
3.712,-0.056
3.713,-0.059
3.714,-0.061
3.715,-0.062
3.716,-0.061
3.717,-0.059
3.718,-0.055
3.719,-0.053
3.720,-0.053
3.721,-0.053
3.722,-0.051
3.723,-0.053
3.724,-0.052
3.725,-0.050
3.726,-0.051
3.727,-0.053
3.728,-0.053
3.729,-0.053
3.730,-0.050
3.731,-0.050
3.732,-0.049
3.733,-0.047
3.734,-0.045
3.735,-0.047
3.736,-0.049
3.737,-0.044
3.738,-0.045
3.739,-0.044
3.740,-0.041
3.741,-0.044
3.742,-0.039
3.743,-0.037
3.744,-0.036
3.745,-0.037
3.746,-0.039
3.747,-0.041
3.748,-0.037
3.749,-0.034
3.750,-0.034
3.751,-0.034
3.752,-0.032
3.753,-0.034
3.754,-0.036
3.755,-0.034
3.756,-0.036
3.757,-0.034
3.758,-0.034
3.759,-0.034
3.760,-0.031
3.761,-0.028
3.762,-0.029
3.763,-0.028
3.764,-0.027
3.765,-0.025
3.766,-0.022
3.767,-0.022
3.768,-0.023
3.769,-0.022
3.770,-0.019
3.771,-0.019
3.772,-0.019
3.773,-0.019
3.774,-0.016
3.775,-0.012
3.776,-0.012
3.777,-0.012
3.778,-0.012
3.779,-0.012
3.780,-0.009
3.781,-0.012
3.782,-0.008
3.783,-0.006
3.784,-0.003
3.785,0.000
3.786,0.002
3.787,0.003
3.788,0.002
3.789,0.003
3.790,0.003
3.791,0.003
3.792,0.005
3.793,0.003
3.794,0.003
3.795,0.003
3.796,0.004
3.797,0.006
3.798,0.011
3.799,0.009
3.800,0.013
3.801,0.016
3.802,0.013
3.803,0.009
3.804,0.011
3.805,0.013
3.806,0.014
3.807,0.016
3.808,0.016
3.809,0.019
3.810,0.020
3.811,0.025
3.812,0.025
3.813,0.025
3.814,0.022
3.815,0.022
3.816,0.025
3.817,0.025
3.818,0.028
3.819,0.031
3.820,0.034
3.821,0.041
3.822,0.036
3.823,0.034
3.824,0.034
3.825,0.034
3.826,0.039
3.827,0.041
3.828,0.042
3.829,0.047
3.830,0.046
3.831,0.047
3.832,0.049
3.833,0.047
3.834,0.046
3.835,0.047
3.836,0.051
3.837,0.053
3.838,0.056
3.839,0.063
3.840,0.061
3.841,0.063
3.842,0.064
3.843,0.066
3.844,0.066
3.845,0.066
3.846,0.069
3.847,0.069
3.848,0.069
3.849,0.069
3.850,0.072
3.851,0.078
3.852,0.081
3.853,0.081
3.854,0.081
3.855,0.084
3.856,0.083
3.857,0.081
3.858,0.081
3.859,0.078
3.860,0.079
3.861,0.081
3.862,0.083
3.863,0.081
3.864,0.078
3.865,0.078
3.866,0.083
3.867,0.084
3.868,0.084
3.869,0.084
3.870,0.080
3.871,0.075
3.872,0.072
3.873,0.069
3.874,0.067
3.875,0.069
3.876,0.067
3.877,0.066
3.878,0.066
3.879,0.066
3.880,0.061
3.881,0.063
3.882,0.059
3.883,0.056
3.884,0.052
3.885,0.050
3.886,0.051
3.887,0.050
3.888,0.048
3.889,0.050
3.890,0.047
3.891,0.047
3.892,0.043
3.893,0.034
3.894,0.030
3.895,0.028
3.896,0.029
3.897,0.028
3.898,0.024
3.899,0.022
3.900,0.020
3.901,0.019
3.902,0.017
3.903,0.016
3.904,0.014
3.905,0.013
3.906,0.009
3.907,0.009
3.908,0.011
3.909,0.013
3.910,0.009
3.911,0.006
3.912,0.006
3.913,0.003
3.914,0.003
3.915,0.003
3.916,0.004
3.917,0.003
3.918,0.006
3.919,0.003
3.920,-0.003
3.921,-0.006
3.922,-0.007
3.923,-0.009
3.924,-0.009
3.925,-0.009
3.926,-0.009
3.927,-0.009
3.928,-0.012
3.929,-0.012
3.930,-0.012
3.931,-0.016
3.932,-0.012
3.933,-0.012
3.934,-0.017
3.935,-0.022
3.936,-0.019
3.937,-0.016
3.938,-0.014
3.939,-0.016
3.940,-0.011
3.941,-0.012
3.942,-0.011
3.943,-0.016
3.944,-0.017
3.945,-0.019
3.946,-0.017
3.947,-0.016
3.948,-0.017
3.949,-0.016
3.950,-0.012
3.951,-0.009
3.952,-0.009
3.953,-0.009
3.954,-0.009
3.955,-0.009
3.956,-0.009
3.957,-0.009
3.958,-0.009
3.959,-0.006
3.960,-0.006
3.961,-0.006
3.962,-0.005
3.963,-0.003
3.964,-0.007
3.965,-0.006
3.966,-0.006
3.967,-0.006
3.968,-0.007
3.969,-0.009
3.970,-0.009
3.971,-0.009
3.972,-0.008
3.973,-0.006
3.974,-0.006
3.975,-0.006
3.976,-0.007
3.977,-0.009
3.978,-0.009
3.979,-0.009
3.980,-0.009
3.981,-0.009
3.982,-0.009
3.983,-0.009
3.984,-0.014
3.985,-0.012
3.986,-0.012
3.987,-0.012
3.988,-0.012
3.989,-0.012
3.990,-0.011
3.991,-0.009
3.992,-0.009
3.993,-0.009
3.994,-0.014
3.995,-0.019
3.996,-0.016
3.997,-0.016
3.998,-0.014
3.999,-0.019
4.000,-0.014
4.001,-0.012
4.002,-0.012
4.003,-0.012
4.004,-0.011
4.005,-0.012
4.006,-0.012
4.007,-0.016
4.008,-0.014
4.009,-0.009
4.010,-0.009
4.011,-0.009
4.012,-0.012
4.013,-0.012
4.014,-0.014
4.015,-0.016
4.016,-0.016
4.017,-0.016
4.018,-0.014
4.019,-0.012
4.020,-0.016
4.021,-0.016
4.022,-0.019
4.023,-0.022
4.024,-0.022
4.025,-0.025
4.026,-0.022
4.027,-0.019
4.028,-0.021
4.029,-0.016
4.030,-0.020
4.031,-0.019
4.032,-0.022
4.033,-0.022
4.034,-0.028
4.035,-0.028
4.036,-0.031
4.037,-0.028
4.038,-0.027
4.039,-0.019
4.040,-0.022
4.041,-0.022
4.042,-0.025
4.043,-0.028
4.044,-0.031
4.045,-0.031
4.046,-0.030
4.047,-0.031
4.048,-0.031
4.049,-0.031
4.050,-0.028
4.051,-0.031
4.052,-0.031
4.053,-0.031
4.054,-0.034
4.055,-0.034
4.056,-0.034
4.057,-0.034
4.058,-0.034
4.059,-0.034
4.060,-0.034
4.061,-0.034
4.062,-0.034
4.063,-0.034
4.064,-0.034
4.065,-0.037
4.066,-0.034
4.067,-0.034
4.068,-0.037
4.069,-0.037
4.070,-0.036
4.071,-0.034
4.072,-0.037
4.073,-0.037
4.074,-0.039
4.075,-0.044
4.076,-0.048
4.077,-0.050
4.078,-0.052
4.079,-0.050
4.080,-0.047
4.081,-0.044
4.082,-0.043
4.083,-0.041
4.084,-0.042
4.085,-0.044
4.086,-0.045
4.087,-0.047
4.088,-0.047
4.089,-0.050
4.090,-0.048
4.091,-0.050
4.092,-0.049
4.093,-0.047
4.094,-0.050
4.095,-0.050
4.096,-0.050
4.097,-0.050
4.098,-0.049
4.099,-0.050
4.100,-0.050
4.101,-0.050
4.102,-0.049
4.103,-0.044
4.104,-0.042
4.105,-0.044
4.106,-0.044
4.107,-0.050
4.108,-0.051
4.109,-0.050
4.110,-0.053
4.111,-0.050
4.112,-0.049
4.113,-0.050
4.114,-0.050
4.115,-0.050
4.116,-0.047
4.117,-0.044
4.118,-0.043
4.119,-0.044
4.120,-0.047
4.121,-0.050
4.122,-0.051
4.123,-0.053
4.124,-0.051
4.125,-0.050
4.126,-0.053
4.127,-0.053
4.128,-0.053
4.129,-0.053
4.130,-0.052
4.131,-0.053
4.132,-0.052
4.133,-0.050
4.134,-0.051
4.135,-0.053
4.136,-0.053
4.137,-0.053
4.138,-0.053
4.139,-0.053
4.140,-0.054
4.141,-0.056
4.142,-0.055
4.143,-0.053
4.144,-0.053
4.145,-0.053
4.146,-0.053
4.147,-0.053
4.148,-0.052
4.149,-0.050
4.150,-0.053
4.151,-0.053
4.152,-0.050
4.153,-0.053
4.154,-0.053
4.155,-0.053
4.156,-0.052
4.157,-0.050
4.158,-0.054
4.159,-0.053
4.160,-0.050
4.161,-0.050
4.162,-0.053
4.163,-0.053
4.164,-0.054
4.165,-0.056
4.166,-0.057
4.167,-0.059
4.168,-0.061
4.169,-0.062
4.170,-0.062
4.171,-0.062
4.172,-0.061
4.173,-0.059
4.174,-0.061
4.175,-0.059
4.176,-0.059
4.177,-0.059
4.178,-0.056
4.179,-0.056
4.180,-0.055
4.181,-0.056
4.182,-0.056
4.183,-0.056
4.184,-0.056
4.185,-0.056
4.186,-0.056
4.187,-0.056
4.188,-0.062
4.189,-0.062
4.190,-0.062
4.191,-0.062
4.192,-0.062
4.193,-0.062
4.194,-0.062
4.195,-0.062
4.196,-0.059
4.197,-0.059
4.198,-0.058
4.199,-0.059
4.200,-0.059
4.201,-0.059
4.202,-0.059
4.203,-0.056
4.204,-0.061
4.205,-0.059
4.206,-0.056
4.207,-0.056
4.208,-0.057
4.209,-0.059
4.210,-0.059
4.211,-0.059
4.212,-0.062
4.213,-0.066
4.214,-0.064
4.215,-0.066
4.216,-0.066
4.217,-0.062
4.218,-0.058
4.219,-0.056
4.220,-0.056
4.221,-0.059
4.222,-0.059
4.223,-0.059
4.224,-0.057
4.225,-0.059
4.226,-0.059
4.227,-0.059
4.228,-0.061
4.229,-0.066
4.230,-0.066
4.231,-0.066
4.232,-0.062
4.233,-0.059
4.234,-0.058
4.235,-0.056
4.236,-0.053
4.237,-0.056
4.238,-0.056
4.239,-0.056
4.240,-0.056
4.241,-0.056
4.242,-0.056
4.243,-0.056
4.244,-0.057
4.245,-0.059
4.246,-0.059
4.247,-0.059
4.248,-0.056
4.249,-0.059
4.250,-0.061
4.251,-0.059
4.252,-0.057
4.253,-0.059
4.254,-0.058
4.255,-0.053
4.256,-0.054
4.257,-0.053
4.258,-0.050
4.259,-0.044
4.260,-0.039
4.261,-0.034
4.262,-0.031
4.263,-0.022
4.264,-0.012
4.265,-0.006
4.266,-0.002
4.267,0.000
4.268,0.002
4.269,0.000
4.270,0.003
4.271,0.006
4.272,0.008
4.273,0.009
4.274,0.013
4.275,0.016
4.276,0.019
4.277,0.016
4.278,0.017
4.279,0.022
4.280,0.023
4.281,0.025
4.282,0.021
4.283,0.019
4.284,0.018
4.285,0.016
4.286,0.016
4.287,0.019
4.288,0.026
4.289,0.034
4.290,0.038
4.291,0.041
4.292,0.044
4.293,0.047
4.294,0.050
4.295,0.053
4.296,0.059
4.297,0.069
4.298,0.075
4.299,0.084
4.300,0.089
4.301,0.087
4.302,0.084
4.303,0.084
4.304,0.086
4.305,0.084
4.306,0.079
4.307,0.075
4.308,0.069
4.309,0.066
4.310,0.061
4.311,0.053
4.312,0.048
4.313,0.044
4.314,0.042
4.315,0.044
4.316,0.038
4.317,0.034
4.318,0.030
4.319,0.022
4.320,0.014
4.321,0.006
4.322,0.000
4.323,-0.006
4.324,-0.017
4.325,-0.025
4.326,-0.027
4.327,-0.025
4.328,-0.029
4.329,-0.031
4.330,-0.027
4.331,-0.028
4.332,-0.034
4.333,-0.041
4.334,-0.043
4.335,-0.047
4.336,-0.048
4.337,-0.050
4.338,-0.053
4.339,-0.053
4.340,-0.059
4.341,-0.066
4.342,-0.071
4.343,-0.069
4.344,-0.074
4.345,-0.075
4.346,-0.072
4.347,-0.072
4.348,-0.071
4.349,-0.072
4.350,-0.070
4.351,-0.072
4.352,-0.069
4.353,-0.066
4.354,-0.072
4.355,-0.075
4.356,-0.076
4.357,-0.075
4.358,-0.075
4.359,-0.075
4.360,-0.075
4.361,-0.078
4.362,-0.079
4.363,-0.084
4.364,-0.084
4.365,-0.084
4.366,-0.084
4.367,-0.084
4.368,-0.086
4.369,-0.084
4.370,-0.084
4.371,-0.087
4.372,-0.086
4.373,-0.091
4.374,-0.086
4.375,-0.084
4.376,-0.084
4.377,-0.084
4.378,-0.087
4.379,-0.087
4.380,-0.084
4.381,-0.084
4.382,-0.087
4.383,-0.087
4.384,-0.089
4.385,-0.091
4.386,-0.087
4.387,-0.084
4.388,-0.084
4.389,-0.084
4.390,-0.086
4.391,-0.084
4.392,-0.091
4.393,-0.094
4.394,-0.097
4.395,-0.103
4.396,-0.114
4.397,-0.122
4.398,-0.128
4.399,-0.128
4.400,-0.136
4.401,-0.134
4.402,-0.131
4.403,-0.128
4.404,-0.123
4.405,-0.106
4.406,-0.092
4.407,-0.072
4.408,-0.044
4.409,-0.009
4.410,0.028
4.411,0.069
4.412,0.116
4.413,0.166
4.414,0.221
4.415,0.272
4.416,0.328
4.417,0.381
4.418,0.439
4.419,0.503
4.420,0.574
4.421,0.644
4.422,0.717
4.423,0.784
4.424,0.841
4.425,0.894
4.426,0.942
4.427,0.988
4.428,1.029
4.429,1.053
4.430,1.070
4.431,1.069
4.432,1.048
4.433,1.000
4.434,0.928
4.435,0.847
4.436,0.771
4.437,0.697
4.438,0.627
4.439,0.559
4.440,0.491
4.441,0.422
4.442,0.353
4.443,0.288
4.444,0.229
4.445,0.169
4.446,0.099
4.447,0.038
4.448,-0.006
4.449,-0.031
4.450,-0.053
4.451,-0.059
4.452,-0.059
4.453,-0.059
4.454,-0.059
4.455,-0.066
4.456,-0.075
4.457,-0.081
4.458,-0.091
4.459,-0.100
4.460,-0.112
4.461,-0.116
4.462,-0.119
4.463,-0.122
4.464,-0.123
4.465,-0.122
4.466,-0.120
4.467,-0.119
4.468,-0.116
4.469,-0.116
4.470,-0.111
4.471,-0.106
4.472,-0.100
4.473,-0.091
4.474,-0.087
4.475,-0.081
4.476,-0.079
4.477,-0.078
4.478,-0.072
4.479,-0.069
4.480,-0.066
4.481,-0.066
4.482,-0.062
4.483,-0.062
4.484,-0.064
4.485,-0.062
4.486,-0.072
4.487,-0.078
4.488,-0.079
4.489,-0.084
4.490,-0.086
4.491,-0.084
4.492,-0.083
4.493,-0.081
4.494,-0.081
4.495,-0.078
4.496,-0.078
4.497,-0.075
4.498,-0.074
4.499,-0.072
4.500,-0.075
4.501,-0.075
4.502,-0.078
4.503,-0.078
4.504,-0.078
4.505,-0.081
4.506,-0.080
4.507,-0.078
4.508,-0.084
4.509,-0.084
4.510,-0.083
4.511,-0.081
4.512,-0.078
4.513,-0.078
4.514,-0.078
4.515,-0.078
4.516,-0.077
4.517,-0.075
4.518,-0.079
4.519,-0.081
4.520,-0.081
4.521,-0.081
4.522,-0.081
4.523,-0.078
4.524,-0.078
4.525,-0.078
4.526,-0.078
4.527,-0.081
4.528,-0.082
4.529,-0.084
4.530,-0.086
4.531,-0.084
4.532,-0.080
4.533,-0.078
4.534,-0.081
4.535,-0.081
4.536,-0.080
4.537,-0.081
4.538,-0.082
4.539,-0.081
4.540,-0.081
4.541,-0.081
4.542,-0.078
4.543,-0.075
4.544,-0.076
4.545,-0.075
4.546,-0.075
4.547,-0.075
4.548,-0.077
4.549,-0.075
4.550,-0.076
4.551,-0.075
4.552,-0.072
4.553,-0.072
4.554,-0.072
4.555,-0.072
4.556,-0.071
4.557,-0.069
4.558,-0.072
4.559,-0.072
4.560,-0.069
4.561,-0.069
4.562,-0.069
4.563,-0.069
4.564,-0.069
4.565,-0.069
4.566,-0.070
4.567,-0.069
4.568,-0.067
4.569,-0.066
4.570,-0.069
4.571,-0.066
4.572,-0.062
4.573,-0.066
4.574,-0.062
4.575,-0.062
4.576,-0.066
4.577,-0.066
4.578,-0.064
4.579,-0.069
4.580,-0.062
4.581,-0.062
4.582,-0.066
4.583,-0.066
4.584,-0.066
4.585,-0.062
4.586,-0.062
4.587,-0.062
4.588,-0.066
4.589,-0.062
4.590,-0.061
4.591,-0.062
4.592,-0.066
4.593,-0.062
4.594,-0.059
4.595,-0.056
4.596,-0.056
4.597,-0.056
4.598,-0.056
4.599,-0.056
4.600,-0.054
4.601,-0.056
4.602,-0.055
4.603,-0.053
4.604,-0.053
4.605,-0.053
4.606,-0.050
4.607,-0.050
4.608,-0.050
4.609,-0.050
4.610,-0.048
4.611,-0.050
4.612,-0.050
4.613,-0.050
4.614,-0.050
4.615,-0.050
4.616,-0.050
4.617,-0.050
4.618,-0.048
4.619,-0.050
4.620,-0.047
4.621,-0.044
4.622,-0.042
4.623,-0.044
4.624,-0.048
4.625,-0.047
4.626,-0.047
4.627,-0.044
4.628,-0.039
4.629,-0.041
4.630,-0.037
4.631,-0.037
4.632,-0.036
4.633,-0.037
4.634,-0.036
4.635,-0.034
4.636,-0.034
4.637,-0.034
4.638,-0.034
4.639,-0.034
4.640,-0.031
4.641,-0.031
4.642,-0.030
4.643,-0.025
4.644,-0.025
4.645,-0.022
4.646,-0.022
4.647,-0.022
4.648,-0.023
4.649,-0.025
4.650,-0.024
4.651,-0.019
4.652,-0.019
4.653,-0.019
4.654,-0.016
4.655,-0.016
4.656,-0.017
4.657,-0.016
4.658,-0.014
4.659,-0.016
4.660,-0.014
4.661,-0.012
4.662,-0.008
4.663,-0.003
4.664,-0.003
4.665,-0.003
4.666,-0.003
4.667,-0.003
4.668,0.000
4.669,-0.003
4.670,0.000
4.671,0.000
4.672,0.001
4.673,0.003
4.674,0.005
4.675,0.006
4.676,0.003
4.677,0.003
4.678,0.003
4.679,0.003
4.680,0.005
4.681,0.003
4.682,0.008
4.683,0.013
4.684,0.016
4.685,0.019
4.686,0.024
4.687,0.022
4.688,0.021
4.689,0.019
4.690,0.018
4.691,0.016
4.692,0.018
4.693,0.019
4.694,0.022
4.695,0.025
4.696,0.026
4.697,0.031
4.698,0.030
4.699,0.031
4.700,0.031
4.701,0.031
4.702,0.028
4.703,0.028
4.704,0.033
4.705,0.034
4.706,0.036
4.707,0.038
4.708,0.036
4.709,0.038
4.710,0.038
4.711,0.041
4.712,0.041
4.713,0.041
4.714,0.043
4.715,0.041
4.716,0.047
4.717,0.056
4.718,0.055
4.719,0.056
4.720,0.058
4.721,0.056
4.722,0.056
4.723,0.059
4.724,0.063
4.725,0.063
4.726,0.063
4.727,0.066
4.728,0.067
4.729,0.072
4.730,0.074
4.731,0.075
4.732,0.076
4.733,0.078
4.734,0.080
4.735,0.078
4.736,0.078
4.737,0.078
4.738,0.079
4.739,0.084
4.740,0.087
4.741,0.087
4.742,0.091
4.743,0.097
4.744,0.097
4.745,0.097
4.746,0.097
4.747,0.094
4.748,0.091
4.749,0.087
4.750,0.091
4.751,0.091
4.752,0.087
4.753,0.087
4.754,0.089
4.755,0.087
4.756,0.086
4.757,0.084
4.758,0.081
4.759,0.078
4.760,0.078
4.761,0.078
4.762,0.076
4.763,0.078
4.764,0.075
4.765,0.072
4.766,0.073
4.767,0.075
4.768,0.069
4.769,0.069
4.770,0.066
4.771,0.063
4.772,0.059
4.773,0.059
4.774,0.063
4.775,0.063
4.776,0.056
4.777,0.053
4.778,0.051
4.779,0.053
4.780,0.051
4.781,0.047
4.782,0.041
4.783,0.038
4.784,0.039
4.785,0.038
4.786,0.033
4.787,0.031
4.788,0.031
4.789,0.031
4.790,0.028
4.791,0.025
4.792,0.025
4.793,0.025
4.794,0.019
4.795,0.016
4.796,0.013
4.797,0.009
4.798,0.009
4.799,0.009
4.800,0.011
4.801,0.009
4.802,0.008
4.803,0.006
4.804,0.008
4.805,0.006
4.806,0.008
4.807,0.003
4.808,0.000
4.809,0.000
4.810,0.000
4.811,0.000
4.812,-0.003
4.813,-0.006
4.814,-0.006
4.815,-0.006
4.816,-0.009
4.817,-0.009
4.818,-0.008
4.819,-0.009
4.820,-0.007
4.821,-0.009
4.822,-0.009
4.823,-0.009
4.824,-0.009
4.825,-0.009
4.826,-0.009
4.827,-0.012
4.828,-0.009
4.829,-0.012
4.830,-0.009
4.831,-0.012
4.832,-0.012
4.833,-0.012
4.834,-0.012
4.835,-0.012
4.836,-0.014
4.837,-0.012
4.838,-0.012
4.839,-0.012
4.840,-0.009
4.841,-0.006
4.842,-0.006
4.843,-0.006
4.844,-0.007
4.845,-0.009
4.846,-0.009
4.847,-0.006
4.848,-0.002
4.849,0.003
4.850,0.003
4.851,0.003
4.852,0.000
4.853,0.003
4.854,0.003
4.855,0.003
4.856,0.003
4.857,0.003
4.858,0.003
4.859,0.003
4.860,0.002
4.861,0.000
4.862,0.000
4.863,0.000
4.864,0.000
4.865,0.000
4.866,0.001
4.867,0.003
4.868,0.003
4.869,0.003
4.870,0.003
4.871,0.003
4.872,0.000
4.873,0.003
4.874,0.003
4.875,0.003
4.876,0.003
4.877,0.003
4.878,0.002
4.879,0.000
4.880,0.000
4.881,0.000
4.882,0.000
4.883,0.000
4.884,0.001
4.885,0.000
4.886,0.003
4.887,0.000
4.888,0.003
4.889,0.003
4.890,0.003
4.891,0.003
4.892,0.003
4.893,0.000
4.894,0.001
4.895,0.000
4.896,-0.004
4.897,-0.006
4.898,-0.005
4.899,-0.003
4.900,-0.005
4.901,-0.003
4.902,-0.006
4.903,-0.009
4.904,-0.009
4.905,-0.009
4.906,-0.009
4.907,-0.009
4.908,-0.012
4.909,-0.012
4.910,-0.012
4.911,-0.012
4.912,-0.011
4.913,-0.012
4.914,-0.011
4.915,-0.009
4.916,-0.012
4.917,-0.009
4.918,-0.012
4.919,-0.009
4.920,-0.012
4.921,-0.012
4.922,-0.016
4.923,-0.012
4.924,-0.016
4.925,-0.012
4.926,-0.016
4.927,-0.012
4.928,-0.022
4.929,-0.028
4.930,-0.028
4.931,-0.028
4.932,-0.030
4.933,-0.028
4.934,-0.025
4.935,-0.025
4.936,-0.025
4.937,-0.025
4.938,-0.022
4.939,-0.025
4.940,-0.024
4.941,-0.022
4.942,-0.025
4.943,-0.025
4.944,-0.026
4.945,-0.028
4.946,-0.028
4.947,-0.028
4.948,-0.028
4.949,-0.028
4.950,-0.028
4.951,-0.028
4.952,-0.027
4.953,-0.028
4.954,-0.028
4.955,-0.031
4.956,-0.033
4.957,-0.031
4.958,-0.031
4.959,-0.031
4.960,-0.033
4.961,-0.031
4.962,-0.031
4.963,-0.034
4.964,-0.034
4.965,-0.031
4.966,-0.033
4.967,-0.031
4.968,-0.032
4.969,-0.034
4.970,-0.036
4.971,-0.037
4.972,-0.037
4.973,-0.037
4.974,-0.037
4.975,-0.037
4.976,-0.036
4.977,-0.037
4.978,-0.034
4.979,-0.034
4.980,-0.037
4.981,-0.041
4.982,-0.044
4.983,-0.044
4.984,-0.041
4.985,-0.037
4.986,-0.037
4.987,-0.041
4.988,-0.041
4.989,-0.041
4.990,-0.042
4.991,-0.041
4.992,-0.036
4.993,-0.034
4.994,-0.034
4.995,-0.041
4.996,-0.044
4.997,-0.044
4.998,-0.048
4.999,-0.047
5.000,-0.046
5.001,-0.047
5.002,-0.047
5.003,-0.047
5.004,-0.043
5.005,-0.037
5.006,-0.037
5.007,-0.041
5.008,-0.042
5.009,-0.044
5.010,-0.044
5.011,-0.044
5.012,-0.041
5.013,-0.037
5.014,-0.042
5.015,-0.044
5.016,-0.047
5.017,-0.050
5.018,-0.047
5.019,-0.047
5.020,-0.047
5.021,-0.047
5.022,-0.048
5.023,-0.050
5.024,-0.049
5.025,-0.047
5.026,-0.046
5.027,-0.044
5.028,-0.044
5.029,-0.044
5.030,-0.045
5.031,-0.047
5.032,-0.046
5.033,-0.044
5.034,-0.044
5.035,-0.044
5.036,-0.045
5.037,-0.047
5.038,-0.051
5.039,-0.053
5.040,-0.049
5.041,-0.050
5.042,-0.050
5.043,-0.050
5.044,-0.049
5.045,-0.047
5.046,-0.051
5.047,-0.050
5.048,-0.047
5.049,-0.047
5.050,-0.050
5.051,-0.050
5.052,-0.050
5.053,-0.050
5.054,-0.051
5.055,-0.053
5.056,-0.053
5.057,-0.053
5.058,-0.053
5.059,-0.053
5.060,-0.053
5.061,-0.053
5.062,-0.056
5.063,-0.056
5.064,-0.055
5.065,-0.053
5.066,-0.050
5.067,-0.050
5.068,-0.049
5.069,-0.050
5.070,-0.053
5.071,-0.056
5.072,-0.055
5.073,-0.053
5.074,-0.053
5.075,-0.053
5.076,-0.056
5.077,-0.053
5.078,-0.053
5.079,-0.053
5.080,-0.052
5.081,-0.050
5.082,-0.050
5.083,-0.050
5.084,-0.051
5.085,-0.053
5.086,-0.052
5.087,-0.050
5.088,-0.051
5.089,-0.050
5.090,-0.049
5.091,-0.047
5.092,-0.050
5.093,-0.050
5.094,-0.054
5.095,-0.059
5.096,-0.055
5.097,-0.056
5.098,-0.053
5.099,-0.053
5.100,-0.055
5.101,-0.053
5.102,-0.053
5.103,-0.053
5.104,-0.053
5.105,-0.053
5.106,-0.053
5.107,-0.053
5.108,-0.056
5.109,-0.056
5.110,-0.053
5.111,-0.050
5.112,-0.050
5.113,-0.050
5.114,-0.052
5.115,-0.050
5.116,-0.051
5.117,-0.050
5.118,-0.050
5.119,-0.050
5.120,-0.049
5.121,-0.047
5.122,-0.050
5.123,-0.050
5.124,-0.050
5.125,-0.050
5.126,-0.050
5.127,-0.050
5.128,-0.051
5.129,-0.050
5.130,-0.052
5.131,-0.050
5.132,-0.050
5.133,-0.050
5.134,-0.050
5.135,-0.050
5.136,-0.050
5.137,-0.050
5.138,-0.050
5.139,-0.050
5.140,-0.051
5.141,-0.050
5.142,-0.053
5.143,-0.053
5.144,-0.051
5.145,-0.050
5.146,-0.050
5.147,-0.050
5.148,-0.048
5.149,-0.050
5.150,-0.043
5.151,-0.034
5.152,-0.032
5.153,-0.031
5.154,-0.021
5.155,-0.012
5.156,-0.004
5.157,0.003
5.158,0.006
5.159,0.006
5.160,0.009
5.161,0.016
5.162,0.017
5.163,0.022
5.164,0.024
5.165,0.025
5.166,0.027
5.167,0.028
5.168,0.031
5.169,0.034
5.170,0.034
5.171,0.038
5.172,0.041
5.173,0.041
5.174,0.041
5.175,0.038
5.176,0.036
5.177,0.034
5.178,0.034
5.179,0.034
5.180,0.036
5.181,0.041
5.182,0.048
5.183,0.056
5.184,0.061
5.185,0.063
5.186,0.066
5.187,0.066
5.188,0.067
5.189,0.072
5.190,0.078
5.191,0.084
5.192,0.093
5.193,0.097
5.194,0.098
5.195,0.097
5.196,0.094
5.197,0.091
5.198,0.091
5.199,0.087
5.200,0.083
5.201,0.078
5.202,0.075
5.203,0.072
5.204,0.066
5.205,0.059
5.206,0.052
5.207,0.047
5.208,0.047
5.209,0.041
5.210,0.038
5.211,0.034
5.212,0.028
5.213,0.022
5.214,0.016
5.215,0.009
5.216,0.004
5.217,-0.003
5.218,-0.009
5.219,-0.012
5.220,-0.012
5.221,-0.016
5.222,-0.017
5.223,-0.016
5.224,-0.017
5.225,-0.019
5.226,-0.022
5.227,-0.025
5.228,-0.034
5.229,-0.037
5.230,-0.036
5.231,-0.037
5.232,-0.037
5.233,-0.041
5.234,-0.043
5.235,-0.047
5.236,-0.044
5.237,-0.047
5.238,-0.053
5.239,-0.056
5.240,-0.059
5.241,-0.059
5.242,-0.062
5.243,-0.059
5.244,-0.059
5.245,-0.059
5.246,-0.059
5.247,-0.062
5.248,-0.062
5.249,-0.062
5.250,-0.061
5.251,-0.062
5.252,-0.061
5.253,-0.059
5.254,-0.064
5.255,-0.066
5.256,-0.069
5.257,-0.069
5.258,-0.069
5.259,-0.069
5.260,-0.069
5.261,-0.069
5.262,-0.064
5.263,-0.062
5.264,-0.067
5.265,-0.066
5.266,-0.070
5.267,-0.069
5.268,-0.069
5.269,-0.069
5.270,-0.066
5.271,-0.062
5.272,-0.061
5.273,-0.062
5.274,-0.064
5.275,-0.066
5.276,-0.066
5.277,-0.066
5.278,-0.067
5.279,-0.069
5.280,-0.070
5.281,-0.072
5.282,-0.072
5.283,-0.075
5.284,-0.072
5.285,-0.075
5.286,-0.077
5.287,-0.081
5.288,-0.091
5.289,-0.100
5.290,-0.111
5.291,-0.122
5.292,-0.125
5.293,-0.128
5.294,-0.119
5.295,-0.109
5.296,-0.100
5.297,-0.091
5.298,-0.073
5.299,-0.056
5.300,-0.025
5.301,0.006
5.302,0.038
5.303,0.075
5.304,0.120
5.305,0.172
5.306,0.222
5.307,0.275
5.308,0.327
5.309,0.378
5.310,0.422
5.311,0.472
5.312,0.531
5.313,0.600
5.314,0.675
5.315,0.747
5.316,0.812
5.317,0.869
5.318,0.920
5.319,0.969
5.320,1.025
5.321,1.069
5.322,1.088
5.323,1.094
5.324,1.091
5.325,1.072
5.326,1.016
5.327,0.950
5.328,0.868
5.329,0.791
5.330,0.711
5.331,0.634
5.332,0.569
5.333,0.503
5.334,0.436
5.335,0.366
5.336,0.300
5.337,0.238
5.338,0.163
5.339,0.094
5.340,0.036
5.341,-0.006
5.342,-0.026
5.343,-0.044
5.344,-0.039
5.345,-0.034
5.346,-0.025
5.347,-0.022
5.348,-0.027
5.349,-0.034
5.350,-0.047
5.351,-0.059
5.352,-0.070
5.353,-0.081
5.354,-0.086
5.355,-0.094
5.356,-0.100
5.357,-0.103
5.358,-0.101
5.359,-0.100
5.360,-0.094
5.361,-0.087
5.362,-0.087
5.363,-0.081
5.364,-0.074
5.365,-0.072
5.366,-0.066
5.367,-0.059
5.368,-0.054
5.369,-0.053
5.370,-0.051
5.371,-0.050
5.372,-0.049
5.373,-0.047
5.374,-0.051
5.375,-0.053
5.376,-0.057
5.377,-0.062
5.378,-0.061
5.379,-0.066
5.380,-0.067
5.381,-0.066
5.382,-0.067
5.383,-0.066
5.384,-0.064
5.385,-0.066
5.386,-0.064
5.387,-0.062
5.388,-0.061
5.389,-0.062
5.390,-0.061
5.391,-0.062
5.392,-0.061
5.393,-0.062
5.394,-0.062
5.395,-0.066
5.396,-0.066
5.397,-0.066
5.398,-0.069
5.399,-0.069
5.400,-0.067
5.401,-0.069
5.402,-0.067
5.403,-0.069
5.404,-0.069
5.405,-0.066
5.406,-0.066
5.407,-0.066
5.408,-0.066
5.409,-0.066
5.410,-0.066
5.411,-0.069
5.412,-0.069
5.413,-0.069
5.414,-0.069
5.415,-0.069
5.416,-0.067
5.417,-0.069
5.418,-0.069
5.419,-0.069
5.420,-0.071
5.421,-0.069
5.422,-0.069
5.423,-0.069
5.424,-0.067
5.425,-0.066
5.426,-0.066
5.427,-0.069
5.428,-0.069
5.429,-0.069
5.430,-0.072
5.431,-0.072
5.432,-0.070
5.433,-0.072
5.434,-0.066
5.435,-0.059
5.436,-0.059
5.437,-0.059
5.438,-0.057
5.439,-0.059
5.440,-0.061
5.441,-0.066
5.442,-0.067
5.443,-0.069
5.444,-0.064
5.445,-0.059
5.446,-0.058
5.447,-0.056
5.448,-0.056
5.449,-0.056
5.450,-0.057
5.451,-0.062
5.452,-0.064
5.453,-0.062
5.454,-0.062
5.455,-0.062
5.456,-0.064
5.457,-0.066
5.458,-0.067
5.459,-0.069
5.460,-0.061
5.461,-0.056
5.462,-0.055
5.463,-0.056
5.464,-0.054
5.465,-0.053
5.466,-0.055
5.467,-0.050
5.468,-0.049
5.469,-0.050
5.470,-0.051
5.471,-0.050
5.472,-0.056
5.473,-0.053
5.474,-0.050
5.475,-0.050
5.476,-0.050
5.477,-0.050
5.478,-0.048
5.479,-0.050
5.480,-0.049
5.481,-0.050
5.482,-0.050
5.483,-0.050
5.484,-0.049
5.485,-0.050
5.486,-0.048
5.487,-0.050
5.488,-0.050
5.489,-0.050
5.490,-0.050
5.491,-0.050
5.492,-0.051
5.493,-0.050
5.494,-0.050
5.495,-0.050
5.496,-0.050
5.497,-0.050
5.498,-0.049
5.499,-0.044
5.500,-0.043
5.501,-0.041
5.502,-0.042
5.503,-0.041
5.504,-0.041
5.505,-0.041
5.506,-0.041
5.507,-0.041
5.508,-0.041
5.509,-0.041
5.510,-0.039
5.511,-0.034
5.512,-0.036
5.513,-0.037
5.514,-0.039
5.515,-0.037
5.516,-0.036
5.517,-0.037
5.518,-0.033
5.519,-0.031
5.520,-0.029
5.521,-0.028
5.522,-0.032
5.523,-0.031
5.524,-0.030
5.525,-0.025
5.526,-0.025
5.527,-0.025
5.528,-0.026
5.529,-0.028
5.530,-0.029
5.531,-0.031
5.532,-0.030
5.533,-0.025
5.534,-0.021
5.535,-0.016
5.536,-0.014
5.537,-0.016
5.538,-0.012
5.539,-0.012
5.540,-0.014
5.541,-0.016
5.542,-0.014
5.543,-0.012
5.544,-0.011
5.545,-0.012
5.546,-0.014
5.547,-0.012
5.548,-0.014
5.549,-0.016
5.550,-0.008
5.551,0.000
5.552,0.001
5.553,0.003
5.554,0.000
5.555,0.000
5.556,0.004
5.557,0.006
5.558,0.006
5.559,0.006
5.560,0.008
5.561,0.013
5.562,0.006
5.563,0.006
5.564,0.006
5.565,0.006
5.566,0.005
5.567,0.006
5.568,0.013
5.569,0.016
5.570,0.020
5.571,0.022
5.572,0.023
5.573,0.028
5.574,0.027
5.575,0.025
5.576,0.029
5.577,0.034
5.578,0.031
5.579,0.034
5.580,0.033
5.581,0.031
5.582,0.031
5.583,0.031
5.584,0.030
5.585,0.031
5.586,0.033
5.587,0.031
5.588,0.031
5.589,0.031
5.590,0.036
5.591,0.038
5.592,0.039
5.593,0.038
5.594,0.038
5.595,0.038
5.596,0.041
5.597,0.044
5.598,0.044
5.599,0.044
5.600,0.045
5.601,0.047
5.602,0.053
5.603,0.056
5.604,0.058
5.605,0.056
5.606,0.055
5.607,0.056
5.608,0.056
5.609,0.056
5.610,0.059
5.611,0.059
5.612,0.063
5.613,0.066
5.614,0.067
5.615,0.069
5.616,0.069
5.617,0.069
5.618,0.072
5.619,0.075
5.620,0.078
5.621,0.078
5.622,0.080
5.623,0.081
5.624,0.083
5.625,0.081
5.626,0.084
5.627,0.091
5.628,0.089
5.629,0.087
5.630,0.086
5.631,0.084
5.632,0.086
5.633,0.087
5.634,0.087
5.635,0.087
5.636,0.089
5.637,0.087
5.638,0.089
5.639,0.091
5.640,0.089
5.641,0.091
5.642,0.089
5.643,0.091
5.644,0.092
5.645,0.091
5.646,0.092
5.647,0.094
5.648,0.089
5.649,0.087
5.650,0.089
5.651,0.087
5.652,0.084
5.653,0.084
5.654,0.086
5.655,0.084
5.656,0.080
5.657,0.072
5.658,0.069
5.659,0.069
5.660,0.068
5.661,0.059
5.662,0.059
5.663,0.056
5.664,0.054
5.665,0.053
5.666,0.054
5.667,0.056
5.668,0.053
5.669,0.050
5.670,0.050
5.671,0.047
5.672,0.046
5.673,0.041
5.674,0.036
5.675,0.034
5.676,0.033
5.677,0.031
5.678,0.028
5.679,0.025
5.680,0.024
5.681,0.019
5.682,0.014
5.683,0.009
5.684,0.008
5.685,0.009
5.686,0.011
5.687,0.009
5.688,0.009
5.689,0.009
5.690,0.011
5.691,0.009
5.692,0.005
5.693,0.003
5.694,0.000
5.695,0.000
5.696,0.001
5.697,0.003
5.698,0.000
5.699,0.003
5.700,-0.003
5.701,-0.009
5.702,-0.008
5.703,-0.006
5.704,-0.006
5.705,-0.006
5.706,-0.007
5.707,-0.009
5.708,-0.008
5.709,-0.009
5.710,-0.008
5.711,-0.006
5.712,-0.011
5.713,-0.009
5.714,-0.011
5.715,-0.012
5.716,-0.012
5.717,-0.012
5.718,-0.011
5.719,-0.009
5.720,-0.012
5.721,-0.009
5.722,-0.012
5.723,-0.009
5.724,-0.012
5.725,-0.012
5.726,-0.012
5.727,-0.012
5.728,-0.014
5.729,-0.016
5.730,-0.012
5.731,-0.012
5.732,-0.012
5.733,-0.012
5.734,-0.009
5.735,-0.006
5.736,-0.011
5.737,-0.016
5.738,-0.016
5.739,-0.016
5.740,-0.012
5.741,-0.012
5.742,-0.012
5.743,-0.012
5.744,-0.012
5.745,-0.016
5.746,-0.012
5.747,-0.012
5.748,-0.012
5.749,-0.012
5.750,-0.012
5.751,-0.012
5.752,-0.012
5.753,-0.012
5.754,-0.012
5.755,-0.012
5.756,-0.011
5.757,-0.009
5.758,-0.009
5.759,-0.009
5.760,-0.009
5.761,-0.009
5.762,-0.011
5.763,-0.012
5.764,-0.012
5.765,-0.016
5.766,-0.011
5.767,-0.009
5.768,-0.009
5.769,-0.009
5.770,-0.009
5.771,-0.009
5.772,-0.011
5.773,-0.012
5.774,-0.012
5.775,-0.012
5.776,-0.012
5.777,-0.012
5.778,-0.014
5.779,-0.009
5.780,-0.012
5.781,-0.009
5.782,-0.011
5.783,-0.012
5.784,-0.011
5.785,-0.009
5.786,-0.012
5.787,-0.012
5.788,-0.016
5.789,-0.016
5.790,-0.012
5.791,-0.012
5.792,-0.012
5.793,-0.016
5.794,-0.016
5.795,-0.016
5.796,-0.017
5.797,-0.019
5.798,-0.019
5.799,-0.019
5.800,-0.019
5.801,-0.022
5.802,-0.021
5.803,-0.019
5.804,-0.016
5.805,-0.012
5.806,-0.017
5.807,-0.019
5.808,-0.020
5.809,-0.025
5.810,-0.021
5.811,-0.022
5.812,-0.019
5.813,-0.022
5.814,-0.021
5.815,-0.022
5.816,-0.019
5.817,-0.022
5.818,-0.019
5.819,-0.022
5.820,-0.020
5.821,-0.025
5.822,-0.025
5.823,-0.025
5.824,-0.024
5.825,-0.025
5.826,-0.025
5.827,-0.025
5.828,-0.028
5.829,-0.028
5.830,-0.029
5.831,-0.028
5.832,-0.031
5.833,-0.031
5.834,-0.030
5.835,-0.031
5.836,-0.031
5.837,-0.031
5.838,-0.030
5.839,-0.028
5.840,-0.029
5.841,-0.031
5.842,-0.031
5.843,-0.031
5.844,-0.031
5.845,-0.031
5.846,-0.036
5.847,-0.034
5.848,-0.033
5.849,-0.034
5.850,-0.034
5.851,-0.034
5.852,-0.033
5.853,-0.034
5.854,-0.036
5.855,-0.037
5.856,-0.041
5.857,-0.041
5.858,-0.039
5.859,-0.044
5.860,-0.045
5.861,-0.047
5.862,-0.047
5.863,-0.047
5.864,-0.047
5.865,-0.047
5.866,-0.048
5.867,-0.050
5.868,-0.049
5.869,-0.047
5.870,-0.049
5.871,-0.044
5.872,-0.044
5.873,-0.044
5.874,-0.044
5.875,-0.047
5.876,-0.047
5.877,-0.047
5.878,-0.046
5.879,-0.044
5.880,-0.048
5.881,-0.050
5.882,-0.050
5.883,-0.050
5.884,-0.048
5.885,-0.047
5.886,-0.044
5.887,-0.041
5.888,-0.044
5.889,-0.041
5.890,-0.037
5.891,-0.041
5.892,-0.039
5.893,-0.041
5.894,-0.044
5.895,-0.044
5.896,-0.045
5.897,-0.047
5.898,-0.048
5.899,-0.050
5.900,-0.053
5.901,-0.053
5.902,-0.053
5.903,-0.053
5.904,-0.054
5.905,-0.053
5.906,-0.049
5.907,-0.050
5.908,-0.049
5.909,-0.047
5.910,-0.047
5.911,-0.047
5.912,-0.050
5.913,-0.050
5.914,-0.050
5.915,-0.050
5.916,-0.050
5.917,-0.050
5.918,-0.050
5.919,-0.050
5.920,-0.050
5.921,-0.050
5.922,-0.051
5.923,-0.053
5.924,-0.053
5.925,-0.053
5.926,-0.056
5.927,-0.059
5.928,-0.058
5.929,-0.056
5.930,-0.055
5.931,-0.056
5.932,-0.057
5.933,-0.056
5.934,-0.061
5.935,-0.062
5.936,-0.061
5.937,-0.059
5.938,-0.058
5.939,-0.059
5.940,-0.056
5.941,-0.053
5.942,-0.053
5.943,-0.056
5.944,-0.059
5.945,-0.062
5.946,-0.062
5.947,-0.062
5.948,-0.062
5.949,-0.062
5.950,-0.062
5.951,-0.062
5.952,-0.058
5.953,-0.053
5.954,-0.053
5.955,-0.056
5.956,-0.059
5.957,-0.062
5.958,-0.062
5.959,-0.059
5.960,-0.058
5.961,-0.056
5.962,-0.061
5.963,-0.062
5.964,-0.062
5.965,-0.062
5.966,-0.062
5.967,-0.062
5.968,-0.059
5.969,-0.059
5.970,-0.057
5.971,-0.059
5.972,-0.062
5.973,-0.066
5.974,-0.066
5.975,-0.066
5.976,-0.066
5.977,-0.066
5.978,-0.067
5.979,-0.072
5.980,-0.073
5.981,-0.072
5.982,-0.069
5.983,-0.066
5.984,-0.070
5.985,-0.069
5.986,-0.069
5.987,-0.069
5.988,-0.069
5.989,-0.069
5.990,-0.067
5.991,-0.069
5.992,-0.069
5.993,-0.069
5.994,-0.067
5.995,-0.066
5.996,-0.070
5.997,-0.072
5.998,-0.069
5.999,-0.069
6.000,-0.069
6.001,-0.069
6.002,-0.067
6.003,-0.069
6.004,-0.069
6.005,-0.069
6.006,-0.070
6.007,-0.072
6.008,-0.069
6.009,-0.069
6.010,-0.069
6.011,-0.072
6.012,-0.072
6.013,-0.072
6.014,-0.072
6.015,-0.069
6.016,-0.073
6.017,-0.072
6.018,-0.071
6.019,-0.072
6.020,-0.072
6.021,-0.072
6.022,-0.071
6.023,-0.069
6.024,-0.069
6.025,-0.069
6.026,-0.069
6.027,-0.072
6.028,-0.072
6.029,-0.069
6.030,-0.067
6.031,-0.069
6.032,-0.067
6.033,-0.069
6.034,-0.069
6.035,-0.069
6.036,-0.066
6.037,-0.066
6.038,-0.062
6.039,-0.059
6.040,-0.058
6.041,-0.059
6.042,-0.062
6.043,-0.066
6.044,-0.067
6.045,-0.069
6.046,-0.069
6.047,-0.069
6.048,-0.064
6.049,-0.066
6.050,-0.066
6.051,-0.066
6.052,-0.066
6.053,-0.066
6.054,-0.066
6.055,-0.066
6.056,-0.066
6.057,-0.066
6.058,-0.066
6.059,-0.066
6.060,-0.062
6.061,-0.066
6.062,-0.069
6.063,-0.069
6.064,-0.066
6.065,-0.066
6.066,-0.062
6.067,-0.056
6.068,-0.057
6.069,-0.056
6.070,-0.056
6.071,-0.053
6.072,-0.044
6.073,-0.034
6.074,-0.031
6.075,-0.022
6.076,-0.012
6.077,-0.006
6.078,-0.002
6.079,0.000
6.080,0.002
6.081,0.000
6.082,0.003
6.083,0.006
6.084,0.013
6.085,0.019
6.086,0.021
6.087,0.022
6.088,0.025
6.089,0.022
6.090,0.021
6.091,0.022
6.092,0.022
6.093,0.022
6.094,0.019
6.095,0.019
6.096,0.022
6.097,0.025
6.098,0.022
6.099,0.022
6.100,0.028
6.101,0.034
6.102,0.042
6.103,0.050
6.104,0.056
6.105,0.063
6.106,0.061
6.107,0.059
6.108,0.058
6.109,0.059
6.110,0.064
6.111,0.072
6.112,0.079
6.113,0.081
6.114,0.078
6.115,0.078
6.116,0.078
6.117,0.075
6.118,0.069
6.119,0.063
6.120,0.058
6.121,0.056
6.122,0.054
6.123,0.050
6.124,0.045
6.125,0.041
6.126,0.033
6.127,0.028
6.128,0.019
6.129,0.013
6.130,0.013
6.131,0.009
6.132,0.002
6.133,-0.006
6.134,-0.011
6.135,-0.016
6.136,-0.024
6.137,-0.028
6.138,-0.034
6.139,-0.037
6.140,-0.039
6.141,-0.037
6.142,-0.034
6.143,-0.037
6.144,-0.037
6.145,-0.037
6.146,-0.037
6.147,-0.041
6.148,-0.044
6.149,-0.047
6.150,-0.049
6.151,-0.047
6.152,-0.051
6.153,-0.056
6.154,-0.062
6.155,-0.062
6.156,-0.069
6.157,-0.072
6.158,-0.075
6.159,-0.081
6.160,-0.080
6.161,-0.081
6.162,-0.079
6.163,-0.081
6.164,-0.081
6.165,-0.081
6.166,-0.084
6.167,-0.084
6.168,-0.084
6.169,-0.081
6.170,-0.080
6.171,-0.078
6.172,-0.077
6.173,-0.078
6.174,-0.078
6.175,-0.081
6.176,-0.082
6.177,-0.084
6.178,-0.084
6.179,-0.084
6.180,-0.086
6.181,-0.084
6.182,-0.084
6.183,-0.087
6.184,-0.084
6.185,-0.087
6.186,-0.086
6.187,-0.087
6.188,-0.087
6.189,-0.087
6.190,-0.086
6.191,-0.081
6.192,-0.080
6.193,-0.081
6.194,-0.084
6.195,-0.084
6.196,-0.084
6.197,-0.084
6.198,-0.086
6.199,-0.087
6.200,-0.087
6.201,-0.087
6.202,-0.089
6.203,-0.087
6.204,-0.097
6.205,-0.103
6.206,-0.109
6.207,-0.119
6.208,-0.129
6.209,-0.137
6.210,-0.141
6.211,-0.137
6.212,-0.139
6.213,-0.131
6.214,-0.116
6.215,-0.100
6.216,-0.094
6.217,-0.075
6.218,-0.050
6.219,-0.019
6.220,0.011
6.221,0.047
6.222,0.092
6.223,0.141
6.224,0.192
6.225,0.247
6.226,0.303
6.227,0.356
6.228,0.405
6.229,0.450
6.230,0.509
6.231,0.575
6.232,0.650
6.233,0.725
6.234,0.789
6.235,0.847
6.236,0.901
6.237,0.953
6.238,1.001
6.239,1.047
6.240,1.074
6.241,1.081
6.242,1.080
6.243,1.059
6.244,1.019
6.245,0.950
6.246,0.879
6.247,0.800
6.248,0.724
6.249,0.650
6.250,0.583
6.251,0.519
6.252,0.452
6.253,0.384
6.254,0.313
6.255,0.244
6.256,0.180
6.257,0.113
6.258,0.061
6.259,0.019
6.260,-0.011
6.261,-0.022
6.262,-0.033
6.263,-0.028
6.264,-0.026
6.265,-0.025
6.266,-0.034
6.267,-0.050
6.268,-0.064
6.269,-0.075
6.270,-0.083
6.271,-0.091
6.272,-0.100
6.273,-0.100
6.274,-0.102
6.275,-0.103
6.276,-0.099
6.277,-0.091
6.278,-0.089
6.279,-0.087
6.280,-0.081
6.281,-0.078
6.282,-0.073
6.283,-0.069
6.284,-0.070
6.285,-0.069
6.286,-0.070
6.287,-0.069
6.288,-0.069
6.289,-0.069
6.290,-0.066
6.291,-0.066
6.292,-0.064
6.293,-0.066
6.294,-0.064
6.295,-0.066
6.296,-0.072
6.297,-0.075
6.298,-0.081
6.299,-0.084
6.300,-0.083
6.301,-0.084
6.302,-0.086
6.303,-0.084
6.304,-0.083
6.305,-0.081
6.306,-0.081
6.307,-0.078
6.308,-0.077
6.309,-0.072
6.310,-0.072
6.311,-0.072
6.312,-0.076
6.313,-0.078
6.314,-0.081
6.315,-0.081
6.316,-0.081
6.317,-0.084
6.318,-0.083
6.319,-0.081
6.320,-0.084
6.321,-0.081
6.322,-0.081
6.323,-0.081
6.324,-0.079
6.325,-0.081
6.326,-0.081
6.327,-0.081
6.328,-0.080
6.329,-0.078
6.330,-0.081
6.331,-0.081
6.332,-0.081
6.333,-0.081
6.334,-0.082
6.335,-0.081
6.336,-0.081
6.337,-0.081
6.338,-0.080
6.339,-0.081
6.340,-0.081
6.341,-0.081
6.342,-0.082
6.343,-0.081
6.344,-0.081
6.345,-0.084
6.346,-0.086
6.347,-0.084
6.348,-0.081
6.349,-0.081
6.350,-0.081
6.351,-0.078
6.352,-0.078
6.353,-0.078
6.354,-0.075
6.355,-0.072
6.356,-0.073
6.357,-0.072
6.358,-0.072
6.359,-0.072
6.360,-0.075
6.361,-0.075
6.362,-0.076
6.363,-0.075
6.364,-0.073
6.365,-0.075
6.366,-0.074
6.367,-0.072
6.368,-0.072
6.369,-0.072
6.370,-0.075
6.371,-0.075
6.372,-0.072
6.373,-0.072
6.374,-0.072
6.375,-0.072
6.376,-0.072
6.377,-0.072
6.378,-0.075
6.379,-0.075
6.380,-0.072
6.381,-0.069
6.382,-0.073
6.383,-0.072
6.384,-0.070
6.385,-0.075
6.386,-0.072
6.387,-0.072
6.388,-0.075
6.389,-0.075
6.390,-0.072
6.391,-0.075
6.392,-0.067
6.393,-0.066
6.394,-0.069
6.395,-0.069
6.396,-0.072
6.397,-0.072
6.398,-0.071
6.399,-0.069
6.400,-0.072
6.401,-0.069
6.402,-0.064
6.403,-0.062
6.404,-0.067
6.405,-0.066
6.406,-0.066
6.407,-0.066
6.408,-0.066
6.409,-0.066
6.410,-0.066
6.411,-0.066
6.412,-0.059
6.413,-0.056
6.414,-0.057
6.415,-0.059
6.416,-0.059
6.417,-0.059
6.418,-0.057
6.419,-0.059
6.420,-0.059
6.421,-0.059
6.422,-0.055
6.423,-0.053
6.424,-0.053
6.425,-0.053
6.426,-0.053
6.427,-0.053
6.428,-0.054
6.429,-0.056
6.430,-0.053
6.431,-0.053
6.432,-0.054
6.433,-0.056
6.434,-0.052
6.435,-0.050
6.436,-0.053
6.437,-0.050
6.438,-0.049
6.439,-0.044
6.440,-0.041
6.441,-0.044
6.442,-0.041
6.443,-0.041
6.444,-0.036
6.445,-0.034
6.446,-0.037
6.447,-0.041
6.448,-0.042
6.449,-0.044
6.450,-0.041
6.451,-0.037
6.452,-0.034
6.453,-0.034
6.454,-0.034
6.455,-0.031
6.456,-0.030
6.457,-0.025
6.458,-0.025
6.459,-0.025
6.460,-0.025
6.461,-0.025
6.462,-0.028
6.463,-0.028
6.464,-0.025
6.465,-0.022
6.466,-0.019
6.467,-0.019
6.468,-0.019
6.469,-0.016
6.470,-0.012
6.471,-0.012
6.472,-0.012
6.473,-0.012
6.474,-0.011
6.475,-0.009
6.476,-0.011
6.477,-0.012
6.478,-0.009
6.479,-0.006
6.480,-0.004
6.481,-0.009
6.482,-0.003
6.483,0.000
6.484,-0.001
6.485,-0.003
6.486,0.000
6.487,0.003
6.488,0.003
6.489,0.006
6.490,0.008
6.491,0.009
6.492,0.011
6.493,0.009
6.494,0.009
6.495,0.009
6.496,0.008
6.497,0.006
6.498,0.013
6.499,0.013
6.500,0.013
6.501,0.013
6.502,0.014
6.503,0.016
6.504,0.018
6.505,0.019
6.506,0.019
6.507,0.019
6.508,0.018
6.509,0.019
6.510,0.022
6.511,0.028
6.512,0.028
6.513,0.028
6.514,0.027
6.515,0.028
6.516,0.031
6.517,0.031
6.518,0.031
6.519,0.031
6.520,0.034
6.521,0.041
6.522,0.038
6.523,0.038
6.524,0.038
6.525,0.038
6.526,0.041
6.527,0.041
6.528,0.041
6.529,0.044
6.530,0.043
6.531,0.044
6.532,0.046
6.533,0.044
6.534,0.043
6.535,0.044
6.536,0.050
6.537,0.053
6.538,0.053
6.539,0.056
6.540,0.056
6.541,0.059
6.542,0.063
6.543,0.066
6.544,0.066
6.545,0.066
6.546,0.069
6.547,0.069
6.548,0.069
6.549,0.069
6.550,0.068
6.551,0.069
6.552,0.073
6.553,0.075
6.554,0.074
6.555,0.075
6.556,0.078
6.557,0.081
6.558,0.081
6.559,0.078
6.560,0.075
6.561,0.072
6.562,0.075
6.563,0.075
6.564,0.072
6.565,0.072
6.566,0.076
6.567,0.078
6.568,0.078
6.569,0.078
6.570,0.074
6.571,0.069
6.572,0.069
6.573,0.069
6.574,0.067
6.575,0.069
6.576,0.067
6.577,0.066
6.578,0.063
6.579,0.059
6.580,0.054
6.581,0.056
6.582,0.054
6.583,0.053
6.584,0.049
6.585,0.047
6.586,0.047
6.587,0.044
6.588,0.038
6.589,0.034
6.590,0.030
6.591,0.028
6.592,0.029
6.593,0.028
6.594,0.025
6.595,0.025
6.596,0.024
6.597,0.019
6.598,0.017
6.599,0.019
6.600,0.017
6.601,0.016
6.602,0.009
6.603,0.003
6.604,0.004
6.605,0.006
6.606,0.003
6.607,0.003
6.608,0.004
6.609,0.006
6.610,0.004
6.611,0.003
6.612,-0.001
6.613,-0.009
6.614,-0.011
6.615,-0.012
6.616,-0.011
6.617,-0.012
6.618,-0.008
6.619,-0.009
6.620,-0.012
6.621,-0.012
6.622,-0.012
6.623,-0.012
6.624,-0.012
6.625,-0.012
6.626,-0.012
6.627,-0.012
6.628,-0.016
6.629,-0.016
6.630,-0.016
6.631,-0.019
6.632,-0.016
6.633,-0.016
6.634,-0.014
6.635,-0.012
6.636,-0.014
6.637,-0.016
6.638,-0.016
6.639,-0.019
6.640,-0.017
6.641,-0.022
6.642,-0.019
6.643,-0.022
6.644,-0.022
6.645,-0.022
6.646,-0.022
6.647,-0.022
6.648,-0.023
6.649,-0.022
6.650,-0.022
6.651,-0.022
6.652,-0.019
6.653,-0.016
6.654,-0.016
6.655,-0.016
6.656,-0.017
6.657,-0.019
6.658,-0.019
6.659,-0.016
6.660,-0.017
6.661,-0.019
6.662,-0.022
6.663,-0.025
6.664,-0.028
6.665,-0.025
6.666,-0.022
6.667,-0.019
6.668,-0.020
6.669,-0.022
6.670,-0.022
6.671,-0.022
6.672,-0.022
6.673,-0.022
6.674,-0.022
6.675,-0.022
6.676,-0.022
6.677,-0.022
6.678,-0.022
6.679,-0.022
6.680,-0.022
6.681,-0.022
6.682,-0.021
6.683,-0.019
6.684,-0.023
6.685,-0.022
6.686,-0.022
6.687,-0.022
6.688,-0.022
6.689,-0.022
6.690,-0.022
6.691,-0.022
6.692,-0.022
6.693,-0.022
6.694,-0.019
6.695,-0.016
6.696,-0.016
6.697,-0.019
6.698,-0.016
6.699,-0.019
6.700,-0.017
6.701,-0.019
6.702,-0.019
6.703,-0.019
6.704,-0.020
6.705,-0.025
6.706,-0.025
6.707,-0.028
6.708,-0.029
6.709,-0.028
6.710,-0.028
6.711,-0.028
6.712,-0.031
6.713,-0.031
6.714,-0.028
6.715,-0.025
6.716,-0.024
6.717,-0.022
6.718,-0.023
6.719,-0.025
6.720,-0.028
6.721,-0.028
6.722,-0.028
6.723,-0.028
6.724,-0.027
6.725,-0.028
6.726,-0.029
6.727,-0.031
6.728,-0.034
6.729,-0.031
6.730,-0.036
6.731,-0.034
6.732,-0.036
6.733,-0.034
6.734,-0.037
6.735,-0.034
6.736,-0.037
6.737,-0.034
6.738,-0.039
6.739,-0.037
6.740,-0.041
6.741,-0.041
6.742,-0.039
6.743,-0.037
6.744,-0.041
6.745,-0.041
6.746,-0.041
6.747,-0.044
6.748,-0.045
6.749,-0.047
6.750,-0.044
6.751,-0.047
6.752,-0.046
6.753,-0.044
6.754,-0.047
6.755,-0.047
6.756,-0.046
6.757,-0.044
6.758,-0.043
6.759,-0.041
6.760,-0.042
6.761,-0.044
6.762,-0.044
6.763,-0.044
6.764,-0.043
6.765,-0.044
6.766,-0.044
6.767,-0.047
6.768,-0.050
6.769,-0.050
6.770,-0.050
6.771,-0.050
6.772,-0.052
6.773,-0.050
6.774,-0.051
6.775,-0.056
6.776,-0.056
6.777,-0.053
6.778,-0.057
6.779,-0.059
6.780,-0.061
6.781,-0.062
6.782,-0.059
6.783,-0.056
6.784,-0.056
6.785,-0.056
6.786,-0.057
6.787,-0.059
6.788,-0.058
6.789,-0.059
6.790,-0.057
6.791,-0.059
6.792,-0.058
6.793,-0.056
6.794,-0.059
6.795,-0.059
6.796,-0.059
6.797,-0.059
6.798,-0.061
6.799,-0.066
6.800,-0.067
6.801,-0.069
6.802,-0.067
6.803,-0.062
6.804,-0.058
6.805,-0.056
6.806,-0.055
6.807,-0.059
6.808,-0.062
6.809,-0.062
6.810,-0.067
6.811,-0.066
6.812,-0.064
6.813,-0.066
6.814,-0.067
6.815,-0.069
6.816,-0.069
6.817,-0.069
6.818,-0.067
6.819,-0.069
6.820,-0.069
6.821,-0.069
6.822,-0.070
6.823,-0.072
6.824,-0.070
6.825,-0.069
6.826,-0.071
6.827,-0.069
6.828,-0.069
6.829,-0.069
6.830,-0.069
6.831,-0.072
6.832,-0.073
6.833,-0.075
6.834,-0.075
6.835,-0.075
6.836,-0.072
6.837,-0.069
6.838,-0.069
6.839,-0.069
6.840,-0.069
6.841,-0.069
6.842,-0.070
6.843,-0.072
6.844,-0.073
6.845,-0.075
6.846,-0.072
6.847,-0.069
6.848,-0.069
6.849,-0.069
6.850,-0.072
6.851,-0.072
6.852,-0.069
6.853,-0.072
6.854,-0.073
6.855,-0.075
6.856,-0.078
6.857,-0.081
6.858,-0.084
6.859,-0.081
6.860,-0.077
6.861,-0.075
6.862,-0.077
6.863,-0.075
6.864,-0.075
6.865,-0.075
6.866,-0.076
6.867,-0.078
6.868,-0.077
6.869,-0.075
6.870,-0.075
6.871,-0.075
6.872,-0.075
6.873,-0.075
6.874,-0.078
6.875,-0.078
6.876,-0.078
6.877,-0.078
6.878,-0.076
6.879,-0.078
6.880,-0.078
6.881,-0.081
6.882,-0.081
6.883,-0.081
6.884,-0.078
6.885,-0.075
6.886,-0.076
6.887,-0.078
6.888,-0.084
6.889,-0.084
6.890,-0.084
6.891,-0.084
6.892,-0.084
6.893,-0.084
6.894,-0.086
6.895,-0.087
6.896,-0.086
6.897,-0.084
6.898,-0.087
6.899,-0.087
6.900,-0.084
6.901,-0.081
6.902,-0.081
6.903,-0.081
6.904,-0.082
6.905,-0.081
6.906,-0.078
6.907,-0.075
6.908,-0.078
6.909,-0.078
6.910,-0.079
6.911,-0.081
6.912,-0.078
6.913,-0.081
6.914,-0.079
6.915,-0.081
6.916,-0.083
6.917,-0.081
6.918,-0.082
6.919,-0.084
6.920,-0.084
6.921,-0.084
6.922,-0.084
6.923,-0.084
6.924,-0.081
6.925,-0.075
6.926,-0.073
6.927,-0.072
6.928,-0.071
6.929,-0.069
6.930,-0.072
6.931,-0.072
6.932,-0.078
6.933,-0.081
6.934,-0.081
6.935,-0.081
6.936,-0.081
6.937,-0.081
6.938,-0.084
6.939,-0.084
6.940,-0.084
6.941,-0.084
6.942,-0.084
6.943,-0.084
6.944,-0.086
6.945,-0.084
6.946,-0.087
6.947,-0.087
6.948,-0.084
6.949,-0.081
6.950,-0.080
6.951,-0.078
6.952,-0.079
6.953,-0.081
6.954,-0.082
6.955,-0.084
6.956,-0.081
6.957,-0.075
6.958,-0.077
6.959,-0.075
6.960,-0.075
6.961,-0.075
6.962,-0.076
6.963,-0.078
6.964,-0.075
6.965,-0.075
6.966,-0.072
6.967,-0.069
6.968,-0.059
6.969,-0.050
6.970,-0.044
6.971,-0.041
6.972,-0.032
6.973,-0.025
6.974,-0.017
6.975,-0.012
6.976,-0.014
6.977,-0.012
6.978,-0.016
6.979,-0.016
6.980,-0.011
6.981,-0.006
6.982,-0.002
6.983,0.003
6.984,0.003
6.985,0.003
6.986,0.000
6.987,0.000
6.988,0.002
6.989,0.000
6.990,0.003
6.991,0.003
6.992,0.003
6.993,0.003
6.994,0.003
6.995,0.003
6.996,0.005
6.997,0.009
6.998,0.016
6.999,0.022
7.000,0.027
7.001,0.028
7.002,0.031
7.003,0.031
7.004,0.034
7.005,0.041
7.006,0.047
7.007,0.053
7.008,0.063
7.009,0.069
7.010,0.070
7.011,0.069
7.012,0.068
7.013,0.066
7.014,0.067
7.015,0.066
7.016,0.059
7.017,0.053
7.018,0.051
7.019,0.050
7.020,0.041
7.021,0.031
7.022,0.028
7.023,0.028
7.024,0.027
7.025,0.019
7.026,0.016
7.027,0.013
7.028,0.006
7.029,0.000
7.030,-0.007
7.031,-0.016
7.032,-0.022
7.033,-0.031
7.034,-0.036
7.035,-0.037
7.036,-0.039
7.037,-0.044
7.038,-0.047
7.039,-0.047
7.040,-0.049
7.041,-0.050
7.042,-0.050
7.043,-0.050
7.044,-0.059
7.045,-0.062
7.046,-0.062
7.047,-0.066
7.048,-0.064
7.049,-0.066
7.050,-0.067
7.051,-0.072
7.052,-0.072
7.053,-0.078
7.054,-0.082
7.055,-0.084
7.056,-0.091
7.057,-0.094
7.058,-0.096
7.059,-0.091
7.060,-0.091
7.061,-0.091
7.062,-0.089
7.063,-0.091
7.064,-0.089
7.065,-0.087
7.066,-0.086
7.067,-0.087
7.068,-0.087
7.069,-0.087
7.070,-0.091
7.071,-0.091
7.072,-0.097
7.073,-0.100
7.074,-0.100
7.075,-0.100
7.076,-0.099
7.077,-0.097
7.078,-0.094
7.079,-0.094
7.080,-0.097
7.081,-0.094
7.082,-0.096
7.083,-0.091
7.084,-0.091
7.085,-0.091
7.086,-0.087
7.087,-0.084
7.088,-0.082
7.089,-0.084
7.090,-0.087
7.091,-0.091
7.092,-0.095
7.093,-0.100
7.094,-0.097
7.095,-0.094
7.096,-0.095
7.097,-0.097
7.098,-0.100
7.099,-0.106
7.100,-0.105
7.101,-0.109
7.102,-0.114
7.103,-0.122
7.104,-0.130
7.105,-0.137
7.106,-0.141
7.107,-0.144
7.108,-0.145
7.109,-0.147
7.110,-0.136
7.111,-0.125
7.112,-0.114
7.113,-0.103
7.114,-0.081
7.115,-0.059
7.116,-0.030
7.117,0.000
7.118,0.036
7.119,0.078
7.120,0.126
7.121,0.181
7.122,0.233
7.123,0.288
7.124,0.344
7.125,0.400
7.126,0.456
7.127,0.519
7.128,0.584
7.129,0.659
7.130,0.727
7.131,0.791
7.132,0.849
7.133,0.897
7.134,0.947
7.135,0.994
7.136,1.031
7.137,1.056
7.138,1.061
7.139,1.053
7.140,1.021
7.141,0.972
7.142,0.902
7.143,0.822
7.144,0.745
7.145,0.675
7.146,0.609
7.147,0.547
7.148,0.477
7.149,0.406
7.150,0.341
7.151,0.272
7.152,0.208
7.153,0.147
7.154,0.087
7.155,0.034
7.156,-0.008
7.157,-0.034
7.158,-0.046
7.159,-0.053
7.160,-0.056
7.161,-0.059
7.162,-0.057
7.163,-0.062
7.164,-0.073
7.165,-0.087
7.166,-0.097
7.167,-0.106
7.168,-0.112
7.169,-0.119
7.170,-0.117
7.171,-0.119
7.172,-0.122
7.173,-0.122
7.174,-0.120
7.175,-0.119
7.176,-0.114
7.177,-0.109
7.178,-0.111
7.179,-0.106
7.180,-0.099
7.181,-0.097
7.182,-0.094
7.183,-0.091
7.184,-0.084
7.185,-0.081
7.186,-0.077
7.187,-0.072
7.188,-0.072
7.189,-0.072
7.190,-0.074
7.191,-0.072
7.192,-0.076
7.193,-0.081
7.194,-0.080
7.195,-0.084
7.196,-0.087
7.197,-0.087
7.198,-0.091
7.199,-0.091
7.200,-0.092
7.201,-0.097
7.202,-0.097
7.203,-0.097
7.204,-0.091
7.205,-0.087
7.206,-0.084
7.207,-0.084
7.208,-0.083
7.209,-0.084
7.210,-0.084
7.211,-0.087
7.212,-0.087
7.213,-0.087
7.214,-0.091
7.215,-0.091
7.216,-0.089
7.217,-0.091
7.218,-0.087
7.219,-0.087
7.220,-0.086
7.221,-0.081
7.222,-0.081
7.223,-0.081
7.224,-0.082
7.225,-0.084
7.226,-0.084
7.227,-0.087
7.228,-0.089
7.229,-0.091
7.230,-0.092
7.231,-0.094
7.232,-0.091
7.233,-0.091
7.234,-0.091
7.235,-0.091
7.236,-0.092
7.237,-0.091
7.238,-0.091
7.239,-0.091
7.240,-0.089
7.241,-0.087
7.242,-0.086
7.243,-0.087
7.244,-0.089
7.245,-0.091
7.246,-0.094
7.247,-0.094
7.248,-0.091
7.249,-0.091
7.250,-0.091
7.251,-0.091
7.252,-0.092
7.253,-0.094
7.254,-0.089
7.255,-0.087
7.256,-0.086
7.257,-0.087
7.258,-0.091
7.259,-0.094
7.260,-0.094
7.261,-0.094
7.262,-0.089
7.263,-0.084
7.264,-0.084
7.265,-0.084
7.266,-0.084
7.267,-0.087
7.268,-0.086
7.269,-0.081
7.270,-0.082
7.271,-0.084
7.272,-0.084
7.273,-0.084
7.274,-0.084
7.275,-0.084
7.276,-0.082
7.277,-0.084
7.278,-0.084
7.279,-0.087
7.280,-0.081
7.281,-0.075
7.282,-0.078
7.283,-0.075
7.284,-0.075
7.285,-0.078
7.286,-0.079
7.287,-0.078
7.288,-0.080
7.289,-0.072
7.290,-0.071
7.291,-0.072
7.292,-0.073
7.293,-0.075
7.294,-0.071
7.295,-0.069
7.296,-0.067
7.297,-0.069
7.298,-0.069
7.299,-0.069
7.300,-0.069
7.301,-0.072
7.302,-0.070
7.303,-0.072
7.304,-0.072
7.305,-0.072
7.306,-0.072
7.307,-0.072
7.308,-0.073
7.309,-0.072
7.310,-0.072
7.311,-0.072
7.312,-0.072
7.313,-0.072
7.314,-0.071
7.315,-0.066
7.316,-0.066
7.317,-0.066
7.318,-0.067
7.319,-0.066
7.320,-0.066
7.321,-0.066
7.322,-0.066
7.323,-0.066
7.324,-0.066
7.325,-0.066
7.326,-0.062
7.327,-0.056
7.328,-0.057
7.329,-0.059
7.330,-0.061
7.331,-0.059
7.332,-0.058
7.333,-0.059
7.334,-0.057
7.335,-0.059
7.336,-0.056
7.337,-0.053
7.338,-0.056
7.339,-0.053
7.340,-0.054
7.341,-0.053
7.342,-0.052
7.343,-0.050
7.344,-0.050
7.345,-0.050
7.346,-0.050
7.347,-0.050
7.348,-0.051
7.349,-0.050
7.350,-0.044
7.351,-0.037
7.352,-0.034
7.353,-0.034
7.354,-0.032
7.355,-0.034
7.356,-0.034
7.357,-0.034
7.358,-0.034
7.359,-0.034
7.360,-0.031
7.361,-0.031
7.362,-0.034
7.363,-0.034
7.364,-0.033
7.365,-0.031
7.366,-0.025
7.367,-0.019
7.368,-0.019
7.369,-0.019
7.370,-0.019
7.371,-0.016
7.372,-0.012
7.373,-0.012
7.374,-0.014
7.375,-0.016
7.376,-0.016
7.377,-0.012
7.378,-0.017
7.379,-0.016
7.380,-0.014
7.381,-0.012
7.382,-0.011
7.383,-0.006
7.384,-0.006
7.385,-0.009
7.386,-0.007
7.387,-0.009
7.388,-0.011
7.389,-0.009
7.390,-0.009
7.391,-0.009
7.392,-0.009
7.393,-0.009
7.394,-0.014
7.395,-0.012
7.396,-0.009
7.397,-0.006
7.398,-0.005
7.399,-0.003
7.400,-0.002
7.401,0.003
7.402,0.006
7.403,0.006
7.404,0.005
7.405,0.003
7.406,0.006
7.407,0.006
7.408,0.011
7.409,0.013
7.410,0.013
7.411,0.013
7.412,0.013
7.413,0.013
7.414,0.013
7.415,0.013
7.416,0.014
7.417,0.016
7.418,0.019
7.419,0.019
7.420,0.023
7.421,0.025
7.422,0.026
7.423,0.031
7.424,0.028
7.425,0.025
7.426,0.028
7.427,0.028
7.428,0.030
7.429,0.031
7.430,0.034
7.431,0.038
7.432,0.039
7.433,0.041
7.434,0.042
7.435,0.044
7.436,0.047
7.437,0.047
7.438,0.050
7.439,0.053
7.440,0.056
7.441,0.056
7.442,0.055
7.443,0.056
7.444,0.059
7.445,0.063
7.446,0.063
7.447,0.063
7.448,0.066
7.449,0.069
7.450,0.072
7.451,0.075
7.452,0.077
7.453,0.075
7.454,0.076
7.455,0.078
7.456,0.076
7.457,0.078
7.458,0.077
7.459,0.078
7.460,0.079
7.461,0.078
7.462,0.075
7.463,0.072
7.464,0.069
7.465,0.069
7.466,0.072
7.467,0.072
7.468,0.069
7.469,0.069
7.470,0.069
7.471,0.066
7.472,0.064
7.473,0.059
7.474,0.056
7.475,0.056
7.476,0.058
7.477,0.053
7.478,0.053
7.479,0.050
7.480,0.048
7.481,0.047
7.482,0.044
7.483,0.041
7.484,0.038
7.485,0.034
7.486,0.036
7.487,0.034
7.488,0.034
7.489,0.031
7.490,0.028
7.491,0.028
7.492,0.028
7.493,0.028
7.494,0.024
7.495,0.019
7.496,0.016
7.497,0.009
7.498,0.006
7.499,0.003
7.500,0.000
7.501,0.000
7.502,0.001
7.503,0.000
7.504,0.000
7.505,0.000
7.506,0.000
7.507,-0.003
7.508,-0.006
7.509,-0.006
7.510,-0.009
7.511,-0.009
7.512,-0.011
7.513,-0.012
7.514,-0.016
7.515,-0.012
7.516,-0.012
7.517,-0.012
7.518,-0.012
7.519,-0.012
7.520,-0.012
7.521,-0.012
7.522,-0.012
7.523,-0.012
7.524,-0.011
7.525,-0.012
7.526,-0.016
7.527,-0.019
7.528,-0.022
7.529,-0.019
7.530,-0.016
7.531,-0.012
7.532,-0.014
7.533,-0.016
7.534,-0.016
7.535,-0.016
7.536,-0.019
7.537,-0.016
7.538,-0.019
7.539,-0.016
7.540,-0.017
7.541,-0.016
7.542,-0.016
7.543,-0.016
7.544,-0.016
7.545,-0.016
7.546,-0.012
7.547,-0.012
7.548,-0.016
7.549,-0.019
7.550,-0.019
7.551,-0.019
7.552,-0.019
7.553,-0.019
7.554,-0.017
7.555,-0.016
7.556,-0.014
7.557,-0.016
7.558,-0.016
7.559,-0.016
7.560,-0.014
7.561,-0.016
7.562,-0.012
7.563,-0.012
7.564,-0.011
7.565,-0.009
7.566,-0.009
7.567,-0.009
7.568,-0.009
7.569,-0.009
7.570,-0.011
7.571,-0.012
7.572,-0.012
7.573,-0.012
7.574,-0.012
7.575,-0.012
7.576,-0.012
7.577,-0.012
7.578,-0.012
7.579,-0.012
7.580,-0.011
7.581,-0.012
7.582,-0.014
7.583,-0.019
7.584,-0.017
7.585,-0.016
7.586,-0.016
7.587,-0.016
7.588,-0.016
7.589,-0.016
7.590,-0.016
7.591,-0.016
7.592,-0.016
7.593,-0.016
7.594,-0.019
7.595,-0.016
7.596,-0.016
7.597,-0.009
7.598,-0.011
7.599,-0.012
7.600,-0.016
7.601,-0.019
7.602,-0.021
7.603,-0.019
7.604,-0.021
7.605,-0.019
7.606,-0.017
7.607,-0.019
7.608,-0.017
7.609,-0.019
7.610,-0.019
7.611,-0.019
7.612,-0.019
7.613,-0.019
7.614,-0.020
7.615,-0.022
7.616,-0.021
7.617,-0.022
7.618,-0.023
7.619,-0.025
7.620,-0.025
7.621,-0.025
7.622,-0.028
7.623,-0.028
7.624,-0.027
7.625,-0.028
7.626,-0.026
7.627,-0.031
7.628,-0.027
7.629,-0.028
7.630,-0.028
7.631,-0.031
7.632,-0.027
7.633,-0.028
7.634,-0.026
7.635,-0.031
7.636,-0.028
7.637,-0.031
7.638,-0.031
7.639,-0.031
7.640,-0.030
7.641,-0.031
7.642,-0.030
7.643,-0.028
7.644,-0.031
7.645,-0.031
7.646,-0.034
7.647,-0.034
7.648,-0.036
7.649,-0.034
7.650,-0.033
7.651,-0.034
7.652,-0.034
7.653,-0.034
7.654,-0.037
7.655,-0.041
7.656,-0.041
7.657,-0.041
7.658,-0.041
7.659,-0.041
7.660,-0.039
7.661,-0.037
7.662,-0.041
7.663,-0.037
7.664,-0.036
7.665,-0.037
7.666,-0.041
7.667,-0.044
7.668,-0.044
7.669,-0.047
7.670,-0.044
7.671,-0.041
7.672,-0.043
7.673,-0.041
7.674,-0.039
7.675,-0.044
7.676,-0.045
7.677,-0.047
7.678,-0.048
7.679,-0.050
7.680,-0.050
7.681,-0.050
7.682,-0.051
7.683,-0.053
7.684,-0.053
7.685,-0.053
7.686,-0.055
7.687,-0.050
7.688,-0.050
7.689,-0.050
7.690,-0.049
7.691,-0.050
7.692,-0.050
7.693,-0.050
7.694,-0.049
7.695,-0.047
7.696,-0.050
7.697,-0.050
7.698,-0.051
7.699,-0.053
7.700,-0.053
7.701,-0.053
7.702,-0.052
7.703,-0.050
7.704,-0.055
7.705,-0.053
7.706,-0.050
7.707,-0.053
7.708,-0.051
7.709,-0.053
7.710,-0.056
7.711,-0.056
7.712,-0.056
7.713,-0.056
7.714,-0.055
7.715,-0.053
7.716,-0.056
7.717,-0.056
7.718,-0.056
7.719,-0.056
7.720,-0.056
7.721,-0.053
7.722,-0.049
7.723,-0.050
7.724,-0.050
7.725,-0.050
7.726,-0.049
7.727,-0.047
7.728,-0.050
7.729,-0.050
7.730,-0.049
7.731,-0.047
7.732,-0.048
7.733,-0.050
7.734,-0.051
7.735,-0.053
7.736,-0.054
7.737,-0.056
7.738,-0.056
7.739,-0.056
7.740,-0.056
7.741,-0.056
7.742,-0.056
7.743,-0.056
7.744,-0.057
7.745,-0.059
7.746,-0.061
7.747,-0.062
7.748,-0.062
7.749,-0.062
7.750,-0.062
7.751,-0.062
7.752,-0.061
7.753,-0.062
7.754,-0.061
7.755,-0.062
7.756,-0.062
7.757,-0.062
7.758,-0.061
7.759,-0.056
7.760,-0.059
7.761,-0.056
7.762,-0.055
7.763,-0.056
7.764,-0.056
7.765,-0.056
7.766,-0.056
7.767,-0.056
7.768,-0.057
7.769,-0.059
7.770,-0.061
7.771,-0.066
7.772,-0.069
7.773,-0.069
7.774,-0.062
7.775,-0.059
7.776,-0.056
7.777,-0.056
7.778,-0.056
7.779,-0.056
7.780,-0.054
7.781,-0.056
7.782,-0.056
7.783,-0.056
7.784,-0.055
7.785,-0.056
7.786,-0.057
7.787,-0.059
7.788,-0.061
7.789,-0.062
7.790,-0.061
7.791,-0.059
7.792,-0.056
7.793,-0.059
7.794,-0.059
7.795,-0.059
7.796,-0.061
7.797,-0.062
7.798,-0.062
7.799,-0.062
7.800,-0.062
7.801,-0.062
7.802,-0.062
7.803,-0.062
7.804,-0.059
7.805,-0.062
7.806,-0.064
7.807,-0.062
7.808,-0.058
7.809,-0.056
7.810,-0.057
7.811,-0.056
7.812,-0.056
7.813,-0.053
7.814,-0.049
7.815,-0.041
7.816,-0.036
7.817,-0.031
7.818,-0.025
7.819,-0.012
7.820,-0.004
7.821,0.000
7.822,0.003
7.823,0.003
7.824,0.005
7.825,0.003
7.826,0.005
7.827,0.006
7.828,0.013
7.829,0.019
7.830,0.022
7.831,0.025
7.832,0.028
7.833,0.025
7.834,0.025
7.835,0.028
7.836,0.028
7.837,0.028
7.838,0.026
7.839,0.028
7.840,0.028
7.841,0.028
7.842,0.028
7.843,0.031
7.844,0.038
7.845,0.044
7.846,0.047
7.847,0.050
7.848,0.053
7.849,0.056
7.850,0.058
7.851,0.059
7.852,0.066
7.853,0.075
7.854,0.083
7.855,0.094
7.856,0.100
7.857,0.100
7.858,0.098
7.859,0.100
7.860,0.100
7.861,0.097
7.862,0.087
7.863,0.078
7.864,0.071
7.865,0.066
7.866,0.063
7.867,0.056
7.868,0.049
7.869,0.041
7.870,0.039
7.871,0.041
7.872,0.036
7.873,0.034
7.874,0.034
7.875,0.031
7.876,0.024
7.877,0.016
7.878,0.009
7.879,0.003
7.880,-0.006
7.881,-0.012
7.882,-0.014
7.883,-0.012
7.884,-0.016
7.885,-0.016
7.886,-0.012
7.887,-0.016
7.888,-0.020
7.889,-0.025
7.890,-0.031
7.891,-0.041
7.892,-0.041
7.893,-0.041
7.894,-0.044
7.895,-0.044
7.896,-0.047
7.897,-0.050
7.898,-0.053
7.899,-0.050
7.900,-0.057
7.901,-0.062
7.902,-0.062
7.903,-0.066
7.904,-0.066
7.905,-0.069
7.906,-0.069
7.907,-0.072
7.908,-0.072
7.909,-0.072
7.910,-0.074
7.911,-0.072
7.912,-0.072
7.913,-0.069
7.914,-0.067
7.915,-0.066
7.916,-0.066
7.917,-0.069
7.918,-0.069
7.919,-0.072
7.920,-0.072
7.921,-0.072
7.922,-0.073
7.923,-0.075
7.924,-0.075
7.925,-0.072
7.926,-0.072
7.927,-0.075
7.928,-0.071
7.929,-0.072
7.930,-0.069
7.931,-0.069
7.932,-0.069
7.933,-0.069
7.934,-0.070
7.935,-0.069
7.936,-0.069
7.937,-0.072
7.938,-0.075
7.939,-0.075
7.940,-0.075
7.941,-0.075
7.942,-0.075
7.943,-0.075
7.944,-0.076
7.945,-0.078
7.946,-0.080
7.947,-0.078
7.948,-0.081
7.949,-0.081
7.950,-0.084
7.951,-0.091
7.952,-0.100
7.953,-0.106
7.954,-0.119
7.955,-0.125
7.956,-0.128
7.957,-0.122
7.958,-0.116
7.959,-0.109
7.960,-0.104
7.961,-0.087
7.962,-0.069
7.963,-0.044
7.964,-0.022
7.965,0.006
7.966,0.046
7.967,0.087
7.968,0.134
7.969,0.184
7.970,0.241
7.971,0.294
7.972,0.348
7.973,0.400
7.974,0.450
7.975,0.506
7.976,0.577
7.977,0.647
7.978,0.719
7.979,0.784
7.980,0.841
7.981,0.894
7.982,0.945
7.983,0.994
7.984,1.041
7.985,1.069
7.986,1.086
7.987,1.084
7.988,1.069
7.989,1.025
7.990,0.954
7.991,0.875
7.992,0.797
7.993,0.722
7.994,0.652
7.995,0.584
7.996,0.518
7.997,0.450
7.998,0.377
7.999,0.306
8.000,0.244
8.001,0.178
8.002,0.113
8.003,0.056
8.004,0.009
8.005,-0.019
8.006,-0.036
8.007,-0.037
8.008,-0.034
8.009,-0.031
8.010,-0.027
8.011,-0.028
8.012,-0.039
8.013,-0.047
8.014,-0.061
8.015,-0.075
8.016,-0.086
8.017,-0.087
8.018,-0.092
8.019,-0.097
8.020,-0.100
8.021,-0.100
8.022,-0.092
8.023,-0.084
8.024,-0.082
8.025,-0.084
8.026,-0.082
8.027,-0.081
8.028,-0.080
8.029,-0.075
8.030,-0.071
8.031,-0.062
8.032,-0.058
8.033,-0.053
8.034,-0.050
8.035,-0.050
8.036,-0.049
8.037,-0.050
8.038,-0.049
8.039,-0.050
8.040,-0.052
8.041,-0.050
8.042,-0.056
8.043,-0.059
8.044,-0.061
8.045,-0.066
8.046,-0.067
8.047,-0.066
8.048,-0.066
8.049,-0.066
8.050,-0.062
8.051,-0.056
8.052,-0.056
8.053,-0.053
8.054,-0.053
8.055,-0.053
8.056,-0.055
8.057,-0.053
8.058,-0.057
8.059,-0.059
8.060,-0.059
8.061,-0.062
8.062,-0.066
8.063,-0.069
8.064,-0.075
8.065,-0.075
8.066,-0.072
8.067,-0.069
8.068,-0.066
8.069,-0.066
8.070,-0.062
8.071,-0.059
8.072,-0.058
8.073,-0.056
8.074,-0.059
8.075,-0.059
8.076,-0.061
8.077,-0.062
8.078,-0.066
8.079,-0.066
8.080,-0.066
8.081,-0.066
8.082,-0.064
8.083,-0.066
8.084,-0.066
8.085,-0.066
8.086,-0.064
8.087,-0.059
8.088,-0.056
8.089,-0.056
8.090,-0.061
8.091,-0.062
8.092,-0.061
8.093,-0.062
8.094,-0.064
8.095,-0.062
8.096,-0.062
8.097,-0.062
8.098,-0.062
8.099,-0.062
8.100,-0.066
8.101,-0.066
8.102,-0.064
8.103,-0.062
8.104,-0.066
8.105,-0.066
8.106,-0.064
8.107,-0.059
8.108,-0.056
8.109,-0.056
8.110,-0.056
8.111,-0.056
8.112,-0.056
8.113,-0.056
8.114,-0.059
8.115,-0.059
8.116,-0.057
8.117,-0.059
8.118,-0.058
8.119,-0.056
8.120,-0.057
8.121,-0.059
8.122,-0.058
8.123,-0.053
8.124,-0.053
8.125,-0.053
8.126,-0.057
8.127,-0.056
8.128,-0.052
8.129,-0.053
8.130,-0.050
8.131,-0.050
8.132,-0.053
8.133,-0.053
8.134,-0.050
8.135,-0.053
8.136,-0.047
8.137,-0.047
8.138,-0.050
8.139,-0.050
8.140,-0.051
8.141,-0.050
8.142,-0.049
8.143,-0.047
8.144,-0.051
8.145,-0.050
8.146,-0.047
8.147,-0.047
8.148,-0.051
8.149,-0.050
8.150,-0.050
8.151,-0.050
8.152,-0.050
8.153,-0.050
8.154,-0.049
8.155,-0.047
8.156,-0.044
8.157,-0.044
8.158,-0.044
8.159,-0.044
8.160,-0.043
8.161,-0.041
8.162,-0.037
8.163,-0.037
8.164,-0.039
8.165,-0.041
8.166,-0.039
8.167,-0.041
8.168,-0.037
8.169,-0.034
8.170,-0.033
8.171,-0.031
8.172,-0.031
8.173,-0.031
8.174,-0.028
8.175,-0.028
8.176,-0.029
8.177,-0.031
8.178,-0.025
8.179,-0.022
8.180,-0.026
8.181,-0.025
8.182,-0.026
8.183,-0.025
8.184,-0.022
8.185,-0.025
8.186,-0.022
8.187,-0.022
8.188,-0.019
8.189,-0.019
8.190,-0.017
8.191,-0.016
8.192,-0.014
8.193,-0.012
8.194,-0.014
8.195,-0.016
8.196,-0.012
8.197,-0.012
8.198,-0.014
8.199,-0.012
8.200,-0.014
8.201,-0.012
8.202,-0.012
8.203,-0.012
8.204,-0.012
8.205,-0.012
8.206,-0.008
8.207,0.000
8.208,-0.001
8.209,-0.003
8.210,-0.001
8.211,-0.003
8.212,-0.004
8.213,-0.003
8.214,0.000
8.215,0.000
8.216,0.000
8.217,0.000
8.218,0.004
8.219,0.009
8.220,0.009
8.221,0.009
8.222,0.009
8.223,0.009
8.224,0.013
8.225,0.009
8.226,0.011
8.227,0.009
8.228,0.009
8.229,0.009
8.230,0.013
8.231,0.016
8.232,0.017
8.233,0.022
8.234,0.021
8.235,0.019
8.236,0.022
8.237,0.022
8.238,0.023
8.239,0.025
8.240,0.025
8.241,0.025
8.242,0.031
8.243,0.031
8.244,0.031
8.245,0.031
8.246,0.031
8.247,0.031
8.248,0.034
8.249,0.038
8.250,0.039
8.251,0.041
8.252,0.039
8.253,0.041
8.254,0.042
8.255,0.047
8.256,0.047
8.257,0.047
8.258,0.046
8.259,0.047
8.260,0.050
8.261,0.050
8.262,0.050
8.263,0.050
8.264,0.053
8.265,0.059
8.266,0.059
8.267,0.063
8.268,0.061
8.269,0.059
8.270,0.061
8.271,0.059
8.272,0.061
8.273,0.066
8.274,0.064
8.275,0.066
8.276,0.070
8.277,0.072
8.278,0.072
8.279,0.075
8.280,0.079
8.281,0.081
8.282,0.080
8.283,0.081
8.284,0.080
8.285,0.081
8.286,0.084
8.287,0.087
8.288,0.089
8.289,0.091
8.290,0.093
8.291,0.091
8.292,0.091
8.293,0.091
8.294,0.089
8.295,0.091
8.296,0.095
8.297,0.097
8.298,0.096
8.299,0.097
8.300,0.098
8.301,0.100
8.302,0.101
8.303,0.100
8.304,0.099
8.305,0.097
8.306,0.101
8.307,0.103
8.308,0.100
8.309,0.100
8.310,0.099
8.311,0.094
8.312,0.093
8.313,0.091
8.314,0.089
8.315,0.087
8.316,0.087
8.317,0.087
8.318,0.086
8.319,0.087
8.320,0.086
8.321,0.084
8.322,0.086
8.323,0.087
8.324,0.077
8.325,0.072
8.326,0.068
8.327,0.063
8.328,0.059
8.329,0.059
8.330,0.058
8.331,0.053
8.332,0.051
8.333,0.053
8.334,0.049
8.335,0.047
8.336,0.048
8.337,0.047
8.338,0.041
8.339,0.038
8.340,0.038
8.341,0.034
8.342,0.033
8.343,0.034
8.344,0.031
8.345,0.028
8.346,0.026
8.347,0.025
8.348,0.021
8.349,0.016
8.350,0.014
8.351,0.016
8.352,0.019
8.353,0.022
8.354,0.019
8.355,0.016
8.356,0.016
8.357,0.013
8.358,0.011
8.359,0.009
8.360,0.011
8.361,0.009
8.362,0.013
8.363,0.009
8.364,0.006
8.365,0.006
8.366,0.006
8.367,0.006
8.368,0.006
8.369,0.006
8.370,0.005
8.371,0.003
8.372,0.000
8.373,0.000
8.374,0.001
8.375,0.000
8.376,0.003
8.377,0.003
8.378,0.003
8.379,0.003
8.380,0.002
8.381,0.000
8.382,-0.001
8.383,-0.006
8.384,-0.003
8.385,-0.006
8.386,-0.002
8.387,-0.003
8.388,-0.003
8.389,-0.003
8.390,-0.003
8.391,-0.003
8.392,-0.002
8.393,0.003
8.394,0.002
8.395,0.000
8.396,0.000
8.397,0.000
8.398,-0.001
8.399,-0.003
8.400,0.000
8.401,0.003
8.402,0.002
8.403,0.003
8.404,0.003
8.405,0.003
8.406,0.003
8.407,0.003
8.408,0.000
8.409,0.003
8.410,0.003
8.411,0.003
8.412,0.003
8.413,0.003
8.414,0.000
8.415,-0.003
8.416,-0.004
8.417,-0.006
8.418,-0.007
8.419,-0.009
8.420,-0.008
8.421,-0.006
8.422,-0.005
8.423,-0.003
8.424,-0.002
8.425,0.000
8.426,0.000
8.427,0.000
8.428,-0.002
8.429,0.003
8.430,0.000
8.431,-0.003
8.432,-0.003
8.433,-0.003
8.434,0.000
8.435,0.003
8.436,0.003
8.437,0.003
8.438,0.003
8.439,0.003
8.440,0.003
8.441,0.000
8.442,0.003
8.443,0.000
8.444,0.003
8.445,0.003
8.446,0.003
8.447,0.003
8.448,0.004
8.449,0.003
8.450,0.003
8.451,0.000
8.452,0.000
8.453,0.003
8.454,0.003
8.455,0.003
8.456,0.000
8.457,0.000
8.458,0.000
8.459,0.000
8.460,0.000
8.461,0.000
8.462,0.001
8.463,0.003
8.464,0.000
8.465,0.000
8.466,0.000
8.467,0.000
8.468,-0.001
8.469,-0.006
8.470,-0.006
8.471,-0.006
8.472,-0.009
8.473,-0.006
8.474,-0.009
8.475,-0.006
8.476,-0.008
8.477,-0.006
8.478,-0.012
8.479,-0.012
8.480,-0.016
8.481,-0.012
8.482,-0.016
8.483,-0.012
8.484,-0.016
8.485,-0.016
8.486,-0.014
8.487,-0.012
8.488,-0.016
8.489,-0.016
8.490,-0.014
8.491,-0.016
8.492,-0.016
8.493,-0.016
8.494,-0.011
8.495,-0.012
8.496,-0.016
8.497,-0.019
8.498,-0.023
8.499,-0.025
8.500,-0.025
8.501,-0.025
8.502,-0.022
8.503,-0.019
8.504,-0.020
8.505,-0.022
8.506,-0.023
8.507,-0.025
8.508,-0.024
8.509,-0.025
8.510,-0.022
8.511,-0.022
8.512,-0.025
8.513,-0.025
8.514,-0.024
8.515,-0.022
8.516,-0.025
8.517,-0.025
8.518,-0.024
8.519,-0.025
8.520,-0.025
8.521,-0.022
8.522,-0.026
8.523,-0.028
8.524,-0.029
8.525,-0.031
8.526,-0.031
8.527,-0.031
8.528,-0.030
8.529,-0.028
8.530,-0.028
8.531,-0.028
8.532,-0.028
8.533,-0.031
8.534,-0.029
8.535,-0.031
8.536,-0.030
8.537,-0.028
8.538,-0.031
8.539,-0.031
8.540,-0.032
8.541,-0.034
8.542,-0.034
8.543,-0.037
8.544,-0.037
8.545,-0.037
8.546,-0.039
8.547,-0.037
8.548,-0.034
8.549,-0.034
8.550,-0.031
8.551,-0.034
8.552,-0.034
8.553,-0.031
8.554,-0.037
8.555,-0.037
8.556,-0.034
8.557,-0.034
8.558,-0.034
8.559,-0.034
8.560,-0.034
8.561,-0.034
8.562,-0.033
8.563,-0.034
8.564,-0.034
8.565,-0.034
8.566,-0.034
8.567,-0.034
8.568,-0.032
8.569,-0.031
8.570,-0.034
8.571,-0.034
8.572,-0.034
8.573,-0.034
8.574,-0.033
8.575,-0.034
8.576,-0.039
8.577,-0.044
8.578,-0.044
8.579,-0.044
8.580,-0.043
8.581,-0.041
8.582,-0.041
8.583,-0.041
8.584,-0.042
8.585,-0.044
8.586,-0.045
8.587,-0.047
8.588,-0.046
8.589,-0.044
8.590,-0.044
8.591,-0.044
8.592,-0.044
8.593,-0.044
8.594,-0.047
8.595,-0.047
8.596,-0.043
8.597,-0.044
8.598,-0.044
8.599,-0.044
8.600,-0.045
8.601,-0.047
8.602,-0.053
8.603,-0.053
8.604,-0.049
8.605,-0.047
8.606,-0.050
8.607,-0.050
8.608,-0.050
8.609,-0.050
8.610,-0.050
8.611,-0.050
8.612,-0.050
8.613,-0.050
8.614,-0.050
8.615,-0.050
8.616,-0.049
8.617,-0.047
8.618,-0.050
8.619,-0.050
8.620,-0.051
8.621,-0.053
8.622,-0.050
8.623,-0.050
8.624,-0.049
8.625,-0.050
8.626,-0.050
8.627,-0.050
8.628,-0.050
8.629,-0.050
8.630,-0.050
8.631,-0.050
8.632,-0.053
8.633,-0.050
8.634,-0.050
8.635,-0.050
8.636,-0.050
8.637,-0.050
8.638,-0.051
8.639,-0.053
8.640,-0.052
8.641,-0.050
8.642,-0.053
8.643,-0.053
8.644,-0.050
8.645,-0.050
8.646,-0.051
8.647,-0.053
8.648,-0.054
8.649,-0.056
8.650,-0.053
8.651,-0.053
8.652,-0.052
8.653,-0.053
8.654,-0.053
8.655,-0.053
8.656,-0.053
8.657,-0.050
8.658,-0.054
8.659,-0.053
8.660,-0.054
8.661,-0.059
8.662,-0.059
8.663,-0.059
8.664,-0.056
8.665,-0.053
8.666,-0.052
8.667,-0.050
8.668,-0.051
8.669,-0.056
8.670,-0.059
8.671,-0.059
8.672,-0.056
8.673,-0.056
8.674,-0.056
8.675,-0.059
8.676,-0.061
8.677,-0.062
8.678,-0.058
8.679,-0.056
8.680,-0.053
8.681,-0.050
8.682,-0.050
8.683,-0.053
8.684,-0.053
8.685,-0.053
8.686,-0.053
8.687,-0.053
8.688,-0.054
8.689,-0.056
8.690,-0.052
8.691,-0.053
8.692,-0.053
8.693,-0.053
8.694,-0.054
8.695,-0.056
8.696,-0.055
8.697,-0.053
8.698,-0.053
8.699,-0.053
8.700,-0.053
8.701,-0.053
8.702,-0.050
8.703,-0.053
8.704,-0.054
8.705,-0.053
8.706,-0.050
8.707,-0.050
8.708,-0.050
8.709,-0.047
8.710,-0.046
8.711,-0.041
8.712,-0.042
8.713,-0.041
8.714,-0.036
8.715,-0.031
8.716,-0.028
8.717,-0.019
8.718,-0.008
8.719,0.000
8.720,0.004
8.721,0.006
8.722,0.009
8.723,0.009
8.724,0.017
8.725,0.025
8.726,0.031
8.727,0.038
8.728,0.038
8.729,0.038
8.730,0.039
8.731,0.034
8.732,0.031
8.733,0.031
8.734,0.031
8.735,0.031
8.736,0.029
8.737,0.031
8.738,0.030
8.739,0.028
8.740,0.029
8.741,0.034
8.742,0.042
8.743,0.050
8.744,0.055
8.745,0.059
8.746,0.064
8.747,0.069
8.748,0.068
8.749,0.066
8.750,0.068
8.751,0.072
8.752,0.078
8.753,0.087
8.754,0.100
8.755,0.106
8.756,0.103
8.757,0.103
8.758,0.102
8.759,0.097
8.760,0.089
8.761,0.081
8.762,0.074
8.763,0.069
8.764,0.066
8.765,0.059
8.766,0.056
8.767,0.053
8.768,0.044
8.769,0.038
8.770,0.033
8.771,0.031
8.772,0.031
8.773,0.028
8.774,0.022
8.775,0.016
8.776,0.009
8.777,0.003
8.778,-0.009
8.779,-0.019
8.780,-0.021
8.781,-0.019
8.782,-0.022
8.783,-0.022
8.784,-0.019
8.785,-0.022
8.786,-0.025
8.787,-0.028
8.788,-0.030
8.789,-0.034
8.790,-0.034
8.791,-0.034
8.792,-0.036
8.793,-0.034
8.794,-0.039
8.795,-0.044
8.796,-0.051
8.797,-0.053
8.798,-0.059
8.799,-0.062
8.800,-0.062
8.801,-0.066
8.802,-0.066
8.803,-0.069
8.804,-0.067
8.805,-0.069
8.806,-0.070
8.807,-0.072
8.808,-0.075
8.809,-0.075
8.810,-0.074
8.811,-0.069
8.812,-0.069
8.813,-0.069
8.814,-0.069
8.815,-0.072
8.816,-0.071
8.817,-0.072
8.818,-0.072
8.819,-0.072
8.820,-0.071
8.821,-0.069
8.822,-0.070
8.823,-0.069
8.824,-0.067
8.825,-0.069
8.826,-0.067
8.827,-0.072
8.828,-0.070
8.829,-0.072
8.830,-0.071
8.831,-0.069
8.832,-0.070
8.833,-0.069
8.834,-0.067
8.835,-0.069
8.836,-0.072
8.837,-0.072
8.838,-0.072
8.839,-0.072
8.840,-0.072
8.841,-0.072
8.842,-0.076
8.843,-0.081
8.844,-0.083
8.845,-0.081
8.846,-0.086
8.847,-0.087
8.848,-0.094
8.849,-0.103
8.850,-0.114
8.851,-0.122
8.852,-0.127
8.853,-0.125
8.854,-0.124
8.855,-0.112
8.856,-0.099
8.857,-0.084
8.858,-0.072
8.859,-0.047
8.860,-0.022
8.861,0.009
8.862,0.041
8.863,0.078
8.864,0.119
8.865,0.163
8.866,0.216
8.867,0.272
8.868,0.328
8.869,0.381
8.870,0.431
8.871,0.478
8.872,0.538
8.873,0.603
8.874,0.674
8.875,0.744
8.876,0.809
8.877,0.869
8.878,0.922
8.879,0.972
8.880,1.018
8.881,1.059
8.882,1.081
8.883,1.084
8.884,1.080
8.885,1.056
8.886,1.014
8.887,0.944
8.888,0.873
8.889,0.794
8.890,0.716
8.891,0.641
8.892,0.573
8.893,0.509
8.894,0.443
8.895,0.375
8.896,0.305
8.897,0.238
8.898,0.174
8.899,0.106
8.900,0.053
8.901,0.009
8.902,-0.017
8.903,-0.025
8.904,-0.033
8.905,-0.025
8.906,-0.021
8.907,-0.016
8.908,-0.025
8.909,-0.041
8.910,-0.053
8.911,-0.062
8.912,-0.071
8.913,-0.078
8.914,-0.089
8.915,-0.091
8.916,-0.092
8.917,-0.094
8.918,-0.092
8.919,-0.087
8.920,-0.080
8.921,-0.072
8.922,-0.067
8.923,-0.066
8.924,-0.059
8.925,-0.053
8.926,-0.054
8.927,-0.053
8.928,-0.054
8.929,-0.053
8.930,-0.051
8.931,-0.050
8.932,-0.048
8.933,-0.050
8.934,-0.049
8.935,-0.050
8.936,-0.050
8.937,-0.053
8.938,-0.056
8.939,-0.056
8.940,-0.062
8.941,-0.066
8.942,-0.066
8.943,-0.069
8.944,-0.070
8.945,-0.069
8.946,-0.067
8.947,-0.066
8.948,-0.067
8.949,-0.066
8.950,-0.067
8.951,-0.066
8.952,-0.064
8.953,-0.062
8.954,-0.064
8.955,-0.062
8.956,-0.066
8.957,-0.066
8.958,-0.064
8.959,-0.066
8.960,-0.064
8.961,-0.062
8.962,-0.067
8.963,-0.066
8.964,-0.066
8.965,-0.066
8.966,-0.064
8.967,-0.066
8.968,-0.066
8.969,-0.066
8.970,-0.064
8.971,-0.062
8.972,-0.066
8.973,-0.066
8.974,-0.066
8.975,-0.066
8.976,-0.067
8.977,-0.066
8.978,-0.066
8.979,-0.066
8.980,-0.064
8.981,-0.066
8.982,-0.066
8.983,-0.066
8.984,-0.067
8.985,-0.066
8.986,-0.064
8.987,-0.066
8.988,-0.067
8.989,-0.066
8.990,-0.064
8.991,-0.066
8.992,-0.067
8.993,-0.066
8.994,-0.066
8.995,-0.066
8.996,-0.066
8.997,-0.066
8.998,-0.067
8.999,-0.066
9.000,-0.064
9.001,-0.062
9.002,-0.066
9.003,-0.066
9.004,-0.069
9.005,-0.069
9.006,-0.066
9.007,-0.066
9.008,-0.066
9.009,-0.066
9.010,-0.066
9.011,-0.066
9.012,-0.069
9.013,-0.069
9.014,-0.066
9.015,-0.066
9.016,-0.066
9.017,-0.066
9.018,-0.066
9.019,-0.066
9.020,-0.067
9.021,-0.066
9.022,-0.061
9.023,-0.056
9.024,-0.061
9.025,-0.059
9.026,-0.057
9.027,-0.062
9.028,-0.059
9.029,-0.059
9.030,-0.061
9.031,-0.059
9.032,-0.056
9.033,-0.059
9.034,-0.054
9.035,-0.056
9.036,-0.058
9.037,-0.056
9.038,-0.056
9.039,-0.053
9.040,-0.052
9.041,-0.050
9.042,-0.056
9.043,-0.056
9.044,-0.053
9.045,-0.053
9.046,-0.055
9.047,-0.050
9.048,-0.050
9.049,-0.050
9.050,-0.050
9.051,-0.050
9.052,-0.051
9.053,-0.053
9.054,-0.049
9.055,-0.047
9.056,-0.047
9.057,-0.047
9.058,-0.048
9.059,-0.050
9.060,-0.048
9.061,-0.050
9.062,-0.047
9.063,-0.044
9.064,-0.042
9.065,-0.044
9.066,-0.045
9.067,-0.047
9.068,-0.046
9.069,-0.044
9.070,-0.041
9.071,-0.037
9.072,-0.036
9.073,-0.037
9.074,-0.037
9.075,-0.037
9.076,-0.034
9.077,-0.034
9.078,-0.037
9.079,-0.034
9.080,-0.036
9.081,-0.034
9.082,-0.030
9.083,-0.031
9.084,-0.029
9.085,-0.031
9.086,-0.028
9.087,-0.028
9.088,-0.025
9.089,-0.022
9.090,-0.022
9.091,-0.022
9.092,-0.022
9.093,-0.022
9.094,-0.020
9.095,-0.022
9.096,-0.025
9.097,-0.025
9.098,-0.022
9.099,-0.016
9.100,-0.016
9.101,-0.016
9.102,-0.017
9.103,-0.019
9.104,-0.020
9.105,-0.019
9.106,-0.016
9.107,-0.012
9.108,-0.008
9.109,-0.006
9.110,-0.007
9.111,-0.006
9.112,-0.004
9.113,-0.006
9.114,-0.003
9.115,0.000
9.116,0.000
9.117,0.000
9.118,0.000
9.119,0.000
9.120,0.001
9.121,0.003
9.122,0.008
9.123,0.006
9.124,0.008
9.125,0.006
9.126,0.006
9.127,0.006
9.128,0.011
9.129,0.016
9.130,0.016
9.131,0.019
9.132,0.022
9.133,0.025
9.134,0.027
9.135,0.025
9.136,0.024
9.137,0.022
9.138,0.021
9.139,0.019
9.140,0.026
9.141,0.028
9.142,0.028
9.143,0.028
9.144,0.028
9.145,0.028
9.146,0.028
9.147,0.028
9.148,0.028
9.149,0.028
9.150,0.028
9.151,0.031
9.152,0.033
9.153,0.038
9.154,0.038
9.155,0.038
9.156,0.039
9.157,0.044
9.158,0.047
9.159,0.047
9.160,0.047
9.161,0.047
9.162,0.046
9.163,0.047
9.164,0.047
9.165,0.050
9.166,0.050
9.167,0.050
9.168,0.052
9.169,0.050
9.170,0.050
9.171,0.053
9.172,0.054
9.173,0.059
9.174,0.063
9.175,0.063
9.176,0.061
9.177,0.063
9.178,0.064
9.179,0.063
9.180,0.064
9.181,0.069
9.182,0.068
9.183,0.069
9.184,0.073
9.185,0.078
9.186,0.078
9.187,0.078
9.188,0.081
9.189,0.081
9.190,0.083
9.191,0.084
9.192,0.083
9.193,0.084
9.194,0.092
9.195,0.097
9.196,0.094
9.197,0.094
9.198,0.091
9.199,0.087
9.200,0.087
9.201,0.084
9.202,0.083
9.203,0.081
9.204,0.086
9.205,0.087
9.206,0.084
9.207,0.084
9.208,0.081
9.209,0.075
9.210,0.076
9.211,0.078
9.212,0.076
9.213,0.075
9.214,0.074
9.215,0.072
9.216,0.070
9.217,0.072
9.218,0.069
9.219,0.066
9.220,0.067
9.221,0.069
9.222,0.063
9.223,0.063
9.224,0.063
9.225,0.063
9.226,0.058
9.227,0.056
9.228,0.056
9.229,0.053
9.230,0.049
9.231,0.047
9.232,0.045
9.233,0.047
9.234,0.044
9.235,0.038
9.236,0.031
9.237,0.028
9.238,0.029
9.239,0.028
9.240,0.025
9.241,0.025
9.242,0.021
9.243,0.016
9.244,0.014
9.245,0.013
9.246,0.011
9.247,0.009
9.248,0.006
9.249,0.006
9.250,0.005
9.251,0.003
9.252,0.001
9.253,0.000
9.254,0.001
9.255,0.000
9.256,0.000
9.257,0.000
9.258,-0.003
9.259,-0.009
9.260,-0.005
9.261,-0.006
9.262,-0.009
9.263,-0.009
9.264,-0.009
9.265,-0.009
9.266,-0.009
9.267,-0.009
9.268,-0.009
9.269,-0.009
9.270,-0.012
9.271,-0.012
9.272,-0.012
9.273,-0.016
9.274,-0.014
9.275,-0.016
9.276,-0.016
9.277,-0.016
9.278,-0.016
9.279,-0.016
9.280,-0.016
9.281,-0.019
9.282,-0.016
9.283,-0.019
9.284,-0.016
9.285,-0.019
9.286,-0.014
9.287,-0.009
9.288,-0.009
9.289,-0.009
9.290,-0.012
9.291,-0.012
9.292,-0.012
9.293,-0.012
9.294,-0.012
9.295,-0.012
9.296,-0.012
9.297,-0.012
9.298,-0.012
9.299,-0.012
9.300,-0.012
9.301,-0.009
9.302,-0.011
9.303,-0.012
9.304,-0.012
9.305,-0.012
9.306,-0.017
9.307,-0.016
9.308,-0.016
9.309,-0.016
9.310,-0.014
9.311,-0.012
9.312,-0.012
9.313,-0.012
9.314,-0.012
9.315,-0.012
9.316,-0.016
9.317,-0.019
9.318,-0.017
9.319,-0.016
9.320,-0.016
9.321,-0.016
9.322,-0.016
9.323,-0.016
9.324,-0.014
9.325,-0.012
9.326,-0.017
9.327,-0.016
9.328,-0.016
9.329,-0.016
9.330,-0.016
9.331,-0.016
9.332,-0.016
9.333,-0.016
9.334,-0.016
9.335,-0.016
9.336,-0.016
9.337,-0.016
9.338,-0.016
9.339,-0.019
9.340,-0.012
9.341,-0.012
9.342,-0.006
9.343,-0.003
9.344,-0.003
9.345,-0.003
9.346,-0.002
9.347,-0.003
9.348,-0.003
9.349,-0.006
9.350,-0.012
9.351,-0.016
9.352,-0.014
9.353,-0.012
9.354,-0.020
9.355,-0.025
9.356,-0.025
9.357,-0.025
9.358,-0.025
9.359,-0.025
9.360,-0.022
9.361,-0.019
9.362,-0.022
9.363,-0.022
9.364,-0.023
9.365,-0.025
9.366,-0.024
9.367,-0.025
9.368,-0.024
9.369,-0.022
9.370,-0.025
9.371,-0.022
9.372,-0.026
9.373,-0.025
9.374,-0.027
9.375,-0.025
9.376,-0.029
9.377,-0.028
9.378,-0.031
9.379,-0.028
9.380,-0.031
9.381,-0.028
9.382,-0.030
9.383,-0.028
9.384,-0.028
9.385,-0.028
9.386,-0.032
9.387,-0.034
9.388,-0.036
9.389,-0.041
9.390,-0.041
9.391,-0.041
9.392,-0.037
9.393,-0.041
9.394,-0.039
9.395,-0.037
9.396,-0.041
9.397,-0.041
9.398,-0.041
9.399,-0.041
9.400,-0.041
9.401,-0.041
9.402,-0.041
9.403,-0.041
9.404,-0.042
9.405,-0.044
9.406,-0.044
9.407,-0.047
9.408,-0.044
9.409,-0.044
9.410,-0.047
9.411,-0.047
9.412,-0.046
9.413,-0.044
9.414,-0.047
9.415,-0.047
9.416,-0.046
9.417,-0.047
9.418,-0.047
9.419,-0.044
9.420,-0.047
9.421,-0.047
9.422,-0.047
9.423,-0.047
9.424,-0.047
9.425,-0.047
9.426,-0.048
