'Elapsed time','II'
'seconds','mV'
0,-0.111
0.001,-0.072
0.002,-0.076
0.003,-0.075
0.004,-0.071
0.005,-0.066
0.006,-0.055
0.007,-0.044
0.008,-0.042
0.009,-0.037
0.01,-0.037
0.011,-0.034
0.012,-0.028
0.013,-0.025
0.014,-0.022
0.015,-0.016
0.016,-0.014
0.017,-0.013
0.018,-0.008
0.019,-0.003
0.02,0.002
0.021,0
0.022,0.003
0.023,0.006
0.024,0.006
0.025,0.009
0.026,0.006
0.027,0.006
0.028,0.005
0.029,0.003
0.03,0.006
0.031,0.013
0.032,0.016
0.033,0.022
0.034,0.031
0.035,0.037
0.036,0.041
0.037,0.047
0.038,0.053
0.039,0.056
0.04,0.058
0.041,0.063
0.042,0.075
0.043,0.084
0.044,0.092
0.045,0.1
0.046,0.108
0.047,0.106
0.048,0.105
0.049,0.106
0.05,0.108
0.051,0.116
0.052,0.122
0.053,0.128
0.054,0.13
0.055,0.131
0.056,0.142
0.057,0.153
0.058,0.159
0.059,0.162
0.06,0.164
0.061,0.162
0.062,0.164
0.063,0.166
0.064,0.162
0.065,0.153
0.066,0.149
0.067,0.147
0.068,0.141
0.069,0.144
0.07,0.144
0.071,0.144
0.072,0.139
0.073,0.134
0.074,0.129
0.075,0.128
0.076,0.125
0.077,0.119
0.078,0.108
0.079,0.097
0.08,0.089
0.081,0.081
0.082,0.072
0.083,0.063
0.084,0.055
0.085,0.044
0.086,0.027
0.087,0.013
0.088,0.003
0.089,-0.003
0.09,-0.014
0.091,-0.022
0.092,-0.032
0.093,-0.041
0.094,-0.047
0.095,-0.053
0.096,-0.063
0.097,-0.069
0.098,-0.074
0.099,-0.078
0.1,-0.084
0.101,-0.094
0.102,-0.103
0.103,-0.113
0.104,-0.122
0.105,-0.125
0.106,-0.131
0.107,-0.138
0.108,-0.139
0.109,-0.141
0.11,-0.144
0.111,-0.141
0.112,-0.143
0.113,-0.144
0.114,-0.145
0.115,-0.147
0.116,-0.148
0.117,-0.15
0.118,-0.15
0.119,-0.153
0.12,-0.152
0.121,-0.15
0.122,-0.153
0.123,-0.153
0.124,-0.15
0.125,-0.147
0.126,-0.147
0.127,-0.147
0.128,-0.15
0.129,-0.156
0.13,-0.156
0.131,-0.156
0.132,-0.156
0.133,-0.15
0.134,-0.151
0.135,-0.159
0.136,-0.158
0.137,-0.159
0.138,-0.158
0.139,-0.153
0.14,-0.15
0.141,-0.15
0.142,-0.154
0.143,-0.156
0.144,-0.156
0.145,-0.156
0.146,-0.156
0.147,-0.156
0.148,-0.156
0.149,-0.156
0.15,-0.156
0.151,-0.156
0.152,-0.156
0.153,-0.156
0.154,-0.155
0.155,-0.15
0.156,-0.15
0.157,-0.15
0.158,-0.147
0.159,-0.144
0.16,-0.145
0.161,-0.144
0.162,-0.144
0.163,-0.144
0.164,-0.144
0.165,-0.144
0.166,-0.143
0.167,-0.141
0.168,-0.141
0.169,-0.138
0.17,-0.145
0.171,-0.156
0.172,-0.166
0.173,-0.175
0.174,-0.184
0.175,-0.194
0.176,-0.2
0.177,-0.2
0.178,-0.202
0.179,-0.2
0.18,-0.203
0.181,-0.206
0.182,-0.199
0.183,-0.178
0.184,-0.153
0.185,-0.128
0.186,-0.102
0.187,-0.075
0.188,-0.046
0.189,-0.013
0.19,0.019
0.191,0.059
0.192,0.104
0.193,0.156
0.194,0.226
0.195,0.303
0.196,0.383
0.197,0.459
0.198,0.537
0.199,0.616
0.2,0.694
0.201,0.778
0.202,0.867
0.203,0.959
0.204,1.064
0.205,1.172
0.206,1.278
0.207,1.391
0.208,1.502
0.209,1.616
0.21,1.708
0.211,1.781
0.212,1.816
0.213,1.822
0.214,1.774
0.215,1.666
0.216,1.523
0.217,1.366
0.218,1.209
0.219,1.069
0.22,0.939
0.221,0.809
0.222,0.675
0.223,0.534
0.224,0.42
0.225,0.334
0.226,0.27
0.227,0.219
0.228,0.171
0.229,0.128
0.23,0.091
0.231,0.053
0.232,0.014
0.233,-0.022
0.234,-0.046
0.235,-0.059
0.236,-0.069
0.237,-0.078
0.238,-0.091
0.239,-0.091
0.24,-0.092
0.241,-0.094
0.242,-0.093
0.243,-0.094
0.244,-0.096
0.245,-0.1
0.246,-0.103
0.247,-0.106
0.248,-0.105
0.249,-0.106
0.25,-0.109
0.251,-0.109
0.252,-0.111
0.253,-0.113
0.254,-0.116
0.255,-0.119
0.256,-0.122
0.257,-0.122
0.258,-0.128
0.259,-0.131
0.26,-0.134
0.261,-0.138
0.262,-0.139
0.263,-0.138
0.264,-0.133
0.265,-0.134
0.266,-0.131
0.267,-0.131
0.268,-0.133
0.269,-0.134
0.27,-0.139
0.271,-0.141
0.272,-0.134
0.273,-0.131
0.274,-0.131
0.275,-0.131
0.276,-0.131
0.277,-0.131
0.278,-0.13
0.279,-0.128
0.28,-0.128
0.281,-0.125
0.282,-0.125
0.283,-0.119
0.284,-0.116
0.285,-0.116
0.286,-0.117
0.287,-0.119
0.288,-0.12
0.289,-0.119
0.29,-0.116
0.291,-0.113
0.292,-0.114
0.293,-0.116
0.294,-0.114
0.295,-0.113
0.296,-0.113
0.297,-0.109
0.298,-0.113
0.299,-0.116
0.3,-0.117
0.301,-0.116
0.302,-0.111
0.303,-0.113
0.304,-0.108
0.305,-0.109
0.306,-0.111
0.307,-0.109
0.308,-0.109
0.309,-0.109
0.31,-0.111
0.311,-0.113
0.312,-0.109
0.313,-0.109
0.314,-0.105
0.315,-0.1
0.316,-0.101
0.317,-0.1
0.318,-0.101
0.319,-0.1
0.32,-0.099
0.321,-0.094
0.322,-0.096
0.323,-0.094
0.324,-0.095
0.325,-0.097
0.326,-0.1
0.327,-0.1
0.328,-0.097
0.329,-0.091
0.33,-0.091
0.331,-0.091
0.332,-0.092
0.333,-0.091
0.334,-0.092
0.335,-0.094
0.336,-0.094
0.337,-0.094
0.338,-0.094
0.339,-0.094
0.34,-0.093
0.341,-0.088
0.342,-0.086
0.343,-0.088
0.344,-0.089
0.345,-0.088
0.346,-0.089
0.347,-0.091
0.348,-0.086
0.349,-0.084
0.35,-0.086
0.351,-0.084
0.352,-0.088
0.353,-0.088
0.354,-0.083
0.355,-0.081
0.356,-0.081
0.357,-0.078
0.358,-0.075
0.359,-0.072
0.36,-0.072
0.361,-0.072
0.362,-0.075
0.363,-0.075
0.364,-0.074
0.365,-0.075
0.366,-0.076
0.367,-0.078
0.368,-0.075
0.369,-0.075
0.37,-0.073
0.371,-0.075
0.372,-0.075
0.373,-0.072
0.374,-0.071
0.375,-0.069
0.376,-0.066
0.377,-0.059
0.378,-0.058
0.379,-0.056
0.38,-0.054
0.381,-0.056
0.382,-0.052
0.383,-0.05
0.384,-0.044
0.385,-0.041
0.386,-0.041
0.387,-0.044
0.388,-0.045
0.389,-0.044
0.39,-0.044
0.391,-0.041
0.392,-0.036
0.393,-0.034
0.394,-0.033
0.395,-0.028
0.396,-0.029
0.397,-0.028
0.398,-0.026
0.399,-0.028
0.4,-0.022
0.401,-0.019
0.402,-0.019
0.403,-0.019
0.404,-0.019
0.405,-0.016
0.406,-0.017
0.407,-0.016
0.408,-0.016
0.409,-0.013
0.41,-0.014
0.411,-0.013
0.412,-0.006
0.413,-0.003
0.414,0.003
0.415,0.009
0.416,0.006
0.417,0.006
0.418,0.011
0.419,0.016
0.42,0.014
0.421,0.013
0.422,0.017
0.423,0.022
0.424,0.024
0.425,0.022
0.426,0.021
0.427,0.022
0.428,0.018
0.429,0.019
0.43,0.02
0.431,0.022
0.432,0.025
0.433,0.028
0.434,0.03
0.435,0.031
0.436,0.03
0.437,0.031
0.438,0.032
0.439,0.034
0.44,0.037
0.441,0.037
0.442,0.041
0.443,0.041
0.444,0.039
0.445,0.041
0.446,0.036
0.447,0.037
0.448,0.039
0.449,0.041
0.45,0.047
0.451,0.053
0.452,0.05
0.453,0.05
0.454,0.047
0.455,0.047
0.456,0.049
0.457,0.047
0.458,0.047
0.459,0.047
0.46,0.047
0.461,0.047
0.462,0.047
0.463,0.047
0.464,0.049
0.465,0.047
0.466,0.053
0.467,0.059
0.468,0.056
0.469,0.056
0.47,0.055
0.471,0.053
0.472,0.053
0.473,0.056
0.474,0.056
0.475,0.056
0.476,0.058
0.477,0.063
0.478,0.063
0.479,0.063
0.48,0.063
0.481,0.063
0.482,0.064
0.483,0.063
0.484,0.059
0.485,0.063
0.486,0.066
0.487,0.066
0.488,0.064
0.489,0.063
0.49,0.063
0.491,0.063
0.492,0.063
0.493,0.063
0.494,0.063
0.495,0.066
0.496,0.064
0.497,0.066
0.498,0.066
0.499,0.066
0.5,0.069
0.501,0.066
0.502,0.066
0.503,0.063
0.504,0.064
0.505,0.063
0.506,0.063
0.507,0.066
0.508,0.063
0.509,0.063
0.51,0.058
0.511,0.053
0.512,0.05
0.513,0.053
0.514,0.05
0.515,0.05
0.516,0.051
0.517,0.047
0.518,0.042
0.519,0.034
0.52,0.031
0.521,0.025
0.522,0.023
0.523,0.025
0.524,0.022
0.525,0.025
0.526,0.021
0.527,0.016
0.528,0.013
0.529,0.009
0.53,0.008
0.531,0.006
0.532,0.001
0.533,0
0.534,0
0.535,-0.003
0.536,-0.005
0.537,-0.006
0.538,-0.005
0.539,-0.003
0.54,-0.009
0.541,-0.016
0.542,-0.017
0.543,-0.025
0.544,-0.025
0.545,-0.022
0.546,-0.022
0.547,-0.025
0.548,-0.027
0.549,-0.028
0.55,-0.027
0.551,-0.028
0.552,-0.031
0.553,-0.034
0.554,-0.033
0.555,-0.037
0.556,-0.036
0.557,-0.034
0.558,-0.034
0.559,-0.031
0.56,-0.039
0.561,-0.041
0.562,-0.043
0.563,-0.041
0.564,-0.044
0.565,-0.044
0.566,-0.047
0.567,-0.05
0.568,-0.052
0.569,-0.05
0.57,-0.053
0.571,-0.053
0.572,-0.052
0.573,-0.05
0.574,-0.051
0.575,-0.053
0.576,-0.054
0.577,-0.056
0.578,-0.055
0.579,-0.056
0.58,-0.055
0.581,-0.053
0.582,-0.058
0.583,-0.056
0.584,-0.055
0.585,-0.056
0.586,-0.056
0.587,-0.056
0.588,-0.055
0.589,-0.056
0.59,-0.053
0.591,-0.053
0.592,-0.058
0.593,-0.059
0.594,-0.061
0.595,-0.063
0.596,-0.063
0.597,-0.063
0.598,-0.059
0.599,-0.056
0.6,-0.056
0.601,-0.059
0.602,-0.058
0.603,-0.059
0.604,-0.059
0.605,-0.056
0.606,-0.063
0.607,-0.066
0.608,-0.066
0.609,-0.063
0.61,-0.059
0.611,-0.056
0.612,-0.056
0.613,-0.056
0.614,-0.055
0.615,-0.056
0.616,-0.056
0.617,-0.056
0.618,-0.059
0.619,-0.063
0.62,-0.063
0.621,-0.066
0.622,-0.067
0.623,-0.069
0.624,-0.064
0.625,-0.063
0.626,-0.064
0.627,-0.063
0.628,-0.067
0.629,-0.066
0.63,-0.064
0.631,-0.063
0.632,-0.063
0.633,-0.066
0.634,-0.067
0.635,-0.069
0.636,-0.068
0.637,-0.066
0.638,-0.07
0.639,-0.069
0.64,-0.07
0.641,-0.072
0.642,-0.072
0.643,-0.072
0.644,-0.076
0.645,-0.078
0.646,-0.075
0.647,-0.075
0.648,-0.074
0.649,-0.075
0.65,-0.076
0.651,-0.075
0.652,-0.077
0.653,-0.078
0.654,-0.077
0.655,-0.072
0.656,-0.074
0.657,-0.072
0.658,-0.073
0.659,-0.075
0.66,-0.075
0.661,-0.075
0.662,-0.077
0.663,-0.075
0.664,-0.076
0.665,-0.078
0.666,-0.081
0.667,-0.084
0.668,-0.086
0.669,-0.088
0.67,-0.088
0.671,-0.091
0.672,-0.086
0.673,-0.084
0.674,-0.084
0.675,-0.084
0.676,-0.084
0.677,-0.084
0.678,-0.088
0.679,-0.084
0.68,-0.088
0.681,-0.088
0.682,-0.084
0.683,-0.088
0.684,-0.088
0.685,-0.088
0.686,-0.088
0.687,-0.088
0.688,-0.088
0.689,-0.088
0.69,-0.092
0.691,-0.091
0.692,-0.091
0.693,-0.091
0.694,-0.089
0.695,-0.088
0.696,-0.084
0.697,-0.088
0.698,-0.089
0.699,-0.091
0.7,-0.097
0.701,-0.1
0.702,-0.097
0.703,-0.097
0.704,-0.093
0.705,-0.088
0.706,-0.088
0.707,-0.088
0.708,-0.088
0.709,-0.088
0.71,-0.088
0.711,-0.088
0.712,-0.088
0.713,-0.088
0.714,-0.088
0.715,-0.088
0.716,-0.084
0.717,-0.081
0.718,-0.082
0.719,-0.081
0.72,-0.081
0.721,-0.081
0.722,-0.078
0.723,-0.081
0.724,-0.084
0.725,-0.084
0.726,-0.082
0.727,-0.084
0.728,-0.083
0.729,-0.081
0.73,-0.081
0.731,-0.081
0.732,-0.088
0.733,-0.091
0.734,-0.091
0.735,-0.091
0.736,-0.089
0.737,-0.091
0.738,-0.091
0.739,-0.091
0.74,-0.093
0.741,-0.091
0.742,-0.088
0.743,-0.088
0.744,-0.088
0.745,-0.088
0.746,-0.089
0.747,-0.091
0.748,-0.088
0.749,-0.088
0.75,-0.091
0.751,-0.088
0.752,-0.088
0.753,-0.088
0.754,-0.089
0.755,-0.088
0.756,-0.084
0.757,-0.081
0.758,-0.081
0.759,-0.084
0.76,-0.086
0.761,-0.088
0.762,-0.084
0.763,-0.084
0.764,-0.086
0.765,-0.084
0.766,-0.086
0.767,-0.084
0.768,-0.088
0.769,-0.088
0.77,-0.08
0.771,-0.075
0.772,-0.075
0.773,-0.075
0.774,-0.075
0.775,-0.078
0.776,-0.069
0.777,-0.066
0.778,-0.056
0.779,-0.05
0.78,-0.048
0.781,-0.044
0.782,-0.039
0.783,-0.037
0.784,-0.031
0.785,-0.028
0.786,-0.021
0.787,-0.016
0.788,-0.014
0.789,-0.009
0.79,-0.003
0.791,0
0.792,0.002
0.793,0.003
0.794,0.005
0.795,0.009
0.796,0.009
0.797,0.013
0.798,0.017
0.799,0.016
0.8,0.017
0.801,0.016
0.802,0.014
0.803,0.013
0.804,0.014
0.805,0.019
0.806,0.024
0.807,0.025
0.808,0.031
0.809,0.041
0.81,0.047
0.811,0.05
0.812,0.061
0.813,0.072
0.814,0.074
0.815,0.075
0.816,0.078
0.817,0.084
0.818,0.092
0.819,0.1
0.82,0.105
0.821,0.113
0.822,0.113
0.823,0.113
0.824,0.116
0.825,0.116
0.826,0.121
0.827,0.125
0.828,0.131
0.829,0.137
0.83,0.145
0.831,0.153
0.832,0.159
0.833,0.166
0.834,0.172
0.835,0.175
0.836,0.173
0.837,0.175
0.838,0.172
0.839,0.172
0.84,0.162
0.841,0.153
0.842,0.156
0.843,0.15
0.844,0.151
0.845,0.15
0.846,0.146
0.847,0.141
0.848,0.136
0.849,0.128
0.85,0.122
0.851,0.113
0.852,0.109
0.853,0.106
0.854,0.094
0.855,0.081
0.856,0.071
0.857,0.059
0.858,0.049
0.859,0.041
0.86,0.036
0.861,0.025
0.862,0.013
0.863,0.003
0.864,-0.006
0.865,-0.022
0.866,-0.028
0.867,-0.034
0.868,-0.039
0.869,-0.041
0.87,-0.041
0.871,-0.047
0.872,-0.056
0.873,-0.066
0.874,-0.073
0.875,-0.081
0.876,-0.088
0.877,-0.094
0.878,-0.104
0.879,-0.119
0.88,-0.126
0.881,-0.131
0.882,-0.133
0.883,-0.134
0.884,-0.138
0.885,-0.138
0.886,-0.133
0.887,-0.138
0.888,-0.141
0.889,-0.141
0.89,-0.141
0.891,-0.141
0.892,-0.139
0.893,-0.138
0.894,-0.141
0.895,-0.141
0.896,-0.141
0.897,-0.144
0.898,-0.144
0.899,-0.144
0.9,-0.144
0.901,-0.144
0.902,-0.144
0.903,-0.144
0.904,-0.147
0.905,-0.147
0.906,-0.147
0.907,-0.15
0.908,-0.147
0.909,-0.147
0.91,-0.153
0.911,-0.15
0.912,-0.149
0.913,-0.15
0.914,-0.153
0.915,-0.153
0.916,-0.153
0.917,-0.156
0.918,-0.156
0.919,-0.156
0.92,-0.156
0.921,-0.156
0.922,-0.156
0.923,-0.156
0.924,-0.156
0.925,-0.156
0.926,-0.153
0.927,-0.15
0.928,-0.15
0.929,-0.15
0.93,-0.147
0.931,-0.147
0.932,-0.148
0.933,-0.147
0.934,-0.144
0.935,-0.144
0.936,-0.139
0.937,-0.138
0.938,-0.139
0.939,-0.141
0.94,-0.142
0.941,-0.144
0.942,-0.147
0.943,-0.153
0.944,-0.153
0.945,-0.156
0.946,-0.158
0.947,-0.162
0.948,-0.171
0.949,-0.178
0.95,-0.188
0.951,-0.197
0.952,-0.199
0.953,-0.2
0.954,-0.203
0.955,-0.209
0.956,-0.209
0.957,-0.2
0.958,-0.178
0.959,-0.15
0.96,-0.126
0.961,-0.103
0.962,-0.078
0.963,-0.053
0.964,-0.024
0.965,0.009
0.966,0.053
0.967,0.1
0.968,0.156
0.969,0.231
0.97,0.303
0.971,0.381
0.972,0.458
0.973,0.531
0.974,0.606
0.975,0.684
0.976,0.77
0.977,0.862
0.978,0.963
0.979,1.072
0.98,1.181
0.981,1.288
0.982,1.403
0.983,1.525
0.984,1.637
0.985,1.731
0.986,1.8
0.987,1.831
0.988,1.836
0.989,1.788
0.99,1.684
0.991,1.534
0.992,1.376
0.993,1.225
0.994,1.089
0.995,0.969
0.996,0.847
0.997,0.716
0.998,0.584
0.999,0.469
1,0.372
1.001,0.303
1.002,0.249
1.003,0.203
1.004,0.159
1.005,0.113
1.006,0.069
1.007,0.025
1.008,-0.008
1.009,-0.031
1.01,-0.047
1.011,-0.056
1.012,-0.063
1.013,-0.069
1.014,-0.07
1.015,-0.072
1.016,-0.071
1.017,-0.072
1.018,-0.081
1.019,-0.088
1.02,-0.095
1.021,-0.1
1.022,-0.104
1.023,-0.106
1.024,-0.108
1.025,-0.109
1.026,-0.108
1.027,-0.109
1.028,-0.114
1.029,-0.119
1.03,-0.121
1.031,-0.122
1.032,-0.119
1.033,-0.122
1.034,-0.124
1.035,-0.125
1.036,-0.131
1.037,-0.134
1.038,-0.133
1.039,-0.131
1.04,-0.134
1.041,-0.131
1.042,-0.131
1.043,-0.131
1.044,-0.13
1.045,-0.128
1.046,-0.125
1.047,-0.125
1.048,-0.127
1.049,-0.125
1.05,-0.128
1.051,-0.131
1.052,-0.133
1.053,-0.134
1.054,-0.131
1.055,-0.128
1.056,-0.124
1.057,-0.125
1.058,-0.125
1.059,-0.125
1.06,-0.125
1.061,-0.125
1.062,-0.125
1.063,-0.125
1.064,-0.121
1.065,-0.119
1.066,-0.116
1.067,-0.113
1.068,-0.114
1.069,-0.116
1.07,-0.117
1.071,-0.119
1.072,-0.114
1.073,-0.113
1.074,-0.109
1.075,-0.106
1.076,-0.104
1.077,-0.103
1.078,-0.108
1.079,-0.106
1.08,-0.109
1.081,-0.109
1.082,-0.106
1.083,-0.106
1.084,-0.106
1.085,-0.106
1.086,-0.105
1.087,-0.1
1.088,-0.099
1.089,-0.097
1.09,-0.097
1.091,-0.097
1.092,-0.095
1.093,-0.097
1.094,-0.093
1.095,-0.091
1.096,-0.088
1.097,-0.091
1.098,-0.094
1.099,-0.097
1.1,-0.096
1.101,-0.094
1.102,-0.092
1.103,-0.094
1.104,-0.092
1.105,-0.094
1.106,-0.095
1.107,-0.097
1.108,-0.093
1.109,-0.091
1.11,-0.089
1.111,-0.088
1.112,-0.088
1.113,-0.088
1.114,-0.088
1.115,-0.088
1.116,-0.084
1.117,-0.084
1.118,-0.088
1.119,-0.088
1.12,-0.086
1.121,-0.088
1.122,-0.086
1.123,-0.081
1.124,-0.078
1.125,-0.075
1.126,-0.072
1.127,-0.075
1.128,-0.075
1.129,-0.072
1.13,-0.072
1.131,-0.072
1.132,-0.07
1.133,-0.072
1.134,-0.072
1.135,-0.072
1.136,-0.072
1.137,-0.072
1.138,-0.069
1.139,-0.069
1.14,-0.075
1.141,-0.075
1.142,-0.072
1.143,-0.069
1.144,-0.07
1.145,-0.069
1.146,-0.066
1.147,-0.063
1.148,-0.059
1.149,-0.059
1.15,-0.058
1.151,-0.056
1.152,-0.052
1.153,-0.05
1.154,-0.053
1.155,-0.053
1.156,-0.052
1.157,-0.047
1.158,-0.047
1.159,-0.044
1.16,-0.045
1.161,-0.044
1.162,-0.043
1.163,-0.041
1.164,-0.034
1.165,-0.031
1.166,-0.031
1.167,-0.031
1.168,-0.031
1.169,-0.031
1.17,-0.029
1.171,-0.031
1.172,-0.028
1.173,-0.025
1.174,-0.022
1.175,-0.016
1.176,-0.016
1.177,-0.016
1.178,-0.013
1.179,-0.006
1.18,0
1.181,0
1.182,0
1.183,-0.003
1.184,-0.003
1.185,-0.006
1.186,0
1.187,0.006
1.188,0.009
1.189,0.016
1.19,0.018
1.191,0.016
1.192,0.016
1.193,0.016
1.194,0.018
1.195,0.016
1.196,0.016
1.197,0.019
1.198,0.023
1.199,0.028
1.2,0.028
1.201,0.028
1.202,0.028
1.203,0.025
1.204,0.031
1.205,0.031
1.206,0.031
1.207,0.031
1.208,0.032
1.209,0.037
1.21,0.041
1.211,0.041
1.212,0.044
1.213,0.044
1.214,0.042
1.215,0.044
1.216,0.044
1.217,0.047
1.218,0.047
1.219,0.047
1.22,0.053
1.221,0.053
1.222,0.055
1.223,0.053
1.224,0.053
1.225,0.056
1.226,0.064
1.227,0.066
1.228,0.066
1.229,0.066
1.23,0.066
1.231,0.066
1.232,0.066
1.233,0.066
1.234,0.066
1.235,0.066
1.236,0.069
1.237,0.072
1.238,0.072
1.239,0.075
1.24,0.075
1.241,0.075
1.242,0.075
1.243,0.075
1.244,0.078
1.245,0.078
1.246,0.079
1.247,0.081
1.248,0.083
1.249,0.081
1.25,0.08
1.251,0.078
1.252,0.084
1.253,0.087
1.254,0.087
1.255,0.087
1.256,0.084
1.257,0.084
1.258,0.086
1.259,0.084
1.26,0.086
1.261,0.087
1.262,0.087
1.263,0.087
1.264,0.087
1.265,0.087
1.266,0.089
1.267,0.091
1.268,0.092
1.269,0.094
1.27,0.096
1.271,0.091
1.272,0.094
1.273,0.094
1.274,0.091
1.275,0.094
1.276,0.092
1.277,0.094
1.278,0.089
1.279,0.087
1.28,0.081
1.281,0.078
1.282,0.082
1.283,0.081
1.284,0.082
1.285,0.081
1.286,0.079
1.287,0.078
1.288,0.078
1.289,0.072
1.29,0.071
1.291,0.069
1.292,0.064
1.293,0.066
1.294,0.064
1.295,0.066
1.296,0.058
1.297,0.05
1.298,0.053
1.299,0.05
1.3,0.051
1.301,0.05
1.302,0.047
1.303,0.044
1.304,0.042
1.305,0.044
1.306,0.045
1.307,0.041
1.308,0.037
1.309,0.037
1.31,0.03
1.311,0.022
1.312,0.018
1.313,0.013
1.314,0.013
1.315,0.013
1.316,0.009
1.317,0.013
1.318,0.009
1.319,0.006
1.32,0.005
1.321,0.003
1.322,0.001
1.323,0
1.324,-0.006
1.325,-0.009
1.326,-0.011
1.327,-0.009
1.328,-0.009
1.329,-0.009
1.33,-0.014
1.331,-0.013
1.332,-0.017
1.333,-0.025
1.334,-0.025
1.335,-0.028
1.336,-0.022
1.337,-0.022
1.338,-0.022
1.339,-0.025
1.34,-0.022
1.341,-0.019
1.342,-0.019
1.343,-0.022
1.344,-0.023
1.345,-0.028
1.346,-0.027
1.347,-0.025
1.348,-0.026
1.349,-0.028
1.35,-0.029
1.351,-0.031
1.352,-0.031
1.353,-0.031
1.354,-0.033
1.355,-0.031
1.356,-0.031
1.357,-0.034
1.358,-0.031
1.359,-0.031
1.36,-0.034
1.361,-0.034
1.362,-0.037
1.363,-0.041
1.364,-0.047
1.365,-0.047
1.366,-0.046
1.367,-0.047
1.368,-0.046
1.369,-0.044
1.37,-0.043
1.371,-0.041
1.372,-0.042
1.373,-0.044
1.374,-0.043
1.375,-0.041
1.376,-0.045
1.377,-0.044
1.378,-0.044
1.379,-0.044
1.38,-0.041
1.381,-0.044
1.382,-0.044
1.383,-0.044
1.384,-0.042
1.385,-0.044
1.386,-0.045
1.387,-0.047
1.388,-0.047
1.389,-0.047
1.39,-0.05
1.391,-0.05
1.392,-0.047
1.393,-0.044
1.394,-0.043
1.395,-0.041
1.396,-0.044
1.397,-0.044
1.398,-0.047
1.399,-0.047
1.4,-0.046
1.401,-0.047
1.402,-0.046
1.403,-0.047
1.404,-0.044
1.405,-0.044
1.406,-0.044
1.407,-0.044
1.408,-0.05
1.409,-0.053
1.41,-0.054
1.411,-0.056
1.412,-0.055
1.413,-0.056
1.414,-0.054
1.415,-0.056
1.416,-0.059
1.417,-0.063
1.418,-0.063
1.419,-0.066
1.42,-0.064
1.421,-0.059
1.422,-0.056
1.423,-0.053
1.424,-0.056
1.425,-0.056
1.426,-0.056
1.427,-0.063
1.428,-0.066
1.429,-0.066
1.43,-0.059
1.431,-0.059
1.432,-0.061
1.433,-0.063
1.434,-0.064
1.435,-0.066
1.436,-0.066
1.437,-0.069
1.438,-0.07
1.439,-0.072
1.44,-0.072
1.441,-0.072
1.442,-0.072
1.443,-0.072
1.444,-0.072
1.445,-0.072
1.446,-0.078
1.447,-0.078
1.448,-0.077
1.449,-0.075
1.45,-0.074
1.451,-0.072
1.452,-0.071
1.453,-0.072
1.454,-0.069
1.455,-0.072
1.456,-0.075
1.457,-0.075
1.458,-0.078
1.459,-0.078
1.46,-0.078
1.461,-0.078
1.462,-0.075
1.463,-0.072
1.464,-0.073
1.465,-0.078
1.466,-0.078
1.467,-0.081
1.468,-0.082
1.469,-0.084
1.47,-0.084
1.471,-0.081
1.472,-0.081
1.473,-0.078
1.474,-0.077
1.475,-0.078
1.476,-0.078
1.477,-0.078
1.478,-0.082
1.479,-0.084
1.48,-0.086
1.481,-0.088
1.482,-0.084
1.483,-0.081
1.484,-0.081
1.485,-0.081
1.486,-0.081
1.487,-0.081
1.488,-0.082
1.489,-0.084
1.49,-0.084
1.491,-0.084
1.492,-0.083
1.493,-0.081
1.494,-0.079
1.495,-0.081
1.496,-0.08
1.497,-0.075
1.498,-0.077
1.499,-0.078
1.5,-0.077
1.501,-0.072
1.502,-0.073
1.503,-0.075
1.504,-0.076
1.505,-0.078
1.506,-0.079
1.507,-0.084
1.508,-0.084
1.509,-0.084
1.51,-0.086
1.511,-0.084
1.512,-0.083
1.513,-0.081
1.514,-0.077
1.515,-0.075
1.516,-0.076
1.517,-0.075
1.518,-0.078
1.519,-0.081
1.52,-0.078
1.521,-0.078
1.522,-0.08
1.523,-0.075
1.524,-0.072
1.525,-0.072
1.526,-0.073
1.527,-0.075
1.528,-0.075
1.529,-0.075
1.53,-0.074
1.531,-0.075
1.532,-0.075
1.533,-0.075
1.534,-0.078
1.535,-0.081
1.536,-0.082
1.537,-0.084
1.538,-0.084
1.539,-0.084
1.54,-0.08
1.541,-0.078
1.542,-0.081
1.543,-0.081
1.544,-0.084
1.545,-0.084
1.546,-0.081
1.547,-0.081
1.548,-0.086
1.549,-0.084
1.55,-0.084
1.551,-0.084
1.552,-0.086
1.553,-0.084
1.554,-0.083
1.555,-0.081
1.556,-0.078
1.557,-0.078
1.558,-0.078
1.559,-0.078
1.56,-0.076
1.561,-0.078
1.562,-0.081
1.563,-0.081
1.564,-0.082
1.565,-0.081
1.566,-0.082
1.567,-0.081
1.568,-0.077
1.569,-0.075
1.57,-0.074
1.571,-0.072
1.572,-0.072
1.573,-0.075
1.574,-0.069
1.575,-0.069
1.576,-0.061
1.577,-0.056
1.578,-0.052
1.579,-0.044
1.58,-0.039
1.581,-0.037
1.582,-0.031
1.583,-0.028
1.584,-0.023
1.585,-0.022
1.586,-0.022
1.587,-0.019
1.588,-0.014
1.589,-0.013
1.59,-0.006
1.591,0
1.592,0.002
1.593,0.006
1.594,0.006
1.595,0.009
1.596,0.014
1.597,0.013
1.598,0.013
1.599,0.009
1.6,0.008
1.601,0.006
1.602,0.005
1.603,0.006
1.604,0.014
1.605,0.019
1.606,0.025
1.607,0.034
1.608,0.041
1.609,0.044
1.61,0.051
1.611,0.059
1.612,0.059
1.613,0.059
1.614,0.067
1.615,0.078
1.616,0.083
1.617,0.087
1.618,0.097
1.619,0.109
1.62,0.106
1.621,0.103
1.622,0.106
1.623,0.106
1.624,0.113
1.625,0.119
1.626,0.122
1.627,0.125
1.628,0.131
1.629,0.137
1.63,0.144
1.631,0.15
1.632,0.153
1.633,0.153
1.634,0.154
1.635,0.159
1.636,0.158
1.637,0.159
1.638,0.155
1.639,0.15
1.64,0.151
1.641,0.144
1.642,0.144
1.643,0.141
1.644,0.137
1.645,0.134
1.646,0.13
1.647,0.122
1.648,0.116
1.649,0.106
1.65,0.097
1.651,0.087
1.652,0.079
1.653,0.072
1.654,0.064
1.655,0.056
1.656,0.046
1.657,0.037
1.658,0.028
1.659,0.013
1.66,0
1.661,-0.009
1.662,-0.014
1.663,-0.025
1.664,-0.031
1.665,-0.037
1.666,-0.041
1.667,-0.041
1.668,-0.045
1.669,-0.056
1.67,-0.063
1.671,-0.069
1.672,-0.075
1.673,-0.081
1.674,-0.094
1.675,-0.106
1.676,-0.113
1.677,-0.122
1.678,-0.128
1.679,-0.131
1.68,-0.133
1.681,-0.134
1.682,-0.139
1.683,-0.141
1.684,-0.136
1.685,-0.141
1.686,-0.143
1.687,-0.141
1.688,-0.141
1.689,-0.141
1.69,-0.141
1.691,-0.141
1.692,-0.144
1.693,-0.144
1.694,-0.144
1.695,-0.147
1.696,-0.148
1.697,-0.15
1.698,-0.15
1.699,-0.15
1.7,-0.151
1.701,-0.153
1.702,-0.158
1.703,-0.159
1.704,-0.158
1.705,-0.159
1.706,-0.155
1.707,-0.153
1.708,-0.161
1.709,-0.159
1.71,-0.158
1.711,-0.159
1.712,-0.159
1.713,-0.156
1.714,-0.155
1.715,-0.156
1.716,-0.161
1.717,-0.166
1.718,-0.166
1.719,-0.166
1.72,-0.164
1.721,-0.162
1.722,-0.159
1.723,-0.156
1.724,-0.156
1.725,-0.156
1.726,-0.158
1.727,-0.159
1.728,-0.156
1.729,-0.156
1.73,-0.156
1.731,-0.153
1.732,-0.153
1.733,-0.156
1.734,-0.154
1.735,-0.156
1.736,-0.152
1.737,-0.147
1.738,-0.147
1.739,-0.147
1.74,-0.147
1.741,-0.15
1.742,-0.153
1.743,-0.159
1.744,-0.164
1.745,-0.172
1.746,-0.183
1.747,-0.194
1.748,-0.203
1.749,-0.212
1.75,-0.216
1.751,-0.219
1.752,-0.216
1.753,-0.216
1.754,-0.222
1.755,-0.219
1.756,-0.199
1.757,-0.172
1.758,-0.146
1.759,-0.119
1.76,-0.095
1.761,-0.072
1.762,-0.043
1.763,-0.009
1.764,0.031
1.765,0.075
1.766,0.126
1.767,0.197
1.768,0.272
1.769,0.353
1.77,0.432
1.771,0.509
1.772,0.583
1.773,0.659
1.774,0.743
1.775,0.831
1.776,0.928
1.777,1.034
1.778,1.141
1.779,1.244
1.78,1.359
1.781,1.481
1.782,1.6
1.783,1.7
1.784,1.778
1.785,1.819
1.786,1.827
1.787,1.781
1.788,1.686
1.789,1.544
1.79,1.392
1.791,1.247
1.792,1.114
1.793,0.997
1.794,0.874
1.795,0.741
1.796,0.608
1.797,0.491
1.798,0.391
1.799,0.319
1.8,0.262
1.801,0.216
1.802,0.167
1.803,0.116
1.804,0.069
1.805,0.022
1.806,-0.014
1.807,-0.041
1.808,-0.058
1.809,-0.069
1.81,-0.077
1.811,-0.084
1.812,-0.084
1.813,-0.084
1.814,-0.081
1.815,-0.081
1.816,-0.089
1.817,-0.094
1.818,-0.101
1.819,-0.106
1.82,-0.108
1.821,-0.106
1.822,-0.108
1.823,-0.109
1.824,-0.113
1.825,-0.119
1.826,-0.122
1.827,-0.125
1.828,-0.128
1.829,-0.131
1.83,-0.131
1.831,-0.138
1.832,-0.144
1.833,-0.15
1.834,-0.153
1.835,-0.153
1.836,-0.15
1.837,-0.147
1.838,-0.147
1.839,-0.141
1.84,-0.141
1.841,-0.141
1.842,-0.139
1.843,-0.138
1.844,-0.131
1.845,-0.128
1.846,-0.131
1.847,-0.131
1.848,-0.133
1.849,-0.134
1.85,-0.138
1.851,-0.141
1.852,-0.142
1.853,-0.144
1.854,-0.139
1.855,-0.141
1.856,-0.141
1.857,-0.141
1.858,-0.139
1.859,-0.138
1.86,-0.136
1.861,-0.134
1.862,-0.13
1.863,-0.128
1.864,-0.129
1.865,-0.131
1.866,-0.131
1.867,-0.131
1.868,-0.131
1.869,-0.131
1.87,-0.129
1.871,-0.131
1.872,-0.131
1.873,-0.131
1.874,-0.127
1.875,-0.122
1.876,-0.125
1.877,-0.122
1.878,-0.125
1.879,-0.125
1.88,-0.123
1.881,-0.125
1.882,-0.122
1.883,-0.119
1.884,-0.116
1.885,-0.109
1.886,-0.111
1.887,-0.113
1.888,-0.113
1.889,-0.113
1.89,-0.111
1.891,-0.113
1.892,-0.109
1.893,-0.109
1.894,-0.105
1.895,-0.106
1.896,-0.106
1.897,-0.106
1.898,-0.108
1.899,-0.109
1.9,-0.108
1.901,-0.109
1.902,-0.105
1.903,-0.103
1.904,-0.103
1.905,-0.103
1.906,-0.101
1.907,-0.103
1.908,-0.103
1.909,-0.103
1.91,-0.104
1.911,-0.106
1.912,-0.103
1.913,-0.1
1.914,-0.096
1.915,-0.094
1.916,-0.097
1.917,-0.097
1.918,-0.095
1.919,-0.097
1.92,-0.096
1.921,-0.091
1.922,-0.089
1.923,-0.088
1.924,-0.084
1.925,-0.088
1.926,-0.089
1.927,-0.088
1.928,-0.091
1.929,-0.094
1.93,-0.091
1.931,-0.091
1.932,-0.089
1.933,-0.088
1.934,-0.088
1.935,-0.088
1.936,-0.084
1.937,-0.084
1.938,-0.089
1.939,-0.088
1.94,-0.086
1.941,-0.084
1.942,-0.081
1.943,-0.075
1.944,-0.076
1.945,-0.078
1.946,-0.074
1.947,-0.072
1.948,-0.071
1.949,-0.069
1.95,-0.067
1.951,-0.069
1.952,-0.07
1.953,-0.069
1.954,-0.069
1.955,-0.066
1.956,-0.061
1.957,-0.053
1.958,-0.053
1.959,-0.05
1.96,-0.05
1.961,-0.05
1.962,-0.05
1.963,-0.053
1.964,-0.05
1.965,-0.047
1.966,-0.044
1.967,-0.041
1.968,-0.037
1.969,-0.037
1.97,-0.033
1.971,-0.028
1.972,-0.029
1.973,-0.028
1.974,-0.028
1.975,-0.028
1.976,-0.027
1.977,-0.022
1.978,-0.017
1.979,-0.019
1.98,-0.016
1.981,-0.016
1.982,-0.014
1.983,-0.016
1.984,-0.011
1.985,-0.006
1.986,-0.005
1.987,0
1.988,0.004
1.989,0.006
1.99,0.011
1.991,0.016
1.992,0.018
1.993,0.016
1.994,0.014
1.995,0.016
1.996,0.02
1.997,0.025
1.998,0.024
1.999,0.022
2,0.024
2.001,0.022
2.002,0.027
2.003,0.025
2.004,0.025
2.005,0.025
2.006,0.024
2.007,0.025
2.008,0.031
2.009,0.034
2.01,0.039
2.011,0.041
2.012,0.039
2.013,0.041
2.014,0.042
2.015,0.047
2.016,0.047
2.017,0.047
2.018,0.05
2.019,0.047
2.02,0.049
2.021,0.047
2.022,0.048
2.023,0.053
2.024,0.058
2.025,0.056
2.026,0.053
2.027,0.05
2.028,0.052
2.029,0.053
2.03,0.058
2.031,0.063
2.032,0.063
2.033,0.063
2.034,0.063
2.035,0.063
2.036,0.061
2.037,0.063
2.038,0.063
2.039,0.063
2.04,0.063
2.041,0.063
2.042,0.069
2.043,0.072
2.044,0.075
2.045,0.078
2.046,0.081
2.047,0.081
2.048,0.08
2.049,0.078
2.05,0.08
2.051,0.078
2.052,0.081
2.053,0.084
2.054,0.083
2.055,0.084
2.056,0.086
2.057,0.084
2.058,0.084
2.059,0.084
2.06,0.086
2.061,0.087
2.062,0.089
2.063,0.091
2.064,0.094
2.065,0.097
2.066,0.091
2.067,0.084
2.068,0.086
2.069,0.081
2.07,0.084
2.071,0.084
2.072,0.081
2.073,0.084
2.074,0.082
2.075,0.084
2.076,0.082
2.077,0.084
2.078,0.078
2.079,0.075
2.08,0.077
2.081,0.072
2.082,0.075
2.083,0.075
2.084,0.071
2.085,0.066
2.086,0.069
2.087,0.066
2.088,0.067
2.089,0.069
2.09,0.063
2.091,0.063
2.092,0.056
2.093,0.053
2.094,0.051
2.095,0.05
2.096,0.051
2.097,0.047
2.098,0.046
2.099,0.041
2.1,0.036
2.101,0.031
2.102,0.029
2.103,0.031
2.104,0.034
2.105,0.031
2.106,0.028
2.107,0.028
2.108,0.025
2.109,0.022
2.11,0.018
2.111,0.013
2.112,0.011
2.113,0.009
2.114,0.006
2.115,0.009
2.116,0.006
2.117,0.003
2.118,0
2.119,-0.003
2.12,-0.006
2.121,-0.009
2.122,-0.011
2.123,-0.009
2.124,-0.013
2.125,-0.013
2.126,-0.011
2.127,-0.009
2.128,-0.019
2.129,-0.022
2.13,-0.023
2.131,-0.028
2.132,-0.025
2.133,-0.025
2.134,-0.022
2.135,-0.025
2.136,-0.025
2.137,-0.028
2.138,-0.029
2.139,-0.031
2.14,-0.031
2.141,-0.034
2.142,-0.033
2.143,-0.034
2.144,-0.041
2.145,-0.047
2.146,-0.044
2.147,-0.041
2.148,-0.041
2.149,-0.041
2.15,-0.041
2.151,-0.041
2.152,-0.044
2.153,-0.044
2.154,-0.044
2.155,-0.047
2.156,-0.045
2.157,-0.047
2.158,-0.044
2.159,-0.037
2.16,-0.039
2.161,-0.041
2.162,-0.045
2.163,-0.044
2.164,-0.043
2.165,-0.044
2.166,-0.044
2.167,-0.044
2.168,-0.045
2.169,-0.047
2.17,-0.048
2.171,-0.05
2.172,-0.051
2.173,-0.053
2.174,-0.058
2.175,-0.056
2.176,-0.055
2.177,-0.053
2.178,-0.05
2.179,-0.053
2.18,-0.053
2.181,-0.053
2.182,-0.05
2.183,-0.05
2.184,-0.051
2.185,-0.053
2.186,-0.052
2.187,-0.05
2.188,-0.052
2.189,-0.05
2.19,-0.051
2.191,-0.053
2.192,-0.053
2.193,-0.053
2.194,-0.056
2.195,-0.056
2.196,-0.058
2.197,-0.056
2.198,-0.056
2.199,-0.059
2.2,-0.059
2.201,-0.063
2.202,-0.058
2.203,-0.056
2.204,-0.056
2.205,-0.056
2.206,-0.063
2.207,-0.066
2.208,-0.066
2.209,-0.066
2.21,-0.063
2.211,-0.063
2.212,-0.061
2.213,-0.063
2.214,-0.063
2.215,-0.063
2.216,-0.058
2.217,-0.056
2.218,-0.059
2.219,-0.059
2.22,-0.058
2.221,-0.056
2.222,-0.059
2.223,-0.059
2.224,-0.056
2.225,-0.059
2.226,-0.063
2.227,-0.063
2.228,-0.061
2.229,-0.066
2.23,-0.067
2.231,-0.069
2.232,-0.068
2.233,-0.066
2.234,-0.064
2.235,-0.066
2.236,-0.072
2.237,-0.078
2.238,-0.078
2.239,-0.078
2.24,-0.074
2.241,-0.069
2.242,-0.068
2.243,-0.066
2.244,-0.07
2.245,-0.069
2.246,-0.07
2.247,-0.072
2.248,-0.072
2.249,-0.072
2.25,-0.072
2.251,-0.075
2.252,-0.071
2.253,-0.072
2.254,-0.073
2.255,-0.072
2.256,-0.074
2.257,-0.072
2.258,-0.072
2.259,-0.072
2.26,-0.073
2.261,-0.075
2.262,-0.074
2.263,-0.075
2.264,-0.073
2.265,-0.075
2.266,-0.075
2.267,-0.075
2.268,-0.079
2.269,-0.081
2.27,-0.083
2.271,-0.081
2.272,-0.078
2.273,-0.078
2.274,-0.077
2.275,-0.075
2.276,-0.078
2.277,-0.078
2.278,-0.078
2.279,-0.078
2.28,-0.077
2.281,-0.075
2.282,-0.076
2.283,-0.078
2.284,-0.081
2.285,-0.084
2.286,-0.084
2.287,-0.084
2.288,-0.081
2.289,-0.078
2.29,-0.078
2.291,-0.078
2.292,-0.076
2.293,-0.078
2.294,-0.077
2.295,-0.072
2.296,-0.072
2.297,-0.072
2.298,-0.073
2.299,-0.072
2.3,-0.072
2.301,-0.072
2.302,-0.072
2.303,-0.072
2.304,-0.073
2.305,-0.078
2.306,-0.077
2.307,-0.075
2.308,-0.076
2.309,-0.075
2.31,-0.075
2.311,-0.075
2.312,-0.075
2.313,-0.078
2.314,-0.078
2.315,-0.075
2.316,-0.075
2.317,-0.075
2.318,-0.072
2.319,-0.072
2.32,-0.076
2.321,-0.075
2.322,-0.072
2.323,-0.072
2.324,-0.075
2.325,-0.078
2.326,-0.079
2.327,-0.081
2.328,-0.081
2.329,-0.084
2.33,-0.084
2.331,-0.084
2.332,-0.084
2.333,-0.084
2.334,-0.084
2.335,-0.084
2.336,-0.08
2.337,-0.075
2.338,-0.072
2.339,-0.072
2.34,-0.075
2.341,-0.075
2.342,-0.076
2.343,-0.075
2.344,-0.073
2.345,-0.072
2.346,-0.072
2.347,-0.069
2.348,-0.067
2.349,-0.069
2.35,-0.069
2.351,-0.072
2.352,-0.07
2.353,-0.072
2.354,-0.072
2.355,-0.072
2.356,-0.073
2.357,-0.078
2.358,-0.078
2.359,-0.078
2.36,-0.081
2.361,-0.081
2.362,-0.081
2.363,-0.078
2.364,-0.078
2.365,-0.081
2.366,-0.081
2.367,-0.081
2.368,-0.077
2.369,-0.075
2.37,-0.073
2.371,-0.072
2.372,-0.072
2.373,-0.072
2.374,-0.071
2.375,-0.066
2.376,-0.064
2.377,-0.056
2.378,-0.058
2.379,-0.053
2.38,-0.05
2.381,-0.047
2.382,-0.039
2.383,-0.031
2.384,-0.032
2.385,-0.031
2.386,-0.029
2.387,-0.025
2.388,-0.019
2.389,-0.016
2.39,-0.013
2.391,-0.006
2.392,-0.003
2.393,0
2.394,0.003
2.395,0.006
2.396,0.014
2.397,0.016
2.398,0.016
2.399,0.016
2.4,0.016
2.401,0.019
2.402,0.016
2.403,0.016
2.404,0.014
2.405,0.013
2.406,0.013
2.407,0.016
2.408,0.022
2.409,0.031
2.41,0.041
2.411,0.047
2.412,0.05
2.413,0.056
2.414,0.061
2.415,0.063
2.416,0.072
2.417,0.084
2.418,0.091
2.419,0.094
2.42,0.099
2.421,0.103
2.422,0.113
2.423,0.113
2.424,0.111
2.425,0.113
2.426,0.111
2.427,0.116
2.428,0.126
2.429,0.137
2.43,0.144
2.431,0.15
2.432,0.156
2.433,0.162
2.434,0.167
2.435,0.169
2.436,0.172
2.437,0.172
2.438,0.172
2.439,0.172
2.44,0.176
2.441,0.175
2.442,0.171
2.443,0.169
2.444,0.159
2.445,0.159
2.446,0.159
2.447,0.159
2.448,0.153
2.449,0.147
2.45,0.142
2.451,0.141
2.452,0.134
2.453,0.125
2.454,0.113
2.455,0.1
2.456,0.091
2.457,0.081
2.458,0.073
2.459,0.066
2.46,0.059
2.461,0.05
2.462,0.034
2.463,0.022
2.464,0.009
2.465,0
2.466,-0.013
2.467,-0.022
2.468,-0.03
2.469,-0.034
2.47,-0.033
2.471,-0.031
2.472,-0.041
2.473,-0.047
2.474,-0.054
2.475,-0.063
2.476,-0.072
2.477,-0.084
2.478,-0.098
2.479,-0.113
2.48,-0.122
2.481,-0.125
2.482,-0.127
2.483,-0.128
2.484,-0.128
2.485,-0.128
2.486,-0.131
2.487,-0.128
2.488,-0.133
2.489,-0.138
2.49,-0.139
2.491,-0.141
2.492,-0.141
2.493,-0.141
2.494,-0.138
2.495,-0.138
2.496,-0.138
2.497,-0.138
2.498,-0.142
2.499,-0.144
2.5,-0.144
2.501,-0.144
2.502,-0.143
2.503,-0.141
2.504,-0.141
2.505,-0.144
2.506,-0.147
2.507,-0.15
2.508,-0.153
2.509,-0.15
2.51,-0.149
2.511,-0.153
2.512,-0.151
2.513,-0.153
2.514,-0.156
2.515,-0.156
2.516,-0.153
2.517,-0.153
2.518,-0.156
2.519,-0.156
2.52,-0.155
2.521,-0.153
2.522,-0.153
2.523,-0.153
2.524,-0.153
2.525,-0.153
2.526,-0.15
2.527,-0.147
2.528,-0.147
2.529,-0.147
2.53,-0.148
2.531,-0.147
2.532,-0.148
2.533,-0.15
2.534,-0.146
2.535,-0.141
2.536,-0.142
2.537,-0.141
2.538,-0.141
2.539,-0.141
2.54,-0.141
2.541,-0.141
2.542,-0.139
2.543,-0.138
2.544,-0.139
2.545,-0.138
2.546,-0.141
2.547,-0.147
2.548,-0.158
2.549,-0.169
2.55,-0.175
2.551,-0.181
2.552,-0.192
2.553,-0.197
2.554,-0.2
2.555,-0.2
2.556,-0.206
2.557,-0.212
2.558,-0.214
2.559,-0.203
2.56,-0.179
2.561,-0.156
2.562,-0.131
2.563,-0.106
2.564,-0.081
2.565,-0.053
2.566,-0.028
2.567,0.006
2.568,0.051
2.569,0.103
2.57,0.173
2.571,0.25
2.572,0.33
2.573,0.406
2.574,0.484
2.575,0.563
2.576,0.641
2.577,0.725
2.578,0.814
2.579,0.906
2.58,1.003
2.581,1.103
2.582,1.206
2.583,1.316
2.584,1.43
2.585,1.547
2.586,1.654
2.587,1.744
2.588,1.795
2.589,1.819
2.59,1.789
2.591,1.7
2.592,1.558
2.593,1.4
2.594,1.248
2.595,1.113
2.596,0.994
2.597,0.875
2.598,0.736
2.599,0.591
2.6,0.47
2.601,0.378
2.602,0.311
2.603,0.256
2.604,0.217
2.605,0.184
2.606,0.145
2.607,0.106
2.608,0.067
2.609,0.031
2.61,-0.003
2.611,-0.028
2.612,-0.045
2.613,-0.063
2.614,-0.078
2.615,-0.081
2.616,-0.081
2.617,-0.081
2.618,-0.08
2.619,-0.081
2.62,-0.081
2.621,-0.084
2.622,-0.088
2.623,-0.091
2.624,-0.091
2.625,-0.094
2.626,-0.1
2.627,-0.103
2.628,-0.103
2.629,-0.103
2.63,-0.108
2.631,-0.113
2.632,-0.116
2.633,-0.116
2.634,-0.122
2.635,-0.125
2.636,-0.127
2.637,-0.128
2.638,-0.129
2.639,-0.128
2.64,-0.122
2.641,-0.122
2.642,-0.12
2.643,-0.122
2.644,-0.123
2.645,-0.125
2.646,-0.126
2.647,-0.125
2.648,-0.125
2.649,-0.128
2.65,-0.128
2.651,-0.128
2.652,-0.125
2.653,-0.122
2.654,-0.122
2.655,-0.122
2.656,-0.123
2.657,-0.122
2.658,-0.125
2.659,-0.122
2.66,-0.12
2.661,-0.122
2.662,-0.122
2.663,-0.122
2.664,-0.122
2.665,-0.119
2.666,-0.117
2.667,-0.116
2.668,-0.117
2.669,-0.119
2.67,-0.12
2.671,-0.122
2.672,-0.121
2.673,-0.116
2.674,-0.113
2.675,-0.109
2.676,-0.111
2.677,-0.109
2.678,-0.106
2.679,-0.109
2.68,-0.103
2.681,-0.103
2.682,-0.104
2.683,-0.103
2.684,-0.109
2.685,-0.116
2.686,-0.114
2.687,-0.113
2.688,-0.109
2.689,-0.109
2.69,-0.109
2.691,-0.109
2.692,-0.109
2.693,-0.106
2.694,-0.106
2.695,-0.103
2.696,-0.104
2.697,-0.103
2.698,-0.105
2.699,-0.103
2.7,-0.103
2.701,-0.103
2.702,-0.1
2.703,-0.094
2.704,-0.095
2.705,-0.094
2.706,-0.094
2.707,-0.094
2.708,-0.093
2.709,-0.088
2.71,-0.088
2.711,-0.088
2.712,-0.086
2.713,-0.084
2.714,-0.084
2.715,-0.084
2.716,-0.086
2.717,-0.084
2.718,-0.084
2.719,-0.088
2.72,-0.091
2.721,-0.091
2.722,-0.089
2.723,-0.088
2.724,-0.084
2.725,-0.084
2.726,-0.088
2.727,-0.088
2.728,-0.091
2.729,-0.091
2.73,-0.088
2.731,-0.088
2.732,-0.086
2.733,-0.081
2.734,-0.081
2.735,-0.081
2.736,-0.078
2.737,-0.075
2.738,-0.076
2.739,-0.075
2.74,-0.074
2.741,-0.075
2.742,-0.073
2.743,-0.072
2.744,-0.072
2.745,-0.075
2.746,-0.072
2.747,-0.072
2.748,-0.069
2.749,-0.063
2.75,-0.061
2.751,-0.059
2.752,-0.059
2.753,-0.056
2.754,-0.056
2.755,-0.056
2.756,-0.053
2.757,-0.053
2.758,-0.051
2.759,-0.053
2.76,-0.053
2.761,-0.056
2.762,-0.052
2.763,-0.05
2.764,-0.049
2.765,-0.044
2.766,-0.045
2.767,-0.044
2.768,-0.036
2.769,-0.031
2.77,-0.031
2.771,-0.028
2.772,-0.029
2.773,-0.028
2.774,-0.024
2.775,-0.022
2.776,-0.02
2.777,-0.022
2.778,-0.021
2.779,-0.019
2.78,-0.017
2.781,-0.013
2.782,-0.014
2.783,-0.013
2.784,-0.011
2.785,-0.006
2.786,-0.006
2.787,-0.003
2.788,0
2.789,0
2.79,0.002
2.791,0.003
2.792,0.002
2.793,0.003
2.794,0.005
2.795,0.006
2.796,0.008
2.797,0.009
2.798,0.013
2.799,0.016
2.8,0.022
2.801,0.025
2.802,0.024
2.803,0.025
2.804,0.028
2.805,0.037
2.806,0.039
2.807,0.041
2.808,0.041
2.809,0.041
2.81,0.042
2.811,0.044
2.812,0.041
2.813,0.041
2.814,0.042
2.815,0.044
2.816,0.047
2.817,0.047
2.818,0.049
2.819,0.047
2.82,0.047
2.821,0.05
2.822,0.046
2.823,0.047
2.824,0.047
2.825,0.047
2.826,0.049
2.827,0.05
2.828,0.047
2.829,0.047
2.83,0.048
2.831,0.053
2.832,0.056
2.833,0.056
2.834,0.055
2.835,0.053
2.836,0.053
2.837,0.053
2.838,0.053
2.839,0.053
2.84,0.056
2.841,0.056
2.842,0.059
2.843,0.063
2.844,0.061
2.845,0.063
2.846,0.063
2.847,0.063
2.848,0.061
2.849,0.063
2.85,0.064
2.851,0.066
2.852,0.064
2.853,0.066
2.854,0.064
2.855,0.063
2.856,0.061
2.857,0.059
2.858,0.066
2.859,0.069
2.86,0.064
2.861,0.066
2.862,0.068
2.863,0.066
2.864,0.066
2.865,0.066
2.866,0.066
2.867,0.066
2.868,0.066
2.869,0.066
2.87,0.066
2.871,0.069
2.872,0.067
2.873,0.069
2.874,0.067
2.875,0.066
2.876,0.069
2.877,0.066
2.878,0.067
2.879,0.066
2.88,0.066
2.881,0.063
2.882,0.063
2.883,0.066
2.884,0.063
2.885,0.063
2.886,0.061
2.887,0.059
2.888,0.052
2.889,0.05
2.89,0.048
2.891,0.05
2.892,0.05
2.893,0.044
2.894,0.045
2.895,0.044
2.896,0.047
2.897,0.047
2.898,0.042
2.899,0.041
2.9,0.033
2.901,0.031
2.902,0.028
2.903,0.025
2.904,0.023
2.905,0.022
2.906,0.022
2.907,0.022
2.908,0.016
2.909,0.013
2.91,0.011
2.911,0.006
2.912,0.003
2.913,0
2.914,0
2.915,0
2.916,-0.004
2.917,-0.009
2.918,-0.005
2.919,-0.006
2.92,-0.009
2.921,-0.009
2.922,-0.011
2.923,-0.016
2.924,-0.02
2.925,-0.025
2.926,-0.024
2.927,-0.025
2.928,-0.026
2.929,-0.028
2.93,-0.025
2.931,-0.028
2.932,-0.028
2.933,-0.028
2.934,-0.032
2.935,-0.034
2.936,-0.037
2.937,-0.034
2.938,-0.041
2.939,-0.044
2.94,-0.046
2.941,-0.044
2.942,-0.044
2.943,-0.044
2.944,-0.048
2.945,-0.05
2.946,-0.053
2.947,-0.053
2.948,-0.052
2.949,-0.05
2.95,-0.05
2.951,-0.05
2.952,-0.05
2.953,-0.05
2.954,-0.049
2.955,-0.05
2.956,-0.053
2.957,-0.056
2.958,-0.061
2.959,-0.059
2.96,-0.058
2.961,-0.059
2.962,-0.059
2.963,-0.059
2.964,-0.056
2.965,-0.056
2.966,-0.058
2.967,-0.063
2.968,-0.066
2.969,-0.066
2.97,-0.066
2.971,-0.066
2.972,-0.063
2.973,-0.059
2.974,-0.061
2.975,-0.063
2.976,-0.061
2.977,-0.063
2.978,-0.059
2.979,-0.059
2.98,-0.059
2.981,-0.056
2.982,-0.059
2.983,-0.059
2.984,-0.061
2.985,-0.059
2.986,-0.059
2.987,-0.059
2.988,-0.059
2.989,-0.059
2.99,-0.058
2.991,-0.059
2.992,-0.059
2.993,-0.059
2.994,-0.059
2.995,-0.059
2.996,-0.059
2.997,-0.063
2.998,-0.063
2.999,-0.063
3,-0.061
3.001,-0.063
3.002,-0.064
3.003,-0.063
3.004,-0.069
3.005,-0.069
3.006,-0.069
3.007,-0.069
3.008,-0.069
3.009,-0.072
3.01,-0.075
3.011,-0.078
3.012,-0.077
3.013,-0.075
3.014,-0.078
3.015,-0.075
3.016,-0.074
3.017,-0.072
3.018,-0.072
3.019,-0.072
3.02,-0.072
3.021,-0.069
3.022,-0.066
3.023,-0.066
3.024,-0.064
3.025,-0.066
3.026,-0.067
3.027,-0.066
3.028,-0.068
3.029,-0.069
3.03,-0.069
3.031,-0.066
3.032,-0.069
3.033,-0.069
3.034,-0.069
3.035,-0.069
3.036,-0.069
3.037,-0.069
3.038,-0.076
3.039,-0.081
3.04,-0.081
3.041,-0.081
3.042,-0.081
3.043,-0.081
3.044,-0.081
3.045,-0.081
3.046,-0.078
3.047,-0.078
3.048,-0.078
3.049,-0.081
3.05,-0.082
3.051,-0.084
3.052,-0.084
3.053,-0.084
3.054,-0.086
3.055,-0.081
3.056,-0.081
3.057,-0.078
3.058,-0.075
3.059,-0.078
3.06,-0.079
3.061,-0.081
3.062,-0.08
3.063,-0.078
3.064,-0.079
3.065,-0.081
3.066,-0.084
3.067,-0.081
3.068,-0.081
3.069,-0.081
3.07,-0.081
3.071,-0.081
3.072,-0.078
3.073,-0.081
3.074,-0.078
3.075,-0.075
3.076,-0.079
3.077,-0.081
3.078,-0.081
3.079,-0.084
3.08,-0.084
3.081,-0.084
3.082,-0.084
3.083,-0.084
3.084,-0.084
3.085,-0.084
3.086,-0.086
3.087,-0.088
3.088,-0.088
3.089,-0.088
3.09,-0.086
3.091,-0.084
3.092,-0.083
3.093,-0.081
3.094,-0.082
3.095,-0.081
3.096,-0.081
3.097,-0.081
3.098,-0.077
3.099,-0.078
3.1,-0.081
3.101,-0.081
3.102,-0.079
3.103,-0.081
3.104,-0.081
3.105,-0.081
3.106,-0.08
3.107,-0.078
3.108,-0.082
3.109,-0.084
3.11,-0.083
3.111,-0.081
3.112,-0.078
3.113,-0.078
3.114,-0.078
3.115,-0.078
3.116,-0.084
3.117,-0.088
3.118,-0.084
3.119,-0.084
3.12,-0.084
3.121,-0.084
3.122,-0.086
3.123,-0.088
3.124,-0.088
3.125,-0.088
3.126,-0.089
3.127,-0.091
3.128,-0.091
3.129,-0.091
3.13,-0.089
3.131,-0.088
3.132,-0.089
3.133,-0.088
3.134,-0.092
3.135,-0.091
3.136,-0.088
3.137,-0.084
3.138,-0.086
3.139,-0.084
3.14,-0.084
3.141,-0.084
3.142,-0.083
3.143,-0.084
3.144,-0.084
3.145,-0.084
3.146,-0.078
3.147,-0.075
3.148,-0.082
3.149,-0.088
3.15,-0.089
3.151,-0.088
3.152,-0.086
3.153,-0.081
3.154,-0.082
3.155,-0.088
3.156,-0.089
3.157,-0.091
3.158,-0.086
3.159,-0.084
3.16,-0.077
3.161,-0.075
3.162,-0.072
3.163,-0.072
3.164,-0.072
3.165,-0.069
3.166,-0.058
3.167,-0.05
3.168,-0.045
3.169,-0.044
3.17,-0.039
3.171,-0.037
3.172,-0.037
3.173,-0.034
3.174,-0.028
3.175,-0.025
3.176,-0.018
3.177,-0.009
3.178,-0.005
3.179,0.003
3.18,0.006
3.181,0.013
3.182,0.014
3.183,0.009
3.184,0.014
3.185,0.016
3.186,0.013
3.187,0.009
3.188,0.006
3.189,0.006
3.19,0.014
3.191,0.019
3.192,0.022
3.193,0.028
3.194,0.036
3.195,0.041
3.196,0.047
3.197,0.053
3.198,0.056
3.199,0.059
3.2,0.063
3.201,0.069
3.202,0.075
3.203,0.081
3.204,0.089
3.205,0.1
3.206,0.1
3.207,0.1
3.208,0.102
3.209,0.1
3.21,0.111
3.211,0.122
3.212,0.129
3.213,0.137
3.214,0.145
3.215,0.153
3.216,0.161
3.217,0.169
3.218,0.169
3.219,0.166
3.22,0.162
3.221,0.162
3.222,0.164
3.223,0.169
3.224,0.167
3.225,0.166
3.226,0.167
3.227,0.159
3.228,0.158
3.229,0.153
3.23,0.15
3.231,0.147
3.232,0.147
3.233,0.144
3.234,0.137
3.235,0.128
3.236,0.12
3.237,0.113
3.238,0.1
3.239,0.087
3.24,0.079
3.241,0.072
3.242,0.063
3.243,0.056
3.244,0.047
3.245,0.031
3.246,0.022
3.247,0.016
3.248,0.011
3.249,0
3.25,-0.016
3.251,-0.031
3.252,-0.041
3.253,-0.047
3.254,-0.049
3.255,-0.056
3.256,-0.064
3.257,-0.072
3.258,-0.078
3.259,-0.084
3.26,-0.093
3.261,-0.1
3.262,-0.103
3.263,-0.109
3.264,-0.116
3.265,-0.119
3.266,-0.122
3.267,-0.125
3.268,-0.128
3.269,-0.128
3.27,-0.125
3.271,-0.131
3.272,-0.136
3.273,-0.138
3.274,-0.138
3.275,-0.138
3.276,-0.139
3.277,-0.141
3.278,-0.145
3.279,-0.147
3.28,-0.147
3.281,-0.15
3.282,-0.15
3.283,-0.15
3.284,-0.153
3.285,-0.156
3.286,-0.156
3.287,-0.156
3.288,-0.158
3.289,-0.156
3.29,-0.153
3.291,-0.153
3.292,-0.151
3.293,-0.153
3.294,-0.159
3.295,-0.156
3.296,-0.153
3.297,-0.153
3.298,-0.156
3.299,-0.156
3.3,-0.155
3.301,-0.156
3.302,-0.155
3.303,-0.153
3.304,-0.153
3.305,-0.153
3.306,-0.154
3.307,-0.156
3.308,-0.158
3.309,-0.159
3.31,-0.155
3.311,-0.15
3.312,-0.15
3.313,-0.15
3.314,-0.146
3.315,-0.144
3.316,-0.15
3.317,-0.153
3.318,-0.151
3.319,-0.153
3.32,-0.151
3.321,-0.153
3.322,-0.153
3.323,-0.153
3.324,-0.153
3.325,-0.153
3.326,-0.153
3.327,-0.156
3.328,-0.155
3.329,-0.156
3.33,-0.159
3.331,-0.166
3.332,-0.176
3.333,-0.188
3.334,-0.198
3.335,-0.209
3.336,-0.212
3.337,-0.216
3.338,-0.216
3.339,-0.219
3.34,-0.229
3.341,-0.231
3.342,-0.217
3.343,-0.197
3.344,-0.171
3.345,-0.144
3.346,-0.114
3.347,-0.084
3.348,-0.059
3.349,-0.031
3.35,0.006
3.351,0.047
3.352,0.089
3.353,0.15
3.354,0.225
3.355,0.306
3.356,0.383
3.357,0.456
3.358,0.531
3.359,0.609
3.36,0.695
3.361,0.788
3.362,0.878
3.363,0.978
3.364,1.077
3.365,1.172
3.366,1.28
3.367,1.394
3.368,1.52
3.369,1.628
3.37,1.722
3.371,1.778
3.372,1.807
3.373,1.784
3.374,1.697
3.375,1.563
3.376,1.392
3.377,1.228
3.378,1.091
3.379,0.969
3.38,0.844
3.381,0.709
3.382,0.568
3.383,0.441
3.384,0.342
3.385,0.272
3.386,0.225
3.387,0.187
3.388,0.162
3.389,0.134
3.39,0.1
3.391,0.066
3.392,0.027
3.393,-0.003
3.394,-0.028
3.395,-0.047
3.396,-0.055
3.397,-0.063
3.398,-0.066
3.399,-0.069
3.4,-0.072
3.401,-0.078
3.402,-0.086
3.403,-0.091
3.404,-0.098
3.405,-0.103
3.406,-0.105
3.407,-0.103
3.408,-0.105
3.409,-0.106
3.41,-0.109
3.411,-0.116
3.412,-0.117
3.413,-0.119
3.414,-0.122
3.415,-0.125
3.416,-0.124
3.417,-0.128
3.418,-0.134
3.419,-0.141
3.42,-0.144
3.421,-0.144
3.422,-0.145
3.423,-0.147
3.424,-0.15
3.425,-0.147
3.426,-0.147
3.427,-0.147
3.428,-0.146
3.429,-0.144
3.43,-0.141
3.431,-0.141
3.432,-0.141
3.433,-0.138
3.434,-0.138
3.435,-0.138
3.436,-0.138
3.437,-0.138
3.438,-0.134
3.439,-0.131
3.44,-0.128
3.441,-0.131
3.442,-0.128
3.443,-0.125
3.444,-0.125
3.445,-0.125
3.446,-0.125
3.447,-0.125
3.448,-0.123
3.449,-0.125
3.45,-0.122
3.451,-0.119
3.452,-0.12
3.453,-0.122
3.454,-0.128
3.455,-0.134
3.456,-0.136
3.457,-0.141
3.458,-0.139
3.459,-0.138
3.46,-0.133
3.461,-0.128
3.462,-0.13
3.463,-0.125
3.464,-0.128
3.465,-0.128
3.466,-0.122
3.467,-0.119
3.468,-0.12
3.469,-0.122
3.47,-0.125
3.471,-0.125
3.472,-0.125
3.473,-0.125
3.474,-0.126
3.475,-0.128
3.476,-0.124
3.477,-0.122
3.478,-0.117
3.479,-0.116
3.48,-0.111
3.481,-0.113
3.482,-0.111
3.483,-0.109
3.484,-0.109
3.485,-0.109
3.486,-0.106
3.487,-0.106
3.488,-0.1
3.489,-0.097
3.49,-0.097
3.491,-0.097
3.492,-0.098
3.493,-0.103
3.494,-0.104
3.495,-0.106
3.496,-0.106
3.497,-0.106
3.498,-0.106
3.499,-0.106
3.5,-0.099
3.501,-0.094
3.502,-0.097
3.503,-0.097
3.504,-0.098
3.505,-0.103
3.506,-0.104
3.507,-0.103
3.508,-0.103
3.509,-0.103
3.51,-0.1
3.511,-0.103
3.512,-0.104
3.513,-0.103
3.514,-0.1
3.515,-0.097
3.516,-0.094
3.517,-0.094
3.518,-0.094
3.519,-0.094
3.52,-0.094
3.521,-0.094
3.522,-0.091
3.523,-0.091
3.524,-0.095
3.525,-0.094
3.526,-0.094
3.527,-0.094
3.528,-0.091
3.529,-0.084
3.53,-0.086
3.531,-0.088
3.532,-0.083
3.533,-0.081
3.534,-0.081
3.535,-0.081
3.536,-0.078
3.537,-0.078
3.538,-0.077
3.539,-0.072
3.54,-0.072
3.541,-0.069
3.542,-0.07
3.543,-0.069
3.544,-0.068
3.545,-0.063
3.546,-0.059
3.547,-0.056
3.548,-0.052
3.549,-0.05
3.55,-0.048
3.551,-0.047
3.552,-0.046
3.553,-0.044
3.554,-0.041
3.555,-0.041
3.556,-0.039
3.557,-0.037
3.558,-0.039
3.559,-0.037
3.56,-0.036
3.561,-0.034
3.562,-0.031
3.563,-0.025
3.564,-0.022
3.565,-0.025
3.566,-0.022
3.567,-0.022
3.568,-0.019
3.569,-0.019
3.57,-0.019
3.571,-0.019
3.572,-0.019
3.573,-0.016
3.574,-0.013
3.575,-0.013
3.576,-0.009
3.577,-0.006
3.578,-0.004
3.579,-0.006
3.58,-0.005
3.581,0
3.582,0.002
3.583,0.003
3.584,0.008
3.585,0.013
3.586,0.016
3.587,0.016
3.588,0.021
3.589,0.019
3.59,0.019
3.591,0.019
3.592,0.019
3.593,0.022
3.594,0.026
3.595,0.028
3.596,0.031
3.597,0.031
3.598,0.03
3.599,0.031
3.6,0.028
3.601,0.028
3.602,0.028
3.603,0.028
3.604,0.034
3.605,0.034
3.606,0.034
3.607,0.031
3.608,0.031
3.609,0.034
3.61,0.037
3.611,0.034
3.612,0.034
3.613,0.034
3.614,0.037
3.615,0.041
3.616,0.042
3.617,0.044
3.618,0.044
3.619,0.044
3.62,0.041
3.621,0.037
3.622,0.039
3.623,0.044
3.624,0.044
3.625,0.044
3.626,0.044
3.627,0.044
3.628,0.046
3.629,0.044
3.63,0.042
3.631,0.041
3.632,0.044
3.633,0.044
3.634,0.042
3.635,0.041
3.636,0.044
3.637,0.044
3.638,0.044
3.639,0.044
3.64,0.042
3.641,0.044
3.642,0.044
3.643,0.041
3.644,0.042
3.645,0.044
3.646,0.048
3.647,0.053
3.648,0.054
3.649,0.056
3.65,0.055
3.651,0.053
3.652,0.05
3.653,0.047
3.654,0.049
3.655,0.044
3.656,0.045
3.657,0.044
3.658,0.041
3.659,0.044
3.66,0.042
3.661,0.044
3.662,0.037
3.663,0.034
3.664,0.032
3.665,0.034
3.666,0.039
3.667,0.037
3.668,0.039
3.669,0.037
3.67,0.037
3.671,0.037
3.672,0.042
3.673,0.041
3.674,0.037
3.675,0.034
3.676,0.027
3.677,0.025
3.678,0.023
3.679,0.025
3.68,0.023
3.681,0.022
3.682,0.022
3.683,0.016
3.684,0.014
3.685,0.009
3.686,0.006
3.687,0.003
3.688,-0.003
3.689,-0.006
3.69,-0.003
3.691,-0.006
3.692,-0.008
3.693,-0.006
3.694,-0.011
3.695,-0.016
3.696,-0.02
3.697,-0.025
3.698,-0.025
3.699,-0.025
3.7,-0.028
3.701,-0.025
3.702,-0.027
3.703,-0.028
3.704,-0.028
3.705,-0.028
3.706,-0.031
3.707,-0.034
3.708,-0.036
3.709,-0.034
3.71,-0.041
3.711,-0.044
3.712,-0.044
3.713,-0.044
3.714,-0.05
3.715,-0.05
3.716,-0.051
3.717,-0.056
3.718,-0.058
3.719,-0.063
3.72,-0.061
3.721,-0.066
3.722,-0.064
3.723,-0.066
3.724,-0.066
3.725,-0.066
3.726,-0.064
3.727,-0.066
3.728,-0.064
3.729,-0.066
3.73,-0.066
3.731,-0.066
3.732,-0.061
3.733,-0.056
3.734,-0.058
3.735,-0.059
3.736,-0.059
3.737,-0.059
3.738,-0.063
3.739,-0.063
3.74,-0.064
3.741,-0.069
3.742,-0.066
3.743,-0.066
3.744,-0.07
3.745,-0.072
3.746,-0.072
3.747,-0.072
3.748,-0.075
3.749,-0.072
3.75,-0.071
3.751,-0.072
3.752,-0.073
3.753,-0.075
3.754,-0.075
3.755,-0.075
3.756,-0.075
3.757,-0.075
3.758,-0.074
3.759,-0.072
3.76,-0.075
3.761,-0.072
3.762,-0.073
3.763,-0.075
3.764,-0.071
3.765,-0.072
3.766,-0.071
3.767,-0.069
3.768,-0.067
3.769,-0.069
3.77,-0.069
3.771,-0.069
3.772,-0.069
3.773,-0.069
3.774,-0.072
3.775,-0.072
3.776,-0.076
3.777,-0.081
3.778,-0.08
3.779,-0.078
3.78,-0.08
3.781,-0.078
3.782,-0.077
3.783,-0.072
3.784,-0.071
3.785,-0.072
3.786,-0.076
3.787,-0.084
3.788,-0.082
3.789,-0.084
3.79,-0.083
3.791,-0.081
3.792,-0.08
3.793,-0.075
3.794,-0.076
3.795,-0.078
3.796,-0.079
3.797,-0.084
3.798,-0.081
3.799,-0.081
3.8,-0.08
3.801,-0.078
3.802,-0.075
3.803,-0.075
3.804,-0.076
3.805,-0.075
3.806,-0.075
3.807,-0.075
3.808,-0.078
3.809,-0.078
3.81,-0.075
3.811,-0.078
3.812,-0.081
3.813,-0.081
3.814,-0.079
3.815,-0.084
3.816,-0.084
3.817,-0.084
3.818,-0.086
3.819,-0.088
3.82,-0.086
3.821,-0.088
3.822,-0.086
3.823,-0.084
3.824,-0.084
3.825,-0.084
3.826,-0.084
3.827,-0.084
3.828,-0.084
3.829,-0.084
3.83,-0.088
3.831,-0.084
3.832,-0.083
3.833,-0.081
3.834,-0.081
3.835,-0.081
3.836,-0.081
3.837,-0.084
3.838,-0.08
3.839,-0.081
3.84,-0.082
3.841,-0.081
3.842,-0.084
3.843,-0.084
3.844,-0.084
3.845,-0.084
3.846,-0.084
3.847,-0.084
3.848,-0.083
3.849,-0.084
3.85,-0.082
3.851,-0.084
3.852,-0.084
3.853,-0.084
3.854,-0.084
3.855,-0.081
3.856,-0.084
3.857,-0.084
3.858,-0.083
3.859,-0.084
3.86,-0.083
3.861,-0.081
3.862,-0.086
3.863,-0.088
3.864,-0.088
3.865,-0.088
3.866,-0.089
3.867,-0.091
3.868,-0.092
3.869,-0.094
3.87,-0.094
3.871,-0.094
3.872,-0.093
3.873,-0.091
3.874,-0.091
3.875,-0.091
3.876,-0.091
3.877,-0.091
3.878,-0.088
3.879,-0.088
3.88,-0.088
3.881,-0.084
3.882,-0.086
3.883,-0.088
3.884,-0.091
3.885,-0.091
3.886,-0.091
3.887,-0.091
3.888,-0.089
3.889,-0.088
3.89,-0.088
3.891,-0.091
3.892,-0.091
3.893,-0.091
3.894,-0.092
3.895,-0.091
3.896,-0.091
3.897,-0.091
3.898,-0.089
3.899,-0.091
3.9,-0.092
3.901,-0.091
3.902,-0.091
3.903,-0.094
3.904,-0.092
3.905,-0.094
3.906,-0.093
3.907,-0.091
3.908,-0.088
3.909,-0.088
3.91,-0.086
3.911,-0.084
3.912,-0.088
3.913,-0.088
3.914,-0.089
3.915,-0.088
3.916,-0.091
3.917,-0.097
3.918,-0.098
3.919,-0.1
3.92,-0.094
3.921,-0.091
3.922,-0.089
3.923,-0.088
3.924,-0.086
3.925,-0.084
3.926,-0.086
3.927,-0.084
3.928,-0.084
3.929,-0.078
3.93,-0.074
3.931,-0.063
3.932,-0.058
3.933,-0.053
3.934,-0.048
3.935,-0.044
3.936,-0.042
3.937,-0.037
3.938,-0.033
3.939,-0.025
3.94,-0.021
3.941,-0.019
3.942,-0.02
3.943,-0.019
3.944,-0.014
3.945,-0.009
3.946,-0.003
3.947,0.003
3.948,0.009
3.949,0.009
3.95,0.011
3.951,0.013
3.952,0.009
3.953,0.009
3.954,0.006
3.955,0.006
3.956,0.006
3.957,0.006
3.958,0.006
3.959,0.009
3.96,0.014
3.961,0.022
3.962,0.028
3.963,0.031
3.964,0.034
3.965,0.041
3.966,0.05
3.967,0.056
3.968,0.058
3.969,0.063
3.97,0.071
3.971,0.075
3.972,0.086
3.973,0.097
3.974,0.105
3.975,0.103
3.976,0.102
3.977,0.103
3.978,0.1
3.979,0.103
3.98,0.113
3.981,0.122
3.982,0.129
3.983,0.137
3.984,0.145
3.985,0.153
3.986,0.156
3.987,0.156
3.988,0.158
3.989,0.156
3.99,0.155
3.991,0.153
3.992,0.158
3.993,0.156
3.994,0.153
3.995,0.153
3.996,0.144
3.997,0.144
3.998,0.142
3.999,0.141
4,0.142
4.001,0.144
4.002,0.137
4.003,0.134
4.004,0.128
4.005,0.119
4.006,0.108
4.007,0.097
4.008,0.084
4.009,0.072
4.01,0.066
4.011,0.059
4.012,0.052
4.013,0.041
4.014,0.025
4.015,0.013
4.016,0.002
4.017,-0.006
4.018,-0.016
4.019,-0.022
4.02,-0.032
4.021,-0.041
4.022,-0.044
4.023,-0.047
4.024,-0.058
4.025,-0.066
4.026,-0.075
4.027,-0.084
4.028,-0.089
4.029,-0.097
4.03,-0.109
4.031,-0.122
4.032,-0.128
4.033,-0.128
4.034,-0.13
4.035,-0.131
4.036,-0.138
4.037,-0.144
4.038,-0.145
4.039,-0.141
4.04,-0.141
4.041,-0.141
4.042,-0.144
4.043,-0.147
4.044,-0.147
4.045,-0.147
4.046,-0.147
4.047,-0.15
4.048,-0.151
4.049,-0.153
4.05,-0.158
4.051,-0.159
4.052,-0.155
4.053,-0.15
4.054,-0.151
4.055,-0.153
4.056,-0.156
4.057,-0.162
4.058,-0.164
4.059,-0.166
4.06,-0.173
4.061,-0.175
4.062,-0.172
4.063,-0.175
4.064,-0.172
4.065,-0.172
4.066,-0.174
4.067,-0.172
4.068,-0.162
4.069,-0.156
4.07,-0.159
4.071,-0.159
4.072,-0.161
4.073,-0.162
4.074,-0.164
4.075,-0.166
4.076,-0.166
4.077,-0.166
4.078,-0.164
4.079,-0.162
4.08,-0.166
4.081,-0.169
4.082,-0.167
4.083,-0.162
4.084,-0.158
4.085,-0.153
4.086,-0.15
4.087,-0.147
4.088,-0.15
4.089,-0.15
4.09,-0.153
4.091,-0.156
4.092,-0.156
4.093,-0.156
4.094,-0.156
4.095,-0.156
4.096,-0.158
4.097,-0.156
4.098,-0.156
4.099,-0.159
4.1,-0.172
4.101,-0.184
4.102,-0.194
4.103,-0.203
4.104,-0.209
4.105,-0.209
4.106,-0.216
4.107,-0.219
4.108,-0.223
4.109,-0.228
4.11,-0.223
4.111,-0.206
4.112,-0.177
4.113,-0.147
4.114,-0.122
4.115,-0.097
4.116,-0.071
4.117,-0.041
4.118,-0.008
4.119,0.034
4.12,0.081
4.121,0.134
4.122,0.206
4.123,0.284
4.124,0.362
4.125,0.437
4.126,0.513
4.127,0.587
4.128,0.669
4.129,0.756
4.13,0.847
4.131,0.941
4.132,1.042
4.133,1.147
4.134,1.251
4.135,1.362
4.136,1.478
4.137,1.597
4.138,1.696
4.139,1.775
4.14,1.808
4.141,1.812
4.142,1.764
4.143,1.656
4.144,1.502
4.145,1.331
4.146,1.179
4.147,1.044
4.148,0.916
4.149,0.788
4.15,0.653
4.151,0.513
4.152,0.398
4.153,0.312
4.154,0.253
4.155,0.206
4.156,0.167
4.157,0.134
4.158,0.098
4.159,0.063
4.16,0.025
4.161,-0.009
4.162,-0.039
4.163,-0.059
4.164,-0.069
4.165,-0.078
4.166,-0.089
4.167,-0.088
4.168,-0.086
4.169,-0.084
4.17,-0.084
4.171,-0.088
4.172,-0.092
4.173,-0.1
4.174,-0.103
4.175,-0.106
4.176,-0.109
4.177,-0.116
4.178,-0.117
4.179,-0.116
4.18,-0.119
4.181,-0.122
4.182,-0.125
4.183,-0.128
4.184,-0.131
4.185,-0.131
4.186,-0.138
4.187,-0.141
4.188,-0.143
4.189,-0.144
4.19,-0.145
4.191,-0.144
4.192,-0.141
4.193,-0.144
4.194,-0.141
4.195,-0.141
4.196,-0.144
4.197,-0.147
4.198,-0.15
4.199,-0.15
4.2,-0.143
4.201,-0.138
4.202,-0.136
4.203,-0.134
4.204,-0.134
4.205,-0.134
4.206,-0.136
4.207,-0.138
4.208,-0.138
4.209,-0.134
4.21,-0.139
4.211,-0.138
4.212,-0.134
4.213,-0.134
4.214,-0.13
4.215,-0.125
4.216,-0.126
4.217,-0.125
4.218,-0.125
4.219,-0.125
4.22,-0.125
4.221,-0.125
4.222,-0.124
4.223,-0.122
4.224,-0.123
4.225,-0.122
4.226,-0.123
4.227,-0.125
4.228,-0.128
4.229,-0.128
4.23,-0.128
4.231,-0.134
4.232,-0.128
4.233,-0.128
4.234,-0.128
4.235,-0.125
4.236,-0.125
4.237,-0.125
4.238,-0.125
4.239,-0.125
4.24,-0.122
4.241,-0.122
4.242,-0.117
4.243,-0.113
4.244,-0.114
4.245,-0.113
4.246,-0.117
4.247,-0.119
4.248,-0.12
4.249,-0.119
4.25,-0.121
4.251,-0.119
4.252,-0.116
4.253,-0.113
4.254,-0.114
4.255,-0.113
4.256,-0.114
4.257,-0.113
4.258,-0.113
4.259,-0.113
4.26,-0.111
4.261,-0.106
4.262,-0.106
4.263,-0.106
4.264,-0.105
4.265,-0.103
4.266,-0.103
4.267,-0.103
4.268,-0.104
4.269,-0.103
4.27,-0.102
4.271,-0.103
4.272,-0.103
4.273,-0.1
4.274,-0.099
4.275,-0.097
4.276,-0.095
4.277,-0.097
4.278,-0.098
4.279,-0.097
4.28,-0.1
4.281,-0.1
4.282,-0.096
4.283,-0.094
4.284,-0.095
4.285,-0.094
4.286,-0.094
4.287,-0.094
4.288,-0.091
4.289,-0.088
4.29,-0.089
4.291,-0.088
4.292,-0.088
4.293,-0.091
4.294,-0.089
4.295,-0.088
4.296,-0.084
4.297,-0.084
4.298,-0.082
4.299,-0.084
4.3,-0.084
4.301,-0.081
4.302,-0.08
4.303,-0.078
4.304,-0.077
4.305,-0.072
4.306,-0.072
4.307,-0.072
4.308,-0.07
4.309,-0.072
4.31,-0.069
4.311,-0.069
4.312,-0.066
4.313,-0.066
4.314,-0.059
4.315,-0.056
4.316,-0.056
4.317,-0.053
4.318,-0.054
4.319,-0.053
4.32,-0.047
4.321,-0.044
4.322,-0.045
4.323,-0.044
4.324,-0.047
4.325,-0.047
4.326,-0.044
4.327,-0.044
4.328,-0.037
4.329,-0.034
4.33,-0.036
4.331,-0.037
4.332,-0.039
4.333,-0.037
4.334,-0.037
4.335,-0.034
4.336,-0.033
4.337,-0.028
4.338,-0.029
4.339,-0.028
4.34,-0.024
4.341,-0.022
4.342,-0.02
4.343,-0.019
4.344,-0.019
4.345,-0.016
4.346,-0.011
4.347,-0.006
4.348,-0.005
4.349,-0.003
4.35,-0.003
4.351,-0.003
4.352,0.001
4.353,0.003
4.354,0.004
4.355,0.009
4.356,0.006
4.357,0.009
4.358,0.009
4.359,0.009
4.36,0.013
4.361,0.016
4.362,0.018
4.363,0.019
4.364,0.018
4.365,0.019
4.366,0.02
4.367,0.022
4.368,0.026
4.369,0.028
4.37,0.031
4.371,0.031
4.372,0.03
4.373,0.031
4.374,0.028
4.375,0.031
4.376,0.031
4.377,0.031
4.378,0.033
4.379,0.034
4.38,0.031
4.381,0.031
4.382,0.03
4.383,0.031
4.384,0.033
4.385,0.031
4.386,0.031
4.387,0.031
4.388,0.031
4.389,0.031
4.39,0.034
4.391,0.037
4.392,0.041
4.393,0.041
4.394,0.041
4.395,0.041
4.396,0.039
4.397,0.041
4.398,0.041
4.399,0.041
4.4,0.039
4.401,0.041
4.402,0.044
4.403,0.047
4.404,0.044
4.405,0.044
4.406,0.044
4.407,0.044
4.408,0.045
4.409,0.047
4.41,0.053
4.411,0.056
4.412,0.053
4.413,0.056
4.414,0.063
4.415,0.066
4.416,0.066
4.417,0.066
4.418,0.061
4.419,0.056
4.42,0.055
4.421,0.053
4.422,0.054
4.423,0.059
4.424,0.056
4.425,0.056
4.426,0.052
4.427,0.047
4.428,0.051
4.429,0.05
4.43,0.05
4.431,0.047
4.432,0.05
4.433,0.05
4.434,0.049
4.435,0.05
4.436,0.044
4.437,0.041
4.438,0.041
4.439,0.041
4.44,0.037
4.441,0.041
4.442,0.036
4.443,0.034
4.444,0.033
4.445,0.025
4.446,0.025
4.447,0.022
4.448,0.023
4.449,0.022
4.45,0.016
4.451,0.013
4.452,0.008
4.453,0.009
4.454,0.006
4.455,0.003
4.456,-0.001
4.457,-0.006
4.458,-0.006
4.459,-0.006
4.46,-0.013
4.461,-0.016
4.462,-0.014
4.463,-0.016
4.464,-0.018
4.465,-0.019
4.466,-0.023
4.467,-0.028
4.468,-0.03
4.469,-0.031
4.47,-0.029
4.471,-0.034
4.472,-0.036
4.473,-0.034
4.474,-0.033
4.475,-0.034
4.476,-0.037
4.477,-0.041
4.478,-0.039
4.479,-0.041
4.48,-0.042
4.481,-0.044
4.482,-0.043
4.483,-0.047
4.484,-0.047
4.485,-0.047
4.486,-0.044
4.487,-0.037
4.488,-0.044
4.489,-0.044
4.49,-0.048
4.491,-0.05
4.492,-0.053
4.493,-0.053
4.494,-0.056
4.495,-0.059
4.496,-0.061
4.497,-0.059
4.498,-0.059
4.499,-0.056
4.5,-0.058
4.501,-0.059
4.502,-0.061
4.503,-0.063
4.504,-0.064
4.505,-0.066
4.506,-0.064
4.507,-0.066
4.508,-0.064
4.509,-0.063
4.51,-0.069
4.511,-0.069
4.512,-0.066
4.513,-0.066
4.514,-0.066
4.515,-0.066
4.516,-0.067
4.517,-0.072
4.518,-0.07
4.519,-0.072
4.52,-0.075
4.521,-0.075
4.522,-0.075
4.523,-0.075
4.524,-0.075
4.525,-0.075
4.526,-0.075
4.527,-0.075
4.528,-0.074
4.529,-0.075
4.53,-0.073
4.531,-0.075
4.532,-0.076
4.533,-0.075
4.534,-0.079
4.535,-0.081
4.536,-0.082
4.537,-0.081
4.538,-0.077
4.539,-0.072
4.54,-0.073
4.541,-0.075
4.542,-0.074
4.543,-0.075
4.544,-0.076
4.545,-0.078
4.546,-0.077
4.547,-0.075
4.548,-0.074
4.549,-0.075
4.55,-0.075
4.551,-0.075
4.552,-0.073
4.553,-0.075
4.554,-0.079
4.555,-0.081
4.556,-0.086
4.557,-0.084
4.558,-0.084
4.559,-0.084
4.56,-0.083
4.561,-0.084
4.562,-0.084
4.563,-0.084
4.564,-0.081
4.565,-0.078
4.566,-0.08
4.567,-0.075
4.568,-0.076
4.569,-0.078
4.57,-0.078
4.571,-0.078
4.572,-0.081
4.573,-0.081
4.574,-0.079
4.575,-0.081
4.576,-0.08
4.577,-0.081
4.578,-0.084
4.579,-0.084
4.58,-0.086
4.581,-0.088
4.582,-0.088
4.583,-0.084
4.584,-0.088
4.585,-0.088
4.586,-0.088
4.587,-0.088
4.588,-0.088
4.589,-0.088
4.59,-0.091
4.591,-0.091
4.592,-0.091
4.593,-0.091
4.594,-0.092
4.595,-0.094
4.596,-0.094
4.597,-0.094
4.598,-0.094
4.599,-0.097
4.6,-0.097
4.601,-0.1
4.602,-0.099
4.603,-0.097
4.604,-0.094
4.605,-0.091
4.606,-0.095
4.607,-0.094
4.608,-0.098
4.609,-0.1
4.61,-0.098
4.611,-0.103
4.612,-0.103
4.613,-0.103
4.614,-0.1
4.615,-0.097
4.616,-0.096
4.617,-0.094
4.618,-0.1
4.619,-0.1
4.62,-0.1
4.621,-0.1
4.622,-0.099
4.623,-0.097
4.624,-0.093
4.625,-0.094
4.626,-0.094
4.627,-0.094
4.628,-0.098
4.629,-0.1
4.63,-0.097
4.631,-0.097
4.632,-0.098
4.633,-0.1
4.634,-0.101
4.635,-0.103
4.636,-0.103
4.637,-0.103
4.638,-0.099
4.639,-0.094
4.64,-0.095
4.641,-0.097
4.642,-0.1
4.643,-0.103
4.644,-0.102
4.645,-0.1
4.646,-0.097
4.647,-0.091
4.648,-0.092
4.649,-0.094
4.65,-0.091
4.651,-0.094
4.652,-0.098
4.653,-0.1
4.654,-0.098
4.655,-0.1
4.656,-0.097
4.657,-0.094
4.658,-0.094
4.659,-0.094
4.66,-0.098
4.661,-0.1
4.662,-0.1
4.663,-0.1
4.664,-0.1
4.665,-0.103
4.666,-0.103
4.667,-0.103
4.668,-0.105
4.669,-0.103
4.67,-0.101
4.671,-0.103
4.672,-0.102
4.673,-0.1
4.674,-0.103
4.675,-0.103
4.676,-0.106
4.677,-0.103
4.678,-0.099
4.679,-0.094
4.68,-0.095
4.681,-0.094
4.682,-0.094
4.683,-0.094
4.684,-0.093
4.685,-0.094
4.686,-0.095
4.687,-0.097
4.688,-0.094
4.689,-0.094
4.69,-0.098
4.691,-0.1
4.692,-0.097
4.693,-0.091
4.694,-0.091
4.695,-0.088
4.696,-0.086
4.697,-0.088
4.698,-0.084
4.699,-0.081
4.7,-0.081
4.701,-0.084
4.702,-0.078
4.703,-0.078
4.704,-0.073
4.705,-0.072
4.706,-0.069
4.707,-0.063
4.708,-0.056
4.709,-0.053
4.71,-0.048
4.711,-0.047
4.712,-0.042
4.713,-0.041
4.714,-0.039
4.715,-0.034
4.716,-0.027
4.717,-0.022
4.718,-0.02
4.719,-0.019
4.72,-0.013
4.721,-0.003
4.722,-0.003
4.723,0
4.724,0.003
4.725,0
4.726,-0.004
4.727,-0.013
4.728,-0.013
4.729,-0.013
4.73,-0.009
4.731,-0.003
4.732,0.008
4.733,0.016
4.734,0.021
4.735,0.028
4.736,0.036
4.737,0.041
4.738,0.042
4.739,0.044
4.74,0.047
4.741,0.05
4.742,0.056
4.743,0.066
4.744,0.071
4.745,0.075
4.746,0.081
4.747,0.091
4.748,0.092
4.749,0.094
4.75,0.098
4.751,0.1
4.752,0.106
4.753,0.113
4.754,0.119
4.755,0.125
4.756,0.13
4.757,0.134
4.758,0.141
4.759,0.147
4.76,0.151
4.761,0.153
4.762,0.15
4.763,0.15
4.764,0.15
4.765,0.153
4.766,0.15
4.767,0.147
4.768,0.146
4.769,0.134
4.77,0.133
4.771,0.128
4.772,0.126
4.773,0.125
4.774,0.121
4.775,0.113
4.776,0.109
4.777,0.103
4.778,0.097
4.779,0.091
4.78,0.084
4.781,0.078
4.782,0.063
4.783,0.047
4.784,0.039
4.785,0.034
4.786,0.026
4.787,0.013
4.788,0
4.789,-0.009
4.79,-0.014
4.791,-0.025
4.792,-0.036
4.793,-0.047
4.794,-0.053
4.795,-0.056
4.796,-0.058
4.797,-0.066
4.798,-0.075
4.799,-0.084
4.8,-0.088
4.801,-0.091
4.802,-0.1
4.803,-0.109
4.804,-0.117
4.805,-0.128
4.806,-0.138
4.807,-0.144
4.808,-0.15
4.809,-0.156
4.81,-0.159
4.811,-0.159
4.812,-0.153
4.813,-0.156
4.814,-0.159
4.815,-0.159
4.816,-0.159
4.817,-0.159
4.818,-0.158
4.819,-0.156
4.82,-0.161
4.821,-0.162
4.822,-0.162
4.823,-0.166
4.824,-0.166
4.825,-0.166
4.826,-0.164
4.827,-0.162
4.828,-0.161
4.829,-0.159
4.83,-0.162
4.831,-0.162
4.832,-0.161
4.833,-0.162
4.834,-0.159
4.835,-0.159
4.836,-0.166
4.837,-0.162
4.838,-0.161
4.839,-0.162
4.84,-0.164
4.841,-0.162
4.842,-0.161
4.843,-0.162
4.844,-0.167
4.845,-0.172
4.846,-0.171
4.847,-0.169
4.848,-0.169
4.849,-0.169
4.85,-0.17
4.851,-0.172
4.852,-0.172
4.853,-0.172
4.854,-0.172
4.855,-0.172
4.856,-0.169
4.857,-0.169
4.858,-0.169
4.859,-0.166
4.86,-0.162
4.861,-0.162
4.862,-0.158
4.863,-0.156
4.864,-0.155
4.865,-0.153
4.866,-0.153
4.867,-0.153
4.868,-0.153
4.869,-0.156
4.87,-0.156
4.871,-0.159
4.872,-0.164
4.873,-0.172
4.874,-0.183
4.875,-0.194
4.876,-0.197
4.877,-0.2
4.878,-0.209
4.879,-0.219
4.88,-0.219
4.881,-0.222
4.882,-0.224
4.883,-0.216
4.884,-0.197
4.885,-0.172
4.886,-0.146
4.887,-0.119
4.888,-0.097
4.889,-0.075
4.89,-0.047
4.891,-0.016
4.892,0.025
4.893,0.069
4.894,0.113
4.895,0.175
4.896,0.249
4.897,0.328
4.898,0.406
4.899,0.481
4.9,0.556
4.901,0.634
4.902,0.719
4.903,0.809
4.904,0.9
4.905,1
4.906,1.108
4.907,1.212
4.908,1.325
4.909,1.444
4.91,1.564
4.911,1.666
4.912,1.757
4.913,1.812
4.914,1.842
4.915,1.819
4.916,1.729
4.917,1.594
4.918,1.436
4.919,1.284
4.92,1.147
4.921,1.025
4.922,0.903
4.923,0.772
4.924,0.628
4.925,0.5
4.926,0.396
4.927,0.319
4.928,0.261
4.929,0.212
4.93,0.167
4.931,0.119
4.932,0.074
4.933,0.028
4.934,-0.009
4.935,-0.037
4.936,-0.055
4.937,-0.066
4.938,-0.077
4.939,-0.088
4.94,-0.088
4.941,-0.088
4.942,-0.084
4.943,-0.084
4.944,-0.091
4.945,-0.094
4.946,-0.101
4.947,-0.106
4.948,-0.108
4.949,-0.106
4.95,-0.108
4.951,-0.109
4.952,-0.108
4.953,-0.109
4.954,-0.109
4.955,-0.109
4.956,-0.117
4.957,-0.125
4.958,-0.125
4.959,-0.131
4.96,-0.131
4.961,-0.131
4.962,-0.138
4.963,-0.141
4.964,-0.141
4.965,-0.141
4.966,-0.145
4.967,-0.144
4.968,-0.143
4.969,-0.141
4.97,-0.138
4.971,-0.134
4.972,-0.131
4.973,-0.131
4.974,-0.134
4.975,-0.134
4.976,-0.136
4.977,-0.138
4.978,-0.138
4.979,-0.138
4.98,-0.139
4.981,-0.141
4.982,-0.138
4.983,-0.141
4.984,-0.141
4.985,-0.141
4.986,-0.136
4.987,-0.131
4.988,-0.131
4.989,-0.131
4.99,-0.129
4.991,-0.131
4.992,-0.131
4.993,-0.131
4.994,-0.13
4.995,-0.128
4.996,-0.129
4.997,-0.131
4.998,-0.129
4.999,-0.131
5,-0.131
5.001,-0.131
5.002,-0.128
5.003,-0.125
5.004,-0.127
5.005,-0.122
5.006,-0.125
5.007,-0.125
5.008,-0.123
5.009,-0.125
5.01,-0.122
5.011,-0.119
5.012,-0.119
5.013,-0.116
5.014,-0.116
5.015,-0.116
5.016,-0.116
5.017,-0.116
5.018,-0.113
5.019,-0.113
5.02,-0.113
5.021,-0.116
5.022,-0.111
5.023,-0.113
5.024,-0.113
5.025,-0.113
5.026,-0.113
5.027,-0.113
5.028,-0.108
5.029,-0.106
5.03,-0.104
5.031,-0.106
5.032,-0.108
5.033,-0.109
5.034,-0.106
5.035,-0.106
5.036,-0.106
5.037,-0.106
5.038,-0.106
5.039,-0.106
5.04,-0.106
5.041,-0.106
5.042,-0.1
5.043,-0.097
5.044,-0.099
5.045,-0.097
5.046,-0.095
5.047,-0.097
5.048,-0.1
5.049,-0.1
5.05,-0.099
5.051,-0.097
5.052,-0.094
5.053,-0.097
5.054,-0.096
5.055,-0.091
5.056,-0.091
5.057,-0.091
5.058,-0.089
5.059,-0.091
5.06,-0.092
5.061,-0.094
5.062,-0.093
5.063,-0.091
5.064,-0.088
5.065,-0.088
5.066,-0.092
5.067,-0.091
5.068,-0.083
5.069,-0.075
5.07,-0.076
5.071,-0.075
5.072,-0.075
5.073,-0.075
5.074,-0.072
5.075,-0.072
5.076,-0.072
5.077,-0.072
5.078,-0.07
5.079,-0.072
5.08,-0.069
5.081,-0.063
5.082,-0.059
5.083,-0.053
5.084,-0.056
5.085,-0.056
5.086,-0.058
5.087,-0.056
5.088,-0.056
5.089,-0.056
5.09,-0.054
5.091,-0.056
5.092,-0.053
5.093,-0.05
5.094,-0.05
5.095,-0.05
5.096,-0.046
5.097,-0.044
5.098,-0.039
5.099,-0.034
5.1,-0.036
5.101,-0.034
5.102,-0.031
5.103,-0.028
5.104,-0.031
5.105,-0.031
5.106,-0.024
5.107,-0.022
5.108,-0.019
5.109,-0.019
5.11,-0.016
5.111,-0.016
5.112,-0.011
5.113,-0.006
5.114,-0.006
5.115,-0.003
5.116,0
5.117,0
5.118,0.003
5.119,0.006
5.12,0.009
5.121,0.009
5.122,0.006
5.123,0.006
5.124,0.011
5.125,0.016
5.126,0.017
5.127,0.019
5.128,0.021
5.129,0.019
5.13,0.022
5.131,0.019
5.132,0.02
5.133,0.022
5.134,0.023
5.135,0.028
5.136,0.031
5.137,0.031
5.138,0.033
5.139,0.031
5.14,0.031
5.141,0.034
5.142,0.034
5.143,0.037
5.144,0.039
5.145,0.041
5.146,0.044
5.147,0.041
5.148,0.042
5.149,0.041
5.15,0.042
5.151,0.047
5.152,0.056
5.153,0.059
5.154,0.061
5.155,0.063
5.156,0.063
5.157,0.063
5.158,0.063
5.159,0.063
5.16,0.063
5.161,0.063
5.162,0.064
5.163,0.066
5.164,0.064
5.165,0.066
5.166,0.066
5.167,0.066
5.168,0.064
5.169,0.063
5.17,0.07
5.171,0.075
5.172,0.074
5.173,0.072
5.174,0.072
5.175,0.069
5.176,0.07
5.177,0.072
5.178,0.074
5.179,0.072
5.18,0.072
5.181,0.072
5.182,0.072
5.183,0.075
5.184,0.076
5.185,0.075
5.186,0.079
5.187,0.084
5.188,0.084
5.189,0.084
5.19,0.081
5.191,0.078
5.192,0.078
5.193,0.078
5.194,0.078
5.195,0.078
5.196,0.081
5.197,0.078
5.198,0.079
5.199,0.078
5.2,0.074
5.201,0.075
5.202,0.072
5.203,0.072
5.204,0.07
5.205,0.072
5.206,0.068
5.207,0.066
5.208,0.068
5.209,0.063
5.21,0.059
5.211,0.053
5.212,0.051
5.213,0.05
5.214,0.053
5.215,0.05
5.216,0.051
5.217,0.053
5.218,0.048
5.219,0.05
5.22,0.044
5.221,0.041
5.222,0.037
5.223,0.034
5.224,0.036
5.225,0.031
5.226,0.03
5.227,0.025
5.228,0.023
5.229,0.022
5.23,0.018
5.231,0.016
5.232,0.017
5.233,0.013
5.234,0.011
5.235,0.013
5.236,0.011
5.237,0.009
5.238,0.003
5.239,-0.003
5.24,-0.003
5.241,-0.003
5.242,-0.008
5.243,-0.006
5.244,-0.009
5.245,-0.013
5.246,-0.014
5.247,-0.016
5.248,-0.016
5.249,-0.016
5.25,-0.02
5.251,-0.022
5.252,-0.028
5.253,-0.031
5.254,-0.031
5.255,-0.031
5.256,-0.037
5.257,-0.037
5.258,-0.037
5.259,-0.041
5.26,-0.042
5.261,-0.047
5.262,-0.041
5.263,-0.041
5.264,-0.037
5.265,-0.037
5.266,-0.037
5.267,-0.037
5.268,-0.037
5.269,-0.041
5.27,-0.042
5.271,-0.047
5.272,-0.048
5.273,-0.05
5.274,-0.05
5.275,-0.05
5.276,-0.05
5.277,-0.05
5.278,-0.05
5.279,-0.05
5.28,-0.052
5.281,-0.05
5.282,-0.05
5.283,-0.053
5.284,-0.049
5.285,-0.047
5.286,-0.05
5.287,-0.05
5.288,-0.049
5.289,-0.047
5.29,-0.051
5.291,-0.05
5.292,-0.049
5.293,-0.05
5.294,-0.05
5.295,-0.05
5.296,-0.053
5.297,-0.056
5.298,-0.056
5.299,-0.056
5.3,-0.055
5.301,-0.053
5.302,-0.059
5.303,-0.059
5.304,-0.059
5.305,-0.059
5.306,-0.055
5.307,-0.056
5.308,-0.055
5.309,-0.053
5.31,-0.05
5.311,-0.05
5.312,-0.054
5.313,-0.059
5.314,-0.059
5.315,-0.059
5.316,-0.059
5.317,-0.056
5.318,-0.056
5.319,-0.056
5.32,-0.055
5.321,-0.053
5.322,-0.056
5.323,-0.056
5.324,-0.056
5.325,-0.053
5.326,-0.052
5.327,-0.053
5.328,-0.054
5.329,-0.059
5.33,-0.059
5.331,-0.063
5.332,-0.059
5.333,-0.056
5.334,-0.059
5.335,-0.059
5.336,-0.058
5.337,-0.056
5.338,-0.056
5.339,-0.059
5.34,-0.056
5.341,-0.056
5.342,-0.058
5.343,-0.059
5.344,-0.059
5.345,-0.063
5.346,-0.066
5.347,-0.066
5.348,-0.066
5.349,-0.066
5.35,-0.066
5.351,-0.063
5.352,-0.059
5.353,-0.063
5.354,-0.067
5.355,-0.069
5.356,-0.066
5.357,-0.069
5.358,-0.069
5.359,-0.069
5.36,-0.069
5.361,-0.069
5.362,-0.066
5.363,-0.066
5.364,-0.066
5.365,-0.066
5.366,-0.067
5.367,-0.069
5.368,-0.068
5.369,-0.066
5.37,-0.07
5.371,-0.075
5.372,-0.078
5.373,-0.075
5.374,-0.076
5.375,-0.078
5.376,-0.075
5.377,-0.072
5.378,-0.072
5.379,-0.075
5.38,-0.072
5.381,-0.075
5.382,-0.075
5.383,-0.072
5.384,-0.078
5.385,-0.081
5.386,-0.081
5.387,-0.081
5.388,-0.081
5.389,-0.081
5.39,-0.081
5.391,-0.084
5.392,-0.078
5.393,-0.075
5.394,-0.075
5.395,-0.075
5.396,-0.076
5.397,-0.075
5.398,-0.078
5.399,-0.078
5.4,-0.077
5.401,-0.078
5.402,-0.078
5.403,-0.078
5.404,-0.081
5.405,-0.081
5.406,-0.081
5.407,-0.081
5.408,-0.084
5.409,-0.088
5.41,-0.089
5.411,-0.091
5.412,-0.086
5.413,-0.081
5.414,-0.08
5.415,-0.078
5.416,-0.079
5.417,-0.081
5.418,-0.082
5.419,-0.084
5.42,-0.082
5.421,-0.084
5.422,-0.086
5.423,-0.084
5.424,-0.086
5.425,-0.088
5.426,-0.083
5.427,-0.075
5.428,-0.076
5.429,-0.078
5.43,-0.079
5.431,-0.081
5.432,-0.08
5.433,-0.081
5.434,-0.081
5.435,-0.081
5.436,-0.086
5.437,-0.088
5.438,-0.088
5.439,-0.088
5.44,-0.088
5.441,-0.091
5.442,-0.092
5.443,-0.091
5.444,-0.091
5.445,-0.091
5.446,-0.089
5.447,-0.091
5.448,-0.095
5.449,-0.094
5.45,-0.091
5.451,-0.091
5.452,-0.091
5.453,-0.091
5.454,-0.089
5.455,-0.088
5.456,-0.086
5.457,-0.088
5.458,-0.084
5.459,-0.081
5.46,-0.084
5.461,-0.088
5.462,-0.088
5.463,-0.088
5.464,-0.086
5.465,-0.084
5.466,-0.083
5.467,-0.084
5.468,-0.089
5.469,-0.088
5.47,-0.088
5.471,-0.088
5.472,-0.089
5.473,-0.088
5.474,-0.084
5.475,-0.081
5.476,-0.08
5.477,-0.081
5.478,-0.081
5.479,-0.081
5.48,-0.077
5.481,-0.075
5.482,-0.078
5.483,-0.078
5.484,-0.079
5.485,-0.078
5.486,-0.079
5.487,-0.078
5.488,-0.078
5.489,-0.081
5.49,-0.078
5.491,-0.075
5.492,-0.073
5.493,-0.075
5.494,-0.066
5.495,-0.063
5.496,-0.059
5.497,-0.059
5.498,-0.058
5.499,-0.053
5.5,-0.044
5.501,-0.037
5.502,-0.032
5.503,-0.031
5.504,-0.024
5.505,-0.019
5.506,-0.019
5.507,-0.016
5.508,-0.009
5.509,-0.006
5.51,-0.003
5.511,0
5.512,0.002
5.513,0.006
5.514,0.008
5.515,0.013
5.516,0.019
5.517,0.019
5.518,0.02
5.519,0.019
5.52,0.018
5.521,0.016
5.522,0.016
5.523,0.019
5.524,0.025
5.525,0.028
5.526,0.031
5.527,0.037
5.528,0.045
5.529,0.05
5.53,0.055
5.531,0.059
5.532,0.066
5.533,0.072
5.534,0.079
5.535,0.091
5.536,0.098
5.537,0.106
5.538,0.106
5.539,0.109
5.54,0.109
5.541,0.109
5.542,0.113
5.543,0.113
5.544,0.12
5.545,0.128
5.546,0.131
5.547,0.134
5.548,0.144
5.549,0.153
5.55,0.156
5.551,0.159
5.552,0.164
5.553,0.166
5.554,0.164
5.555,0.166
5.556,0.164
5.557,0.166
5.558,0.164
5.559,0.162
5.56,0.166
5.561,0.159
5.562,0.161
5.563,0.159
5.564,0.153
5.565,0.147
5.566,0.139
5.567,0.128
5.568,0.124
5.569,0.116
5.57,0.106
5.571,0.097
5.572,0.089
5.573,0.081
5.574,0.075
5.575,0.069
5.576,0.059
5.577,0.053
5.578,0.044
5.579,0.028
5.58,0.016
5.581,0.006
5.582,-0.003
5.583,-0.019
5.584,-0.024
5.585,-0.028
5.586,-0.034
5.587,-0.037
5.588,-0.042
5.589,-0.053
5.59,-0.061
5.591,-0.069
5.592,-0.075
5.593,-0.081
5.594,-0.089
5.595,-0.097
5.596,-0.102
5.597,-0.109
5.598,-0.117
5.599,-0.122
5.6,-0.125
5.601,-0.128
5.602,-0.133
5.603,-0.134
5.604,-0.127
5.605,-0.128
5.606,-0.134
5.607,-0.138
5.608,-0.138
5.609,-0.138
5.61,-0.136
5.611,-0.134
5.612,-0.134
5.613,-0.131
5.614,-0.13
5.615,-0.131
5.616,-0.13
5.617,-0.128
5.618,-0.129
5.619,-0.131
5.62,-0.133
5.621,-0.134
5.622,-0.138
5.623,-0.138
5.624,-0.139
5.625,-0.144
5.626,-0.141
5.627,-0.141
5.628,-0.147
5.629,-0.144
5.63,-0.143
5.631,-0.144
5.632,-0.145
5.633,-0.144
5.634,-0.141
5.635,-0.141
5.636,-0.145
5.637,-0.15
5.638,-0.15
5.639,-0.15
5.64,-0.149
5.641,-0.147
5.642,-0.147
5.643,-0.147
5.644,-0.147
5.645,-0.147
5.646,-0.146
5.647,-0.144
5.648,-0.142
5.649,-0.144
5.65,-0.147
5.651,-0.147
5.652,-0.144
5.653,-0.144
5.654,-0.141
5.655,-0.141
5.656,-0.141
5.657,-0.141
5.658,-0.136
5.659,-0.131
5.66,-0.13
5.661,-0.131
5.662,-0.134
5.663,-0.141
5.664,-0.148
5.665,-0.159
5.666,-0.164
5.667,-0.169
5.668,-0.178
5.669,-0.188
5.67,-0.191
5.671,-0.194
5.672,-0.193
5.673,-0.194
5.674,-0.193
5.675,-0.181
5.676,-0.164
5.677,-0.141
5.678,-0.117
5.679,-0.094
5.68,-0.07
5.681,-0.047
5.682,-0.018
5.683,0.016
5.684,0.058
5.685,0.103
5.686,0.159
5.687,0.234
5.688,0.309
5.689,0.391
5.69,0.472
5.691,0.55
5.692,0.624
5.693,0.7
5.694,0.784
5.695,0.875
5.696,0.968
5.697,1.069
5.698,1.181
5.699,1.291
5.7,1.401
5.701,1.519
5.702,1.63
5.703,1.722
5.704,1.797
5.705,1.834
5.706,1.842
5.707,1.797
5.708,1.699
5.709,1.553
5.71,1.398
5.711,1.25
5.712,1.113
5.713,0.991
5.714,0.867
5.715,0.734
5.716,0.603
5.717,0.487
5.718,0.395
5.719,0.331
5.72,0.275
5.721,0.228
5.722,0.183
5.723,0.134
5.724,0.087
5.725,0.041
5.726,0.003
5.727,-0.025
5.728,-0.043
5.729,-0.053
5.73,-0.058
5.731,-0.063
5.732,-0.064
5.733,-0.066
5.734,-0.066
5.735,-0.069
5.736,-0.075
5.737,-0.078
5.738,-0.084
5.739,-0.088
5.74,-0.092
5.741,-0.094
5.742,-0.097
5.743,-0.1
5.744,-0.101
5.745,-0.106
5.746,-0.108
5.747,-0.109
5.748,-0.114
5.749,-0.119
5.75,-0.119
5.751,-0.125
5.752,-0.125
5.753,-0.125
5.754,-0.128
5.755,-0.128
5.756,-0.126
5.757,-0.125
5.758,-0.127
5.759,-0.122
5.76,-0.122
5.761,-0.122
5.762,-0.123
5.763,-0.125
5.764,-0.122
5.765,-0.122
5.766,-0.125
5.767,-0.125
5.768,-0.126
5.769,-0.128
5.77,-0.128
5.771,-0.128
5.772,-0.128
5.773,-0.128
5.774,-0.124
5.775,-0.125
5.776,-0.125
5.777,-0.125
5.778,-0.124
5.779,-0.122
5.78,-0.119
5.781,-0.116
5.782,-0.114
5.783,-0.116
5.784,-0.117
5.785,-0.119
5.786,-0.119
5.787,-0.119
5.788,-0.116
5.789,-0.113
5.79,-0.109
5.791,-0.109
5.792,-0.116
5.793,-0.122
5.794,-0.117
5.795,-0.113
5.796,-0.116
5.797,-0.113
5.798,-0.119
5.799,-0.122
5.8,-0.119
5.801,-0.119
5.802,-0.119
5.803,-0.119
5.804,-0.12
5.805,-0.119
5.806,-0.12
5.807,-0.122
5.808,-0.117
5.809,-0.113
5.81,-0.108
5.811,-0.106
5.812,-0.104
5.813,-0.106
5.814,-0.103
5.815,-0.106
5.816,-0.108
5.817,-0.109
5.818,-0.106
5.819,-0.103
5.82,-0.103
5.821,-0.106
5.822,-0.104
5.823,-0.106
5.824,-0.105
5.825,-0.103
5.826,-0.097
5.827,-0.094
5.828,-0.095
5.829,-0.097
5.83,-0.098
5.831,-0.1
5.832,-0.103
5.833,-0.106
5.834,-0.103
5.835,-0.103
5.836,-0.106
5.837,-0.106
5.838,-0.099
5.839,-0.094
5.84,-0.098
5.841,-0.1
5.842,-0.1
5.843,-0.1
5.844,-0.094
5.845,-0.094
5.846,-0.095
5.847,-0.094
5.848,-0.094
5.849,-0.094
5.85,-0.092
5.851,-0.094
5.852,-0.091
5.853,-0.088
5.854,-0.088
5.855,-0.088
5.856,-0.084
5.857,-0.084
5.858,-0.088
5.859,-0.084
5.86,-0.081
5.861,-0.078
5.862,-0.079
5.863,-0.078
5.864,-0.077
5.865,-0.075
5.866,-0.072
5.867,-0.072
5.868,-0.073
5.869,-0.075
5.87,-0.072
5.871,-0.072
5.872,-0.072
5.873,-0.069
5.874,-0.07
5.875,-0.069
5.876,-0.068
5.877,-0.063
5.878,-0.063
5.879,-0.059
5.88,-0.058
5.881,-0.056
5.882,-0.053
5.883,-0.053
5.884,-0.05
5.885,-0.047
5.886,-0.046
5.887,-0.044
5.888,-0.042
5.889,-0.044
5.89,-0.039
5.891,-0.034
5.892,-0.034
5.893,-0.031
5.894,-0.032
5.895,-0.034
5.896,-0.036
5.897,-0.034
5.898,-0.029
5.899,-0.031
5.9,-0.025
5.901,-0.022
5.902,-0.018
5.903,-0.016
5.904,-0.013
5.905,-0.009
5.906,-0.008
5.907,-0.003
5.908,-0.001
5.909,-0.003
5.91,0
5.911,0.003
5.912,0.011
5.913,0.016
5.914,0.016
5.915,0.019
5.916,0.018
5.917,0.016
5.918,0.016
5.919,0.016
5.92,0.02
5.921,0.022
5.922,0.028
5.923,0.028
5.924,0.028
5.925,0.028
5.926,0.027
5.927,0.028
5.928,0.032
5.929,0.034
5.93,0.039
5.931,0.041
5.932,0.039
5.933,0.041
5.934,0.041
5.935,0.044
5.936,0.044
5.937,0.044
5.938,0.047
5.939,0.044
5.94,0.048
5.941,0.05
5.942,0.05
5.943,0.053
5.944,0.059
5.945,0.059
5.946,0.061
5.947,0.063
5.948,0.064
5.949,0.066
5.95,0.066
5.951,0.066
5.952,0.067
5.953,0.069
5.954,0.069
5.955,0.069
5.956,0.068
5.957,0.069
5.958,0.068
5.959,0.066
5.96,0.067
5.961,0.069
5.962,0.075
5.963,0.078
5.964,0.078
5.965,0.078
5.966,0.081
5.967,0.081
5.968,0.081
5.969,0.081
5.97,0.084
5.971,0.084
5.972,0.084
5.973,0.084
5.974,0.084
5.975,0.087
5.976,0.087
5.977,0.084
5.978,0.084
5.979,0.084
5.98,0.084
5.981,0.084
5.982,0.083
5.983,0.081
5.984,0.081
5.985,0.081
5.986,0.084
5.987,0.087
5.988,0.091
5.989,0.087
5.99,0.087
5.991,0.084
5.992,0.081
5.993,0.084
5.994,0.082
5.995,0.084
5.996,0.082
5.997,0.084
5.998,0.08
5.999,0.078
6,0.081
6.001,0.078
6.002,0.079
6.003,0.078
6.004,0.072
6.005,0.066
6.006,0.068
6.007,0.063
6.008,0.063
6.009,0.063
6.01,0.059
6.011,0.063
6.012,0.056
6.013,0.053
6.014,0.05
6.015,0.047
6.016,0.048
6.017,0.044
6.018,0.045
6.019,0.044
6.02,0.037
6.021,0.031
6.022,0.027
6.023,0.025
6.024,0.028
6.025,0.025
6.026,0.018
6.027,0.013
6.028,0.011
6.029,0.009
6.03,0.009
6.031,0.009
6.032,0.003
6.033,-0.003
6.034,-0.006
6.035,-0.003
6.036,-0.005
6.037,-0.006
6.038,-0.005
6.039,-0.003
6.04,-0.006
6.041,-0.009
6.042,-0.016
6.043,-0.019
6.044,-0.023
6.045,-0.025
6.046,-0.025
6.047,-0.025
6.048,-0.031
6.049,-0.031
6.05,-0.031
6.051,-0.034
6.052,-0.034
6.053,-0.037
6.054,-0.033
6.055,-0.034
6.056,-0.037
6.057,-0.044
6.058,-0.044
6.059,-0.044
6.06,-0.043
6.061,-0.044
6.062,-0.044
6.063,-0.047
6.064,-0.046
6.065,-0.044
6.066,-0.044
6.067,-0.044
6.068,-0.045
6.069,-0.047
6.07,-0.046
6.071,-0.044
6.072,-0.048
6.073,-0.05
6.074,-0.05
6.075,-0.053
6.076,-0.05
6.077,-0.05
6.078,-0.053
6.079,-0.053
6.08,-0.052
6.081,-0.05
6.082,-0.052
6.083,-0.047
6.084,-0.046
6.085,-0.047
6.086,-0.048
6.087,-0.05
6.088,-0.05
6.089,-0.05
6.09,-0.05
6.091,-0.05
6.092,-0.053
6.093,-0.056
6.094,-0.063
6.095,-0.063
6.096,-0.059
6.097,-0.056
6.098,-0.052
6.099,-0.053
6.1,-0.054
6.101,-0.056
6.102,-0.056
6.103,-0.059
6.104,-0.059
6.105,-0.059
6.106,-0.058
6.107,-0.056
6.108,-0.059
6.109,-0.059
6.11,-0.063
6.111,-0.066
6.112,-0.066
6.113,-0.066
6.114,-0.063
6.115,-0.056
6.116,-0.058
6.117,-0.056
6.118,-0.058
6.119,-0.063
6.12,-0.058
6.121,-0.056
6.122,-0.054
6.123,-0.056
6.124,-0.056
6.125,-0.056
6.126,-0.059
6.127,-0.059
6.128,-0.059
6.129,-0.059
6.13,-0.058
6.131,-0.059
6.132,-0.059
6.133,-0.063
6.134,-0.064
6.135,-0.066
6.136,-0.064
6.137,-0.066
6.138,-0.066
6.139,-0.063
6.14,-0.064
6.141,-0.066
6.142,-0.069
6.143,-0.069
6.144,-0.059
6.145,-0.056
6.146,-0.058
6.147,-0.056
6.148,-0.056
6.149,-0.063
6.15,-0.063
6.151,-0.063
6.152,-0.066
6.153,-0.069
6.154,-0.069
6.155,-0.072
6.156,-0.072
6.157,-0.072
6.158,-0.072
6.159,-0.072
6.16,-0.069
6.161,-0.066
6.162,-0.064
6.163,-0.063
6.164,-0.067
6.165,-0.066
6.166,-0.066
6.167,-0.066
6.168,-0.066
6.169,-0.066
6.17,-0.066
6.171,-0.069
6.172,-0.066
6.173,-0.069
6.174,-0.069
6.175,-0.066
6.176,-0.068
6.177,-0.066
6.178,-0.066
6.179,-0.066
6.18,-0.067
6.181,-0.069
6.182,-0.07
6.183,-0.075
6.184,-0.072
6.185,-0.072
6.186,-0.072
6.187,-0.072
6.188,-0.072
6.189,-0.069
6.19,-0.072
6.191,-0.072
6.192,-0.071
6.193,-0.072
6.194,-0.072
6.195,-0.072
6.196,-0.075
6.197,-0.075
6.198,-0.078
6.199,-0.081
6.2,-0.082
6.201,-0.084
6.202,-0.083
6.203,-0.081
6.204,-0.08
6.205,-0.078
6.206,-0.079
6.207,-0.081
6.208,-0.082
6.209,-0.084
6.21,-0.084
6.211,-0.084
6.212,-0.075
6.213,-0.069
6.214,-0.07
6.215,-0.069
6.216,-0.072
6.217,-0.075
6.218,-0.079
6.219,-0.081
6.22,-0.081
6.221,-0.081
6.222,-0.08
6.223,-0.078
6.224,-0.077
6.225,-0.078
6.226,-0.075
6.227,-0.072
6.228,-0.075
6.229,-0.075
6.23,-0.076
6.231,-0.078
6.232,-0.075
6.233,-0.075
6.234,-0.075
6.235,-0.072
6.236,-0.071
6.237,-0.069
6.238,-0.068
6.239,-0.069
6.24,-0.072
6.241,-0.069
6.242,-0.067
6.243,-0.069
6.244,-0.073
6.245,-0.078
6.246,-0.078
6.247,-0.078
6.248,-0.077
6.249,-0.078
6.25,-0.074
6.251,-0.069
6.252,-0.07
6.253,-0.072
6.254,-0.073
6.255,-0.075
6.256,-0.078
6.257,-0.081
6.258,-0.078
6.259,-0.078
6.26,-0.077
6.261,-0.072
6.262,-0.072
6.263,-0.075
6.264,-0.072
6.265,-0.072
6.266,-0.073
6.267,-0.075
6.268,-0.073
6.269,-0.075
6.27,-0.074
6.271,-0.072
6.272,-0.075
6.273,-0.075
6.274,-0.076
6.275,-0.075
6.276,-0.076
6.277,-0.081
6.278,-0.078
6.279,-0.075
6.28,-0.072
6.281,-0.072
6.282,-0.072
6.283,-0.072
6.284,-0.072
6.285,-0.072
6.286,-0.073
6.287,-0.072
6.288,-0.072
6.289,-0.066
6.29,-0.063
6.291,-0.053
6.292,-0.049
6.293,-0.044
6.294,-0.039
6.295,-0.034
6.296,-0.028
6.297,-0.019
6.298,-0.017
6.299,-0.013
6.3,-0.006
6.301,-0.003
6.302,-0.001
6.303,0.003
6.304,0.006
6.305,0.009
6.306,0.014
6.307,0.019
6.308,0.024
6.309,0.022
6.31,0.022
6.311,0.022
6.312,0.022
6.313,0.025
6.314,0.023
6.315,0.025
6.316,0.026
6.317,0.028
6.318,0.032
6.319,0.041
6.32,0.044
6.321,0.05
6.322,0.058
6.323,0.063
6.324,0.067
6.325,0.075
6.326,0.078
6.327,0.078
6.328,0.086
6.329,0.097
6.33,0.106
6.331,0.113
6.332,0.116
6.333,0.119
6.334,0.127
6.335,0.125
6.336,0.126
6.337,0.131
6.338,0.131
6.339,0.137
6.34,0.144
6.341,0.15
6.342,0.153
6.343,0.156
6.344,0.159
6.345,0.162
6.346,0.17
6.347,0.175
6.348,0.175
6.349,0.172
6.35,0.172
6.351,0.172
6.352,0.176
6.353,0.175
6.354,0.171
6.355,0.169
6.356,0.159
6.357,0.159
6.358,0.153
6.359,0.147
6.36,0.144
6.361,0.141
6.362,0.131
6.363,0.125
6.364,0.12
6.365,0.113
6.366,0.104
6.367,0.097
6.368,0.089
6.369,0.081
6.37,0.073
6.371,0.066
6.372,0.055
6.373,0.041
6.374,0.024
6.375,0.009
6.376,0
6.377,-0.006
6.378,-0.019
6.379,-0.028
6.38,-0.036
6.381,-0.041
6.382,-0.043
6.383,-0.044
6.384,-0.049
6.385,-0.05
6.386,-0.058
6.387,-0.066
6.388,-0.072
6.389,-0.081
6.39,-0.091
6.391,-0.1
6.392,-0.116
6.393,-0.125
6.394,-0.127
6.395,-0.128
6.396,-0.13
6.397,-0.131
6.398,-0.131
6.399,-0.125
6.4,-0.125
6.401,-0.125
6.402,-0.126
6.403,-0.128
6.404,-0.128
6.405,-0.128
6.406,-0.125
6.407,-0.125
6.408,-0.125
6.409,-0.125
6.41,-0.131
6.411,-0.134
6.412,-0.138
6.413,-0.141
6.414,-0.142
6.415,-0.144
6.416,-0.141
6.417,-0.141
6.418,-0.141
6.419,-0.141
6.42,-0.147
6.421,-0.147
6.422,-0.146
6.423,-0.15
6.424,-0.147
6.425,-0.147
6.426,-0.149
6.427,-0.147
6.428,-0.145
6.429,-0.147
6.43,-0.15
6.431,-0.15
6.432,-0.147
6.433,-0.144
6.434,-0.145
6.435,-0.147
6.436,-0.148
6.437,-0.15
6.438,-0.15
6.439,-0.15
6.44,-0.15
6.441,-0.15
6.442,-0.15
6.443,-0.147
6.444,-0.147
6.445,-0.147
6.446,-0.147
6.447,-0.147
6.448,-0.146
6.449,-0.141
6.45,-0.141
6.451,-0.141
6.452,-0.141
6.453,-0.141
6.454,-0.139
6.455,-0.138
6.456,-0.141
6.457,-0.141
6.458,-0.147
6.459,-0.156
6.46,-0.161
6.461,-0.166
6.462,-0.175
6.463,-0.184
6.464,-0.195
6.465,-0.2
6.466,-0.202
6.467,-0.2
6.468,-0.202
6.469,-0.203
6.47,-0.198
6.471,-0.181
6.472,-0.153
6.473,-0.125
6.474,-0.1
6.475,-0.075
6.476,-0.051
6.477,-0.025
6.478,0.005
6.479,0.044
6.48,0.089
6.481,0.141
6.482,0.214
6.483,0.294
6.484,0.371
6.485,0.444
6.486,0.523
6.487,0.603
6.488,0.681
6.489,0.766
6.49,0.856
6.491,0.95
6.492,1.054
6.493,1.162
6.494,1.272
6.495,1.387
6.496,1.497
6.497,1.609
6.498,1.708
6.499,1.788
6.5,1.83
6.501,1.844
6.502,1.8
6.503,1.697
6.504,1.556
6.505,1.4
6.506,1.253
6.507,1.122
6.508,0.999
6.509,0.875
6.51,0.744
6.511,0.606
6.512,0.486
6.513,0.394
6.514,0.324
6.515,0.266
6.516,0.217
6.517,0.175
6.518,0.133
6.519,0.091
6.52,0.047
6.521,0.006
6.522,-0.021
6.523,-0.037
6.524,-0.046
6.525,-0.053
6.526,-0.069
6.527,-0.072
6.528,-0.073
6.529,-0.075
6.53,-0.078
6.531,-0.084
6.532,-0.088
6.533,-0.094
6.534,-0.096
6.535,-0.097
6.536,-0.094
6.537,-0.094
6.538,-0.098
6.539,-0.1
6.54,-0.1
6.541,-0.1
6.542,-0.103
6.543,-0.106
6.544,-0.113
6.545,-0.116
6.546,-0.123
6.547,-0.128
6.548,-0.128
6.549,-0.128
6.55,-0.131
6.551,-0.131
6.552,-0.128
6.553,-0.131
6.554,-0.129
6.555,-0.131
6.556,-0.133
6.557,-0.134
6.558,-0.134
6.559,-0.131
6.56,-0.131
6.561,-0.134
6.562,-0.136
6.563,-0.138
6.564,-0.133
6.565,-0.128
6.566,-0.128
6.567,-0.128
6.568,-0.129
6.569,-0.128
6.57,-0.128
6.571,-0.122
6.572,-0.119
6.573,-0.119
6.574,-0.12
6.575,-0.122
6.576,-0.123
6.577,-0.122
6.578,-0.122
6.579,-0.122
6.58,-0.122
6.581,-0.122
6.582,-0.122
6.583,-0.122
6.584,-0.123
6.585,-0.122
6.586,-0.122
6.587,-0.122
6.588,-0.123
6.589,-0.122
6.59,-0.119
6.591,-0.122
6.592,-0.119
6.593,-0.122
6.594,-0.122
6.595,-0.119
6.596,-0.117
6.597,-0.116
6.598,-0.114
6.599,-0.113
6.6,-0.113
6.601,-0.116
6.602,-0.114
6.603,-0.113
6.604,-0.109
6.605,-0.103
6.606,-0.104
6.607,-0.103
6.608,-0.104
6.609,-0.103
6.61,-0.106
6.611,-0.106
6.612,-0.106
6.613,-0.106
6.614,-0.108
6.615,-0.106
6.616,-0.106
6.617,-0.103
6.618,-0.103
6.619,-0.103
6.62,-0.104
6.621,-0.103
6.622,-0.103
6.623,-0.103
6.624,-0.103
6.625,-0.103
6.626,-0.099
6.627,-0.094
6.628,-0.097
6.629,-0.097
6.63,-0.097
6.631,-0.1
6.632,-0.101
6.633,-0.1
6.634,-0.1
6.635,-0.1
6.636,-0.098
6.637,-0.1
6.638,-0.099
6.639,-0.094
6.64,-0.096
6.641,-0.094
6.642,-0.089
6.643,-0.088
6.644,-0.089
6.645,-0.088
6.646,-0.088
6.647,-0.088
6.648,-0.089
6.649,-0.091
6.65,-0.091
6.651,-0.088
6.652,-0.086
6.653,-0.088
6.654,-0.088
6.655,-0.088
6.656,-0.083
6.657,-0.081
6.658,-0.075
6.659,-0.072
6.66,-0.073
6.661,-0.072
6.662,-0.072
6.663,-0.072
6.664,-0.072
6.665,-0.069
6.666,-0.066
6.667,-0.063
6.668,-0.061
6.669,-0.063
6.67,-0.059
6.671,-0.059
6.672,-0.055
6.673,-0.053
6.674,-0.05
6.675,-0.05
6.676,-0.051
6.677,-0.05
6.678,-0.05
6.679,-0.047
6.68,-0.045
6.681,-0.047
6.682,-0.048
6.683,-0.047
6.684,-0.046
6.685,-0.041
6.686,-0.039
6.687,-0.041
6.688,-0.036
6.689,-0.034
6.69,-0.033
6.691,-0.031
6.692,-0.031
6.693,-0.028
6.694,-0.025
6.695,-0.019
6.696,-0.019
6.697,-0.016
6.698,-0.016
6.699,-0.013
6.7,-0.011
6.701,-0.013
6.702,-0.006
6.703,0
6.704,0
6.705,0.003
6.706,0.006
6.707,0.009
6.708,0.009
6.709,0.009
6.71,0.011
6.711,0.013
6.712,0.016
6.713,0.016
6.714,0.019
6.715,0.025
6.716,0.021
6.717,0.022
6.718,0.022
6.719,0.022
6.72,0.021
6.721,0.019
6.722,0.023
6.723,0.028
6.724,0.027
6.725,0.028
6.726,0.031
6.727,0.034
6.728,0.037
6.729,0.037
6.73,0.047
6.731,0.053
6.732,0.05
6.733,0.05
6.734,0.046
6.735,0.047
6.736,0.05
6.737,0.053
6.738,0.053
6.739,0.053
6.74,0.051
6.741,0.053
6.742,0.05
6.743,0.05
6.744,0.056
6.745,0.059
6.746,0.059
6.747,0.059
6.748,0.058
6.749,0.056
6.75,0.053
6.751,0.05
6.752,0.056
6.753,0.059
6.754,0.061
6.755,0.063
6.756,0.061
6.757,0.063
6.758,0.061
6.759,0.059
6.76,0.061
6.761,0.066
6.762,0.069
6.763,0.072
6.764,0.071
6.765,0.072
6.766,0.075
6.767,0.078
6.768,0.077
6.769,0.075
6.77,0.079
6.771,0.081
6.772,0.078
6.773,0.081
6.774,0.084
6.775,0.084
6.776,0.084
6.777,0.084
6.778,0.084
6.779,0.084
6.78,0.084
6.781,0.084
6.782,0.081
6.783,0.081
6.784,0.079
6.785,0.081
6.786,0.078
6.787,0.075
6.788,0.079
6.789,0.078
6.79,0.077
6.791,0.072
6.792,0.072
6.793,0.069
6.794,0.07
6.795,0.075
6.796,0.072
6.797,0.072
6.798,0.066
6.799,0.059
6.8,0.055
6.801,0.056
6.802,0.056
6.803,0.059
6.804,0.061
6.805,0.056
6.806,0.053
6.807,0.047
6.808,0.047
6.809,0.044
6.81,0.039
6.811,0.037
6.812,0.03
6.813,0.028
6.814,0.025
6.815,0.022
6.816,0.02
6.817,0.019
6.818,0.018
6.819,0.016
6.82,0.009
6.821,0.006
6.822,0.008
6.823,0.006
6.824,0.003
6.825,0
6.826,-0.004
6.827,-0.009
6.828,-0.011
6.829,-0.013
6.83,-0.008
6.831,-0.009
6.832,-0.013
6.833,-0.013
6.834,-0.009
6.835,-0.009
6.836,-0.016
6.837,-0.022
6.838,-0.022
6.839,-0.025
6.84,-0.022
6.841,-0.019
6.842,-0.019
6.843,-0.025
6.844,-0.028
6.845,-0.031
6.846,-0.039
6.847,-0.044
6.848,-0.047
6.849,-0.044
6.85,-0.046
6.851,-0.044
6.852,-0.047
6.853,-0.047
6.854,-0.048
6.855,-0.05
6.856,-0.053
6.857,-0.053
6.858,-0.056
6.859,-0.056
6.86,-0.058
6.861,-0.059
6.862,-0.061
6.863,-0.063
6.864,-0.058
6.865,-0.053
6.866,-0.052
6.867,-0.053
6.868,-0.053
6.869,-0.053
6.87,-0.058
6.871,-0.056
6.872,-0.055
6.873,-0.056
6.874,-0.059
6.875,-0.063
6.876,-0.063
6.877,-0.066
6.878,-0.063
6.879,-0.063
6.88,-0.066
6.881,-0.066
6.882,-0.066
6.883,-0.066
6.884,-0.067
6.885,-0.069
6.886,-0.069
6.887,-0.069
6.888,-0.069
6.889,-0.072
6.89,-0.069
6.891,-0.069
6.892,-0.066
6.893,-0.059
6.894,-0.061
6.895,-0.059
6.896,-0.061
6.897,-0.059
6.898,-0.061
6.899,-0.063
6.9,-0.063
6.901,-0.063
6.902,-0.058
6.903,-0.056
6.904,-0.056
6.905,-0.056
6.906,-0.056
6.907,-0.056
6.908,-0.056
6.909,-0.059
6.91,-0.063
6.911,-0.066
6.912,-0.063
6.913,-0.063
6.914,-0.066
6.915,-0.066
6.916,-0.069
6.917,-0.066
6.918,-0.067
6.919,-0.069
6.92,-0.066
6.921,-0.066
6.922,-0.066
6.923,-0.066
6.924,-0.066
6.925,-0.066
6.926,-0.069
6.927,-0.066
6.928,-0.063
6.929,-0.059
6.93,-0.061
6.931,-0.063
6.932,-0.066
6.933,-0.066
6.934,-0.059
6.935,-0.056
6.936,-0.061
6.937,-0.069
6.938,-0.07
6.939,-0.069
6.94,-0.071
6.941,-0.072
6.942,-0.072
6.943,-0.069
6.944,-0.072
6.945,-0.072
6.946,-0.075
6.947,-0.078
6.948,-0.079
6.949,-0.081
6.95,-0.084
6.951,-0.084
6.952,-0.084
6.953,-0.084
6.954,-0.084
6.955,-0.084
6.956,-0.083
6.957,-0.081
6.958,-0.078
6.959,-0.078
6.96,-0.074
6.961,-0.072
6.962,-0.072
6.963,-0.072
6.964,-0.072
6.965,-0.072
6.966,-0.075
6.967,-0.072
6.968,-0.075
6.969,-0.075
6.97,-0.071
6.971,-0.072
6.972,-0.073
6.973,-0.075
6.974,-0.074
6.975,-0.072
6.976,-0.072
6.977,-0.072
6.978,-0.076
6.979,-0.075
6.98,-0.075
6.981,-0.075
6.982,-0.075
6.983,-0.075
6.984,-0.075
6.985,-0.081
6.986,-0.084
6.987,-0.088
6.988,-0.089
6.989,-0.088
6.99,-0.086
6.991,-0.088
6.992,-0.088
6.993,-0.088
6.994,-0.088
6.995,-0.088
6.996,-0.088
6.997,-0.088
6.998,-0.088
6.999,-0.088
7,-0.088
7.001,-0.088
7.002,-0.086
7.003,-0.084
7.004,-0.083
7.005,-0.081
7.006,-0.081
7.007,-0.078
7.008,-0.078
7.009,-0.078
7.01,-0.074
7.011,-0.075
7.012,-0.079
7.013,-0.081
7.014,-0.079
7.015,-0.081
7.016,-0.084
7.017,-0.088
7.018,-0.088
7.019,-0.088
7.02,-0.091
7.021,-0.091
7.022,-0.092
7.023,-0.094
7.024,-0.092
7.025,-0.094
7.026,-0.093
7.027,-0.091
7.028,-0.094
7.029,-0.094
7.03,-0.089
7.031,-0.088
7.032,-0.086
7.033,-0.084
7.034,-0.086
7.035,-0.088
7.036,-0.088
7.037,-0.088
7.038,-0.088
7.039,-0.088
7.04,-0.084
7.041,-0.081
7.042,-0.081
7.043,-0.081
7.044,-0.084
7.045,-0.084
7.046,-0.084
7.047,-0.084
7.048,-0.086
7.049,-0.088
7.05,-0.089
7.051,-0.091
7.052,-0.091
7.053,-0.088
7.054,-0.086
7.055,-0.088
7.056,-0.091
7.057,-0.094
7.058,-0.089
7.059,-0.091
7.06,-0.088
7.061,-0.088
7.062,-0.088
7.063,-0.088
7.064,-0.086
7.065,-0.088
7.066,-0.086
7.067,-0.084
7.068,-0.088
7.069,-0.088
7.07,-0.089
7.071,-0.088
7.072,-0.086
7.073,-0.088
7.074,-0.088
7.075,-0.088
7.076,-0.083
7.077,-0.081
7.078,-0.081
7.079,-0.081
7.08,-0.081
7.081,-0.081
7.082,-0.078
7.083,-0.072
7.084,-0.073
7.085,-0.069
7.086,-0.068
7.087,-0.059
7.088,-0.059
7.089,-0.059
7.09,-0.056
7.091,-0.053
7.092,-0.05
7.093,-0.044
7.094,-0.039
7.095,-0.031
7.096,-0.022
7.097,-0.016
7.098,-0.016
7.099,-0.013
7.1,-0.013
7.101,-0.013
7.102,-0.008
7.103,-0.003
7.104,0.003
7.105,0.003
7.106,0.008
7.107,0.013
7.108,0.011
7.109,0.013
7.11,0.006
7.111,0.003
7.112,0.002
7.113,0
7.114,0.002
7.115,0.006
7.116,0.013
7.117,0.022
7.118,0.031
7.119,0.037
7.12,0.042
7.121,0.05
7.122,0.055
7.123,0.056
7.124,0.058
7.125,0.063
7.126,0.073
7.127,0.081
7.128,0.086
7.129,0.091
7.13,0.099
7.131,0.097
7.132,0.097
7.133,0.1
7.134,0.104
7.135,0.116
7.136,0.123
7.137,0.131
7.138,0.136
7.139,0.141
7.14,0.147
7.141,0.153
7.142,0.164
7.143,0.172
7.144,0.172
7.145,0.169
7.146,0.167
7.147,0.166
7.148,0.167
7.149,0.162
7.15,0.161
7.151,0.162
7.152,0.15
7.153,0.147
7.154,0.142
7.155,0.137
7.156,0.136
7.157,0.134
7.158,0.129
7.159,0.128
7.16,0.117
7.161,0.103
7.162,0.091
7.163,0.078
7.164,0.072
7.165,0.066
7.166,0.058
7.167,0.05
7.168,0.044
7.169,0.034
7.17,0.023
7.171,0.016
7.172,0.006
7.173,0
7.174,-0.011
7.175,-0.019
7.176,-0.029
7.177,-0.037
7.178,-0.045
7.179,-0.053
7.18,-0.063
7.181,-0.069
7.182,-0.074
7.183,-0.078
7.184,-0.084
7.185,-0.094
7.186,-0.103
7.187,-0.113
7.188,-0.122
7.189,-0.125
7.19,-0.128
7.191,-0.131
7.192,-0.134
7.193,-0.138
7.194,-0.142
7.195,-0.141
7.196,-0.143
7.197,-0.144
7.198,-0.144
7.199,-0.144
7.2,-0.145
7.201,-0.147
7.202,-0.147
7.203,-0.15
7.204,-0.146
7.205,-0.141
7.206,-0.143
7.207,-0.141
7.208,-0.141
7.209,-0.141
7.21,-0.144
7.211,-0.147
7.212,-0.146
7.213,-0.147
7.214,-0.147
7.215,-0.147
7.216,-0.151
7.217,-0.15
7.218,-0.149
7.219,-0.153
7.22,-0.149
7.221,-0.147
7.222,-0.151
7.223,-0.153
7.224,-0.154
7.225,-0.159
7.226,-0.162
7.227,-0.162
7.228,-0.161
7.229,-0.159
7.23,-0.159
7.231,-0.159
7.232,-0.159
7.233,-0.159
7.234,-0.159
7.235,-0.159
7.236,-0.159
7.237,-0.159
7.238,-0.156
7.239,-0.15
7.24,-0.149
7.241,-0.147
7.242,-0.145
7.243,-0.144
7.244,-0.145
7.245,-0.144
7.246,-0.141
7.247,-0.138
7.248,-0.138
7.249,-0.138
7.25,-0.138
7.251,-0.138
7.252,-0.142
7.253,-0.144
7.254,-0.148
7.255,-0.156
7.256,-0.164
7.257,-0.172
7.258,-0.184
7.259,-0.197
7.26,-0.203
7.261,-0.203
7.262,-0.211
7.263,-0.216
7.264,-0.219
7.265,-0.222
7.266,-0.214
7.267,-0.194
7.268,-0.169
7.269,-0.144
7.27,-0.116
7.271,-0.088
7.272,-0.064
7.273,-0.037
7.274,-0.008
7.275,0.031
7.276,0.079
7.277,0.134
7.278,0.207
7.279,0.288
7.28,0.367
7.281,0.444
7.282,0.523
7.283,0.603
7.284,0.687
7.285,0.778
7.286,0.867
7.287,0.959
7.288,1.056
7.289,1.156
7.29,1.259
7.291,1.369
7.292,1.484
7.293,1.603
7.294,1.694
7.295,1.766
7.296,1.788
7.297,1.781
7.298,1.721
7.299,1.6
7.3,1.453
7.301,1.291
7.302,1.151
7.303,1.028
7.304,0.905
7.305,0.781
7.306,0.651
7.307,0.516
7.308,0.406
7.309,0.325
7.31,0.269
7.311,0.225
7.312,0.192
7.313,0.166
7.314,0.131
7.315,0.097
7.316,0.058
7.317,0.022
7.318,-0.008
7.319,-0.028
7.32,-0.039
7.321,-0.05
7.322,-0.063
7.323,-0.063
7.324,-0.066
7.325,-0.069
7.326,-0.072
7.327,-0.078
7.328,-0.081
7.329,-0.088
7.33,-0.089
7.331,-0.091
7.332,-0.094
7.333,-0.1
7.334,-0.104
7.335,-0.106
7.336,-0.106
7.337,-0.106
7.338,-0.106
7.339,-0.106
7.34,-0.113
7.341,-0.116
7.342,-0.122
7.343,-0.125
7.344,-0.127
7.345,-0.128
7.346,-0.129
7.347,-0.128
7.348,-0.124
7.349,-0.125
7.35,-0.122
7.351,-0.122
7.352,-0.122
7.353,-0.122
7.354,-0.122
7.355,-0.119
7.356,-0.119
7.357,-0.122
7.358,-0.122
7.359,-0.122
7.36,-0.123
7.361,-0.125
7.362,-0.125
7.363,-0.125
7.364,-0.125
7.365,-0.122
7.366,-0.126
7.367,-0.125
7.368,-0.123
7.369,-0.125
7.37,-0.125
7.371,-0.125
7.372,-0.126
7.373,-0.125
7.374,-0.125
7.375,-0.125
7.376,-0.125
7.377,-0.125
7.378,-0.124
7.379,-0.122
7.38,-0.122
7.381,-0.119
7.382,-0.114
7.383,-0.109
7.384,-0.111
7.385,-0.109
7.386,-0.108
7.387,-0.113
7.388,-0.109
7.389,-0.113
7.39,-0.113
7.391,-0.109
7.392,-0.109
7.393,-0.109
7.394,-0.108
7.395,-0.106
7.396,-0.103
7.397,-0.103
7.398,-0.103
7.399,-0.103
7.4,-0.104
7.401,-0.103
7.402,-0.106
7.403,-0.106
7.404,-0.103
7.405,-0.097
7.406,-0.101
7.407,-0.103
7.408,-0.104
7.409,-0.106
7.41,-0.108
7.411,-0.106
7.412,-0.108
7.413,-0.106
7.414,-0.105
7.415,-0.103
7.416,-0.104
7.417,-0.103
7.418,-0.097
7.419,-0.091
7.42,-0.092
7.421,-0.094
7.422,-0.093
7.423,-0.091
7.424,-0.091
7.425,-0.088
7.426,-0.086
7.427,-0.088
7.428,-0.089
7.429,-0.088
7.43,-0.089
7.431,-0.091
7.432,-0.089
7.433,-0.091
7.434,-0.089
7.435,-0.084
7.436,-0.088
7.437,-0.088
7.438,-0.086
7.439,-0.088
7.44,-0.089
7.441,-0.088
7.442,-0.084
7.443,-0.081
7.444,-0.078
7.445,-0.075
7.446,-0.076
7.447,-0.075
7.448,-0.074
7.449,-0.075
7.45,-0.073
7.451,-0.072
7.452,-0.068
7.453,-0.066
7.454,-0.064
7.455,-0.066
7.456,-0.067
7.457,-0.066
7.458,-0.066
7.459,-0.066
7.46,-0.061
7.461,-0.053
7.462,-0.053
7.463,-0.053
7.464,-0.053
7.465,-0.056
7.466,-0.056
7.467,-0.059
7.468,-0.058
7.469,-0.059
7.47,-0.056
7.471,-0.056
7.472,-0.055
7.473,-0.05
7.474,-0.049
7.475,-0.044
7.476,-0.041
7.477,-0.041
7.478,-0.042
7.479,-0.041
7.48,-0.037
7.481,-0.031
7.482,-0.025
7.483,-0.022
7.484,-0.019
7.485,-0.019
7.486,-0.02
7.487,-0.022
7.488,-0.02
7.489,-0.016
7.49,-0.017
7.491,-0.016
7.492,-0.014
7.493,-0.009
7.494,-0.008
7.495,-0.003
7.496,-0.001
7.497,-0.003
7.498,-0.003
7.499,-0.003
7.5,-0.003
7.501,0
7.502,0.006
7.503,0.013
7.504,0.013
7.505,0.013
7.506,0.013
7.507,0.013
7.508,0.014
7.509,0.013
7.51,0.009
7.511,0.009
7.512,0.013
7.513,0.022
7.514,0.022
7.515,0.022
7.516,0.021
7.517,0.019
7.518,0.022
7.519,0.025
7.52,0.026
7.521,0.031
7.522,0.031
7.523,0.031
7.524,0.033
7.525,0.031
7.526,0.033
7.527,0.031
7.528,0.03
7.529,0.031
7.53,0.032
7.531,0.041
7.532,0.042
7.533,0.044
7.534,0.044
7.535,0.044
7.536,0.039
7.537,0.037
7.538,0.036
7.539,0.037
7.54,0.042
7.541,0.044
7.542,0.044
7.543,0.044
7.544,0.044
7.545,0.044
7.546,0.044
7.547,0.044
7.548,0.047
7.549,0.047
7.55,0.047
7.551,0.047
7.552,0.046
7.553,0.047
7.554,0.047
7.555,0.047
7.556,0.047
7.557,0.05
7.558,0.05
7.559,0.05
7.56,0.049
7.561,0.05
7.562,0.054
7.563,0.059
7.564,0.063
7.565,0.066
7.566,0.068
7.567,0.066
7.568,0.061
7.569,0.063
7.57,0.064
7.571,0.063
7.572,0.063
7.573,0.063
7.574,0.061
7.575,0.059
7.576,0.063
7.577,0.066
7.578,0.067
7.579,0.072
7.58,0.07
7.581,0.072
7.582,0.068
7.583,0.063
7.584,0.066
7.585,0.063
7.586,0.058
7.587,0.05
7.588,0.049
7.589,0.044
7.59,0.044
7.591,0.047
7.592,0.045
7.593,0.047
7.594,0.047
7.595,0.047
7.596,0.041
7.597,0.041
7.598,0.034
7.599,0.031
7.6,0.032
7.601,0.028
7.602,0.034
7.603,0.037
7.604,0.039
7.605,0.037
7.606,0.034
7.607,0.034
7.608,0.031
7.609,0.034
7.61,0.031
7.611,0.028
7.612,0.024
7.613,0.019
7.614,0.014
7.615,0.009
7.616,0.006
7.617,0.006
7.618,0.006
7.619,0.003
7.62,-0.003
7.621,-0.009
7.622,-0.013
7.623,-0.016
7.624,-0.018
7.625,-0.019
7.626,-0.014
7.627,-0.016
7.628,-0.019
7.629,-0.019
7.63,-0.018
7.631,-0.019
7.632,-0.026
7.633,-0.034
7.634,-0.034
7.635,-0.037
7.636,-0.037
7.637,-0.037
7.638,-0.034
7.639,-0.037
7.64,-0.041
7.641,-0.044
7.642,-0.046
7.643,-0.044
7.644,-0.047
7.645,-0.044
7.646,-0.046
7.647,-0.044
7.648,-0.046
7.649,-0.044
7.65,-0.041
7.651,-0.037
7.652,-0.039
7.653,-0.037
7.654,-0.042
7.655,-0.044
7.656,-0.047
7.657,-0.05
7.658,-0.051
7.659,-0.053
7.66,-0.053
7.661,-0.053
7.662,-0.052
7.663,-0.053
7.664,-0.054
7.665,-0.056
7.666,-0.063
7.667,-0.063
7.668,-0.063
7.669,-0.066
7.67,-0.067
7.671,-0.069
7.672,-0.068
7.673,-0.069
7.674,-0.067
7.675,-0.069
7.676,-0.072
7.677,-0.072
7.678,-0.073
7.679,-0.075
7.68,-0.074
7.681,-0.072
7.682,-0.072
7.683,-0.072
7.684,-0.071
7.685,-0.072
7.686,-0.066
7.687,-0.063
7.688,-0.063
7.689,-0.059
7.69,-0.066
7.691,-0.069
7.692,-0.07
7.693,-0.069
7.694,-0.069
7.695,-0.069
7.696,-0.069
7.697,-0.069
7.698,-0.068
7.699,-0.069
7.7,-0.068
7.701,-0.066
7.702,-0.066
7.703,-0.066
7.704,-0.067
7.705,-0.072
7.706,-0.073
7.707,-0.075
7.708,-0.069
7.709,-0.066
7.71,-0.069
7.711,-0.069
7.712,-0.071
7.713,-0.066
7.714,-0.066
7.715,-0.066
7.716,-0.066
7.717,-0.069
7.718,-0.07
7.719,-0.072
7.72,-0.072
7.721,-0.072
7.722,-0.075
7.723,-0.072
7.724,-0.072
7.725,-0.072
7.726,-0.071
7.727,-0.069
7.728,-0.075
7.729,-0.078
7.73,-0.075
7.731,-0.075
7.732,-0.074
7.733,-0.075
7.734,-0.075
7.735,-0.072
7.736,-0.072
7.737,-0.072
7.738,-0.073
7.739,-0.072
7.74,-0.075
7.741,-0.075
7.742,-0.075
7.743,-0.075
7.744,-0.074
7.745,-0.072
7.746,-0.075
7.747,-0.075
7.748,-0.078
7.749,-0.081
7.75,-0.082
7.751,-0.084
7.752,-0.084
7.753,-0.084
7.754,-0.083
7.755,-0.084
7.756,-0.082
7.757,-0.084
7.758,-0.086
7.759,-0.088
7.76,-0.088
7.761,-0.088
7.762,-0.089
7.763,-0.084
7.764,-0.084
7.765,-0.081
7.766,-0.077
7.767,-0.078
7.768,-0.079
7.769,-0.081
7.77,-0.081
7.771,-0.081
7.772,-0.077
7.773,-0.072
7.774,-0.076
7.775,-0.075
7.776,-0.075
7.777,-0.075
7.778,-0.076
7.779,-0.078
7.78,-0.075
7.781,-0.078
7.782,-0.077
7.783,-0.075
7.784,-0.078
7.785,-0.078
7.786,-0.078
7.787,-0.081
7.788,-0.082
7.789,-0.084
7.79,-0.084
7.791,-0.084
7.792,-0.084
7.793,-0.084
7.794,-0.084
7.795,-0.084
7.796,-0.086
7.797,-0.088
7.798,-0.088
7.799,-0.088
7.8,-0.088
7.801,-0.088
7.802,-0.091
7.803,-0.091
7.804,-0.089
7.805,-0.088
7.806,-0.081
7.807,-0.081
7.808,-0.086
7.809,-0.088
7.81,-0.086
7.811,-0.088
7.812,-0.084
7.813,-0.081
7.814,-0.081
7.815,-0.081
7.816,-0.084
7.817,-0.084
7.818,-0.083
7.819,-0.081
7.82,-0.079
7.821,-0.081
7.822,-0.081
7.823,-0.081
7.824,-0.084
7.825,-0.084
7.826,-0.078
7.827,-0.075
7.828,-0.076
7.829,-0.078
7.83,-0.081
7.831,-0.084
7.832,-0.086
7.833,-0.088
7.834,-0.088
7.835,-0.091
7.836,-0.088
7.837,-0.088
7.838,-0.089
7.839,-0.091
7.84,-0.092
7.841,-0.097
7.842,-0.096
7.843,-0.094
7.844,-0.096
7.845,-0.094
7.846,-0.093
7.847,-0.088
7.848,-0.086
7.849,-0.088
7.85,-0.089
7.851,-0.091
7.852,-0.088
7.853,-0.088
7.854,-0.081
7.855,-0.075
7.856,-0.075
7.857,-0.075
7.858,-0.075
7.859,-0.072
7.86,-0.072
7.861,-0.066
7.862,-0.066
7.863,-0.059
7.864,-0.056
7.865,-0.053
7.866,-0.048
7.867,-0.044
7.868,-0.039
7.869,-0.031
7.87,-0.027
7.871,-0.019
7.872,-0.017
7.873,-0.019
7.874,-0.02
7.875,-0.019
7.876,-0.017
7.877,-0.016
7.878,-0.014
7.879,-0.013
7.88,-0.005
7.881,-0.003
7.882,0.001
7.883,0.006
7.884,0.003
7.885,0.003
7.886,0
7.887,0
7.888,0
7.889,0
7.89,0
7.891,0.003
7.892,0.006
7.893,0.013
7.894,0.023
7.895,0.031
7.896,0.039
7.897,0.05
7.898,0.059
7.899,0.066
7.9,0.066
7.901,0.069
7.902,0.075
7.903,0.078
7.904,0.087
7.905,0.097
7.906,0.111
7.907,0.116
7.908,0.117
7.909,0.122
7.91,0.121
7.911,0.125
7.912,0.128
7.913,0.131
7.914,0.136
7.915,0.141
7.916,0.147
7.917,0.153
7.918,0.159
7.919,0.162
7.92,0.161
7.921,0.156
7.922,0.156
7.923,0.156
7.924,0.159
7.925,0.156
7.926,0.156
7.927,0.159
7.928,0.149
7.929,0.147
7.93,0.148
7.931,0.15
7.932,0.147
7.933,0.144
7.934,0.137
7.935,0.134
7.936,0.131
7.937,0.125
7.938,0.113
7.939,0.1
7.94,0.091
7.941,0.081
7.942,0.073
7.943,0.066
7.944,0.063
7.945,0.056
7.946,0.037
7.947,0.022
7.948,0.014
7.949,0.009
7.95,-0.006
7.951,-0.019
7.952,-0.031
7.953,-0.041
7.954,-0.044
7.955,-0.047
7.956,-0.053
7.957,-0.056
7.958,-0.063
7.959,-0.069
7.96,-0.075
7.961,-0.084
7.962,-0.095
7.963,-0.106
7.964,-0.122
7.965,-0.131
7.966,-0.13
7.967,-0.128
7.968,-0.13
7.969,-0.131
7.97,-0.133
7.971,-0.128
7.972,-0.133
7.973,-0.138
7.974,-0.139
7.975,-0.141
7.976,-0.141
7.977,-0.141
7.978,-0.141
7.979,-0.144
7.98,-0.144
7.981,-0.144
7.982,-0.15
7.983,-0.153
7.984,-0.152
7.985,-0.15
7.986,-0.15
7.987,-0.15
7.988,-0.149
7.989,-0.15
7.99,-0.149
7.991,-0.147
7.992,-0.15
7.993,-0.147
7.994,-0.144
7.995,-0.147
7.996,-0.144
7.997,-0.144
7.998,-0.147
7.999,-0.147
8,-0.144
8.001,-0.144
8.002,-0.147
8.003,-0.147
8.004,-0.15
8.005,-0.153
8.006,-0.154
8.007,-0.156
8.008,-0.156
8.009,-0.156
8.01,-0.156
8.011,-0.156
8.012,-0.156
8.013,-0.156
8.014,-0.158
8.015,-0.156
8.016,-0.156
8.017,-0.156
8.018,-0.156
8.019,-0.156
8.02,-0.155
8.021,-0.15
8.022,-0.15
8.023,-0.15
8.024,-0.147
8.025,-0.144
8.026,-0.144
8.027,-0.144
8.028,-0.148
8.029,-0.15
8.03,-0.147
8.031,-0.147
8.032,-0.155
8.033,-0.162
8.034,-0.171
8.035,-0.178
8.036,-0.194
8.037,-0.203
8.038,-0.209
8.039,-0.212
8.04,-0.216
8.041,-0.219
8.042,-0.219
8.043,-0.206
8.044,-0.181
8.045,-0.156
8.046,-0.128
8.047,-0.1
8.048,-0.079
8.049,-0.056
8.05,-0.031
8.051,0.003
8.052,0.037
8.053,0.078
8.054,0.144
8.055,0.216
8.056,0.298
8.057,0.378
8.058,0.453
8.059,0.528
8.06,0.605
8.061,0.687
8.062,0.777
8.063,0.869
8.064,0.964
8.065,1.063
8.066,1.164
8.067,1.272
8.068,1.391
8.069,1.513
8.07,1.628
8.071,1.725
8.072,1.792
8.073,1.831
8.074,1.822
8.075,1.753
8.076,1.608
8.077,1.447
8.078,1.284
8.079,1.137
8.08,1.013
8.081,0.887
8.082,0.747
8.083,0.6
8.084,0.472
8.085,0.372
8.086,0.297
8.087,0.234
8.088,0.195
8.089,0.162
8.09,0.129
8.091,0.097
8.092,0.064
8.093,0.034
8.094,0.003
8.095,-0.019
8.096,-0.034
8.097,-0.05
8.098,-0.07
8.099,-0.078
8.1,-0.079
8.101,-0.081
8.102,-0.086
8.103,-0.094
8.104,-0.097
8.105,-0.103
8.106,-0.105
8.107,-0.106
8.108,-0.103
8.109,-0.103
8.11,-0.108
8.111,-0.109
8.112,-0.109
8.113,-0.109
8.114,-0.113
8.115,-0.116
8.116,-0.12
8.117,-0.122
8.118,-0.131
8.119,-0.138
8.12,-0.138
8.121,-0.138
8.122,-0.138
8.123,-0.134
8.124,-0.131
8.125,-0.134
8.126,-0.134
8.127,-0.138
8.128,-0.133
8.129,-0.128
8.13,-0.129
8.131,-0.128
8.132,-0.129
8.133,-0.134
8.134,-0.134
8.135,-0.134
8.136,-0.134
8.137,-0.134
8.138,-0.131
8.139,-0.128
8.14,-0.127
8.141,-0.122
8.142,-0.126
8.143,-0.125
8.144,-0.123
8.145,-0.125
8.146,-0.125
8.147,-0.125
8.148,-0.124
8.149,-0.119
8.15,-0.117
8.151,-0.116
8.152,-0.117
8.153,-0.119
8.154,-0.119
8.155,-0.119
8.156,-0.12
8.157,-0.119
8.158,-0.117
8.159,-0.116
8.16,-0.117
8.161,-0.116
8.162,-0.113
8.163,-0.116
8.164,-0.113
8.165,-0.116
8.166,-0.117
8.167,-0.116
8.168,-0.113
8.169,-0.109
8.17,-0.111
8.171,-0.113
8.172,-0.111
8.173,-0.113
8.174,-0.113
8.175,-0.113
8.176,-0.113
8.177,-0.109
8.178,-0.111
8.179,-0.109
8.18,-0.109
8.181,-0.106
8.182,-0.109
8.183,-0.109
8.184,-0.106
8.185,-0.103
8.186,-0.104
8.187,-0.103
8.188,-0.104
8.189,-0.103
8.19,-0.099
8.191,-0.094
8.192,-0.095
8.193,-0.094
8.194,-0.095
8.195,-0.097
8.196,-0.098
8.197,-0.1
8.198,-0.099
8.199,-0.097
8.2,-0.097
8.201,-0.094
8.202,-0.093
8.203,-0.094
8.204,-0.095
8.205,-0.094
8.206,-0.093
8.207,-0.091
8.208,-0.088
8.209,-0.088
8.21,-0.088
8.211,-0.084
8.212,-0.086
8.213,-0.084
8.214,-0.078
8.215,-0.075
8.216,-0.078
8.217,-0.078
8.218,-0.079
8.219,-0.081
8.22,-0.081
8.221,-0.081
8.222,-0.081
8.223,-0.078
8.224,-0.077
8.225,-0.078
8.226,-0.076
8.227,-0.075
8.228,-0.071
8.229,-0.069
8.23,-0.067
8.231,-0.069
8.232,-0.068
8.233,-0.063
8.234,-0.061
8.235,-0.059
8.236,-0.061
8.237,-0.059
8.238,-0.061
8.239,-0.063
8.24,-0.059
8.241,-0.059
8.242,-0.056
8.243,-0.056
8.244,-0.053
8.245,-0.053
8.246,-0.047
8.247,-0.044
8.248,-0.044
8.249,-0.041
8.25,-0.042
8.251,-0.041
8.252,-0.037
8.253,-0.037
8.254,-0.037
8.255,-0.034
8.256,-0.036
8.257,-0.034
8.258,-0.031
8.259,-0.031
8.26,-0.029
8.261,-0.031
8.262,-0.031
8.263,-0.031
8.264,-0.027
8.265,-0.019
8.266,-0.019
8.267,-0.016
8.268,-0.013
8.269,-0.006
8.27,-0.009
8.271,-0.009
8.272,-0.009
8.273,-0.013
8.274,-0.009
8.275,-0.006
8.276,-0.006
8.277,-0.003
8.278,0
8.279,0.003
8.28,0.004
8.281,0.006
8.282,0.008
8.283,0.009
8.284,0.011
8.285,0.009
8.286,0.014
8.287,0.022
8.288,0.021
8.289,0.025
8.29,0.025
8.291,0.025
8.292,0.026
8.293,0.028
8.294,0.03
8.295,0.031
8.296,0.032
8.297,0.037
8.298,0.037
8.299,0.037
8.3,0.039
8.301,0.037
8.302,0.039
8.303,0.037
8.304,0.037
8.305,0.041
8.306,0.037
8.307,0.041
8.308,0.041
8.309,0.041
8.31,0.042
8.311,0.044
8.312,0.041
8.313,0.041
8.314,0.041
8.315,0.044
8.316,0.048
8.317,0.05
8.318,0.05
8.319,0.05
8.32,0.049
8.321,0.047
8.322,0.047
8.323,0.047
8.324,0.049
8.325,0.047
8.326,0.047
8.327,0.047
8.328,0.051
8.329,0.059
8.33,0.058
8.331,0.056
8.332,0.056
8.333,0.059
8.334,0.058
8.335,0.056
8.336,0.056
8.337,0.059
8.338,0.058
8.339,0.056
8.34,0.056
8.341,0.056
8.342,0.059
8.343,0.059
8.344,0.055
8.345,0.056
8.346,0.059
8.347,0.059
8.348,0.061
8.349,0.063
8.35,0.066
8.351,0.069
8.352,0.069
8.353,0.069
8.354,0.066
8.355,0.066
8.356,0.063
8.357,0.063
8.358,0.061
8.359,0.059
8.36,0.063
8.361,0.059
8.362,0.061
8.363,0.059
8.364,0.061
8.365,0.059
8.366,0.059
8.367,0.063
8.368,0.055
8.369,0.05
8.37,0.047
8.371,0.044
8.372,0.041
8.373,0.044
8.374,0.042
8.375,0.044
8.376,0.042
8.377,0.034
8.378,0.034
8.379,0.031
8.38,0.032
8.381,0.031
8.382,0.031
8.383,0.034
8.384,0.025
8.385,0.022
8.386,0.02
8.387,0.019
8.388,0.016
8.389,0.013
8.39,0.011
8.391,0.009
8.392,0.002
8.393,-0.003
8.394,0
8.395,0
8.396,0
8.397,0
8.398,-0.004
8.399,-0.009
8.4,-0.014
8.401,-0.019
8.402,-0.014
8.403,-0.016
8.404,-0.022
8.405,-0.025
8.406,-0.026
8.407,-0.031
8.408,-0.033
8.409,-0.034
8.41,-0.033
8.411,-0.034
8.412,-0.037
8.413,-0.041
8.414,-0.039
8.415,-0.044
8.416,-0.043
8.417,-0.041
8.418,-0.045
8.419,-0.047
8.42,-0.05
8.421,-0.047
8.422,-0.049
8.423,-0.047
8.424,-0.05
8.425,-0.05
8.426,-0.051
8.427,-0.053
8.428,-0.055
8.429,-0.053
8.43,-0.053
8.431,-0.05
8.432,-0.051
8.433,-0.053
8.434,-0.056
8.435,-0.059
8.436,-0.063
8.437,-0.066
8.438,-0.066
8.439,-0.069
8.44,-0.068
8.441,-0.066
8.442,-0.064
8.443,-0.056
8.444,-0.056
8.445,-0.059
8.446,-0.063
8.447,-0.066
8.448,-0.064
8.449,-0.066
8.45,-0.063
8.451,-0.063
8.452,-0.066
8.453,-0.066
8.454,-0.066
8.455,-0.066
8.456,-0.069
8.457,-0.072
8.458,-0.072
8.459,-0.072
8.46,-0.069
8.461,-0.069
8.462,-0.067
8.463,-0.069
8.464,-0.069
8.465,-0.066
8.466,-0.069
8.467,-0.069
8.468,-0.07
8.469,-0.069
8.47,-0.068
8.471,-0.066
8.472,-0.067
8.473,-0.069
8.474,-0.068
8.475,-0.069
8.476,-0.069
8.477,-0.069
8.478,-0.066
8.479,-0.063
8.48,-0.061
8.481,-0.063
8.482,-0.064
8.483,-0.066
8.484,-0.063
8.485,-0.063
8.486,-0.066
8.487,-0.066
8.488,-0.07
8.489,-0.069
8.49,-0.069
8.491,-0.069
8.492,-0.069
8.493,-0.072
8.494,-0.071
8.495,-0.069
8.496,-0.069
8.497,-0.069
8.498,-0.073
8.499,-0.072
8.5,-0.072
8.501,-0.072
8.502,-0.072
8.503,-0.072
8.504,-0.075
8.505,-0.075
8.506,-0.073
8.507,-0.075
8.508,-0.074
8.509,-0.075
8.51,-0.075
8.511,-0.072
8.512,-0.074
8.513,-0.075
8.514,-0.076
8.515,-0.075
8.516,-0.079
8.517,-0.081
8.518,-0.081
8.519,-0.081
8.52,-0.078
8.521,-0.075
8.522,-0.077
8.523,-0.075
8.524,-0.075
8.525,-0.075
8.526,-0.078
8.527,-0.081
8.528,-0.082
8.529,-0.084
8.53,-0.083
8.531,-0.084
8.532,-0.08
8.533,-0.078
8.534,-0.079
8.535,-0.081
8.536,-0.08
8.537,-0.078
8.538,-0.08
8.539,-0.075
8.54,-0.082
8.541,-0.088
8.542,-0.086
8.543,-0.091
8.544,-0.089
8.545,-0.088
8.546,-0.084
8.547,-0.081
8.548,-0.081
8.549,-0.081
8.55,-0.086
8.551,-0.084
8.552,-0.084
8.553,-0.084
8.554,-0.086
8.555,-0.088
8.556,-0.084
8.557,-0.088
8.558,-0.086
8.559,-0.084
8.56,-0.086
8.561,-0.084
8.562,-0.083
8.563,-0.084
8.564,-0.084
8.565,-0.084
8.566,-0.086
8.567,-0.088
8.568,-0.086
8.569,-0.084
8.57,-0.084
8.571,-0.084
8.572,-0.083
8.573,-0.081
8.574,-0.082
8.575,-0.084
8.576,-0.084
8.577,-0.084
8.578,-0.088
8.579,-0.088
8.58,-0.088
8.581,-0.088
8.582,-0.083
8.583,-0.084
8.584,-0.088
8.585,-0.088
8.586,-0.086
8.587,-0.088
8.588,-0.088
8.589,-0.088
8.59,-0.086
8.591,-0.084
8.592,-0.088
8.593,-0.088
8.594,-0.088
8.595,-0.088
8.596,-0.083
8.597,-0.081
8.598,-0.082
8.599,-0.084
8.6,-0.089
8.601,-0.091
8.602,-0.088
8.603,-0.088
8.604,-0.086
8.605,-0.084
8.606,-0.086
8.607,-0.088
8.608,-0.088
8.609,-0.088
8.61,-0.088
8.611,-0.088
8.612,-0.088
8.613,-0.088
8.614,-0.088
8.615,-0.088
8.616,-0.091
8.617,-0.091
8.618,-0.089
8.619,-0.088
8.62,-0.086
8.621,-0.084
8.622,-0.089
8.623,-0.088
8.624,-0.088
8.625,-0.088
8.626,-0.091
8.627,-0.091
8.628,-0.091
8.629,-0.091
8.63,-0.089
8.631,-0.091
8.632,-0.091
8.633,-0.091
8.634,-0.086
8.635,-0.084
8.636,-0.088
8.637,-0.088
8.638,-0.091
8.639,-0.091
8.64,-0.089
8.641,-0.084
8.642,-0.081
8.643,-0.081
8.644,-0.081
8.645,-0.081
8.646,-0.077
8.647,-0.075
8.648,-0.073
8.649,-0.078
8.65,-0.073
8.651,-0.072
8.652,-0.068
8.653,-0.059
8.654,-0.052
8.655,-0.047
8.656,-0.041
8.657,-0.037
8.658,-0.031
8.659,-0.028
8.66,-0.025
8.661,-0.019
8.662,-0.014
8.663,-0.013
8.664,-0.013
8.665,-0.013
8.666,-0.011
8.667,-0.006
8.668,0.001
8.669,0.013
8.67,0.016
8.671,0.013
8.672,0.013
8.673,0.009
8.674,0.008
8.675,0.006
8.676,0.003
8.677,0.003
8.678,0.008
8.679,0.009
8.68,0.014
8.681,0.022
8.682,0.028
8.683,0.031
8.684,0.037
8.685,0.044
8.686,0.047
8.687,0.05
8.688,0.058
8.689,0.069
8.69,0.072
8.691,0.075
8.692,0.082
8.693,0.094
8.694,0.095
8.695,0.097
8.696,0.097
8.697,0.094
8.698,0.101
8.699,0.109
8.7,0.116
8.701,0.122
8.702,0.122
8.703,0.122
8.704,0.132
8.705,0.144
8.706,0.15
8.707,0.153
8.708,0.151
8.709,0.153
8.71,0.156
8.711,0.162
8.712,0.162
8.713,0.162
8.714,0.162
8.715,0.153
8.716,0.153
8.717,0.15
8.718,0.146
8.719,0.141
8.72,0.139
8.721,0.134
8.722,0.132
8.723,0.128
8.724,0.123
8.725,0.119
8.726,0.108
8.727,0.097
8.728,0.084
8.729,0.072
8.73,0.063
8.731,0.056
8.732,0.05
8.733,0.037
8.734,0.025
8.735,0.016
8.736,0.011
8.737,0
8.738,-0.017
8.739,-0.034
8.74,-0.041
8.741,-0.044
8.742,-0.043
8.743,-0.047
8.744,-0.054
8.745,-0.063
8.746,-0.068
8.747,-0.072
8.748,-0.081
8.749,-0.091
8.75,-0.101
8.751,-0.116
8.752,-0.125
8.753,-0.131
8.754,-0.136
8.755,-0.141
8.756,-0.145
8.757,-0.147
8.758,-0.138
8.759,-0.138
8.76,-0.141
8.761,-0.141
8.762,-0.144
8.763,-0.147
8.764,-0.147
8.765,-0.147
8.766,-0.149
8.767,-0.147
8.768,-0.148
8.769,-0.153
8.77,-0.152
8.771,-0.15
8.772,-0.149
8.773,-0.147
8.774,-0.15
8.775,-0.153
8.776,-0.156
8.777,-0.156
8.778,-0.152
8.779,-0.15
8.78,-0.146
8.781,-0.144
8.782,-0.154
8.783,-0.156
8.784,-0.156
8.785,-0.159
8.786,-0.159
8.787,-0.156
8.788,-0.155
8.789,-0.156
8.79,-0.158
8.791,-0.159
8.792,-0.159
8.793,-0.159
8.794,-0.159
8.795,-0.159
8.796,-0.159
8.797,-0.159
8.798,-0.158
8.799,-0.156
8.8,-0.158
8.801,-0.159
8.802,-0.159
8.803,-0.162
8.804,-0.162
8.805,-0.159
8.806,-0.155
8.807,-0.153
8.808,-0.151
8.809,-0.153
8.81,-0.153
8.811,-0.153
8.812,-0.153
8.813,-0.153
8.814,-0.152
8.815,-0.153
8.816,-0.15
8.817,-0.15
8.818,-0.155
8.819,-0.162
8.82,-0.169
8.821,-0.175
8.822,-0.183
8.823,-0.191
8.824,-0.198
8.825,-0.206
8.826,-0.206
8.827,-0.209
8.828,-0.223
8.829,-0.228
8.83,-0.222
8.831,-0.209
8.832,-0.184
8.833,-0.159
8.834,-0.134
8.835,-0.109
8.836,-0.088
8.837,-0.063
8.838,-0.032
8.839,0
8.84,0.034
8.841,0.087
8.842,0.152
8.843,0.222
8.844,0.301
8.845,0.378
8.846,0.453
8.847,0.531
8.848,0.606
8.849,0.687
8.85,0.772
8.851,0.866
8.852,0.971
8.853,1.072
8.854,1.172
8.855,1.278
8.856,1.414
8.857,1.531
8.858,1.661
8.859,1.753
8.86,1.844
8.861,1.881
8.862,1.864
8.863,1.8
8.864,1.653
8.865,1.513
8.866,1.352
8.867,1.206
8.868,1.083
8.869,0.95
8.87,0.799
8.871,0.662
8.872,0.528
8.873,0.422
8.874,0.342
8.875,0.272
8.876,0.228
8.877,0.181
8.878,0.137
8.879,0.094
8.88,0.044
8.881,0.003
8.882,-0.026
8.883,-0.05
8.884,-0.064
8.885,-0.078
