'Elapsed time','II'
'seconds','mV'
0.000,-0.108
0.001,-0.084
0.002,-0.086
0.003,-0.088
0.004,-0.086
0.005,-0.091
0.006,-0.091
0.007,-0.091
0.008,-0.091
0.009,-0.091
0.010,-0.089
0.011,-0.088
0.012,-0.091
0.013,-0.091
0.014,-0.094
0.015,-0.100
0.016,-0.101
0.017,-0.100
0.018,-0.099
0.019,-0.097
0.020,-0.095
0.021,-0.097
0.022,-0.097
0.023,-0.097
0.024,-0.096
0.025,-0.091
0.026,-0.088
0.027,-0.088
0.028,-0.086
0.029,-0.084
0.030,-0.078
0.031,-0.075
0.032,-0.071
0.033,-0.063
0.034,-0.063
0.035,-0.059
0.036,-0.053
0.037,-0.047
0.038,-0.039
0.039,-0.031
0.040,-0.024
0.041,-0.016
0.042,-0.016
0.043,-0.019
0.044,-0.017
0.045,-0.019
0.046,-0.018
0.047,-0.009
0.048,-0.008
0.049,-0.003
0.050,-0.009
0.051,-0.012
0.052,-0.011
0.053,-0.012
0.054,-0.006
0.055,0.000
0.056,0.001
0.057,0.003
0.058,0.006
0.059,0.006
0.060,0.005
0.061,0.009
0.062,0.014
0.063,0.022
0.064,0.033
0.065,0.041
0.066,0.041
0.067,0.047
0.068,0.049
0.069,0.053
0.070,0.053
0.071,0.056
0.072,0.057
0.073,0.059
0.074,0.063
0.075,0.063
0.076,0.058
0.077,0.059
0.078,0.066
0.079,0.063
0.080,0.056
0.081,0.053
0.082,0.053
0.083,0.050
0.084,0.045
0.085,0.044
0.086,0.033
0.087,0.028
0.088,0.019
0.089,0.009
0.090,0.011
0.091,0.009
0.092,0.009
0.093,0.009
0.094,0.009
0.095,0.009
0.096,0.002
0.097,-0.006
0.098,-0.008
0.099,-0.009
0.100,-0.012
0.101,-0.019
0.102,-0.025
0.103,-0.031
0.104,-0.041
0.105,-0.047
0.106,-0.052
0.107,-0.056
0.108,-0.059
0.109,-0.063
0.110,-0.072
0.111,-0.075
0.112,-0.082
0.113,-0.091
0.114,-0.095
0.115,-0.100
0.116,-0.102
0.117,-0.100
0.118,-0.100
0.119,-0.103
0.120,-0.112
0.121,-0.122
0.122,-0.125
0.123,-0.128
0.124,-0.127
0.125,-0.128
0.126,-0.131
0.127,-0.134
0.128,-0.133
0.129,-0.131
0.130,-0.133
0.131,-0.134
0.132,-0.137
0.133,-0.144
0.134,-0.144
0.135,-0.144
0.136,-0.147
0.137,-0.147
0.138,-0.146
0.139,-0.144
0.140,-0.139
0.141,-0.137
0.142,-0.136
0.143,-0.141
0.144,-0.141
0.145,-0.141
0.146,-0.145
0.147,-0.153
0.148,-0.156
0.149,-0.159
0.150,-0.158
0.151,-0.156
0.152,-0.153
0.153,-0.153
0.154,-0.152
0.155,-0.153
0.156,-0.150
0.157,-0.147
0.158,-0.147
0.159,-0.147
0.160,-0.153
0.161,-0.156
0.162,-0.155
0.163,-0.153
0.164,-0.150
0.165,-0.153
0.166,-0.150
0.167,-0.150
0.168,-0.146
0.169,-0.147
0.170,-0.148
0.171,-0.150
0.172,-0.148
0.173,-0.150
0.174,-0.144
0.175,-0.141
0.176,-0.136
0.177,-0.131
0.178,-0.133
0.179,-0.134
0.180,-0.139
0.181,-0.137
0.182,-0.139
0.183,-0.141
0.184,-0.146
0.185,-0.147
0.186,-0.150
0.187,-0.156
0.188,-0.163
0.189,-0.166
0.190,-0.167
0.191,-0.166
0.192,-0.158
0.193,-0.144
0.194,-0.129
0.195,-0.119
0.196,-0.103
0.197,-0.088
0.198,-0.059
0.199,-0.025
0.200,0.009
0.201,0.047
0.202,0.091
0.203,0.137
0.204,0.203
0.205,0.272
0.206,0.341
0.207,0.419
0.208,0.503
0.209,0.588
0.210,0.679
0.211,0.766
0.212,0.844
0.213,0.925
0.214,1.013
0.215,1.094
0.216,1.172
0.217,1.241
0.218,1.294
0.219,1.344
0.220,1.372
0.221,1.372
0.222,1.334
0.223,1.294
0.224,1.219
0.225,1.128
0.226,1.017
0.227,0.900
0.228,0.762
0.229,0.616
0.230,0.464
0.231,0.331
0.232,0.218
0.233,0.112
0.234,0.025
0.235,-0.037
0.236,-0.084
0.237,-0.116
0.238,-0.121
0.239,-0.116
0.240,-0.106
0.241,-0.097
0.242,-0.088
0.243,-0.084
0.244,-0.081
0.245,-0.078
0.246,-0.076
0.247,-0.075
0.248,-0.073
0.249,-0.072
0.250,-0.073
0.251,-0.072
0.252,-0.071
0.253,-0.066
0.254,-0.067
0.255,-0.066
0.256,-0.063
0.257,-0.063
0.258,-0.063
0.259,-0.063
0.260,-0.075
0.261,-0.084
0.262,-0.088
0.263,-0.091
0.264,-0.098
0.265,-0.103
0.266,-0.102
0.267,-0.103
0.268,-0.100
0.269,-0.097
0.270,-0.100
0.271,-0.100
0.272,-0.097
0.273,-0.097
0.274,-0.099
0.275,-0.097
0.276,-0.103
0.277,-0.106
0.278,-0.114
0.279,-0.112
0.280,-0.114
0.281,-0.112
0.282,-0.114
0.283,-0.112
0.284,-0.108
0.285,-0.109
0.286,-0.109
0.287,-0.109
0.288,-0.108
0.289,-0.106
0.290,-0.105
0.291,-0.103
0.292,-0.104
0.293,-0.106
0.294,-0.106
0.295,-0.106
0.296,-0.104
0.297,-0.106
0.298,-0.100
0.299,-0.097
0.300,-0.094
0.301,-0.094
0.302,-0.094
0.303,-0.094
0.304,-0.095
0.305,-0.097
0.306,-0.094
0.307,-0.094
0.308,-0.098
0.309,-0.097
0.310,-0.096
0.311,-0.094
0.312,-0.094
0.313,-0.094
0.314,-0.098
0.315,-0.097
0.316,-0.096
0.317,-0.094
0.318,-0.095
0.319,-0.094
0.320,-0.088
0.321,-0.084
0.322,-0.084
0.323,-0.084
0.324,-0.088
0.325,-0.084
0.326,-0.086
0.327,-0.088
0.328,-0.086
0.329,-0.091
0.330,-0.092
0.331,-0.091
0.332,-0.089
0.333,-0.088
0.334,-0.084
0.335,-0.084
0.336,-0.081
0.337,-0.081
0.338,-0.080
0.339,-0.075
0.340,-0.074
0.341,-0.075
0.342,-0.078
0.343,-0.078
0.344,-0.077
0.345,-0.075
0.346,-0.073
0.347,-0.075
0.348,-0.072
0.349,-0.072
0.350,-0.073
0.351,-0.072
0.352,-0.074
0.353,-0.072
0.354,-0.069
0.355,-0.069
0.356,-0.070
0.357,-0.072
0.358,-0.071
0.359,-0.066
0.360,-0.069
0.361,-0.072
0.362,-0.072
0.363,-0.075
0.364,-0.069
0.365,-0.066
0.366,-0.063
0.367,-0.056
0.368,-0.055
0.369,-0.053
0.370,-0.053
0.371,-0.050
0.372,-0.048
0.373,-0.050
0.374,-0.051
0.375,-0.053
0.376,-0.054
0.377,-0.053
0.378,-0.050
0.379,-0.047
0.380,-0.046
0.381,-0.041
0.382,-0.041
0.383,-0.041
0.384,-0.037
0.385,-0.037
0.386,-0.036
0.387,-0.034
0.388,-0.033
0.389,-0.028
0.390,-0.031
0.391,-0.031
0.392,-0.030
0.393,-0.025
0.394,-0.023
0.395,-0.022
0.396,-0.014
0.397,-0.009
0.398,-0.005
0.399,-0.003
0.400,-0.003
0.401,-0.003
0.402,-0.003
0.403,0.000
0.404,0.005
0.405,0.003
0.406,0.005
0.407,0.003
0.408,-0.001
0.409,0.000
0.410,0.002
0.411,0.003
0.412,0.002
0.413,0.003
0.414,0.009
0.415,0.012
0.416,0.016
0.417,0.022
0.418,0.023
0.419,0.028
0.420,0.029
0.421,0.034
0.422,0.037
0.423,0.041
0.424,0.044
0.425,0.050
0.426,0.056
0.427,0.059
0.428,0.059
0.429,0.059
0.430,0.056
0.431,0.056
0.432,0.058
0.433,0.056
0.434,0.059
0.435,0.063
0.436,0.061
0.437,0.063
0.438,0.063
0.439,0.066
0.440,0.073
0.441,0.081
0.442,0.082
0.443,0.088
0.444,0.092
0.445,0.094
0.446,0.097
0.447,0.100
0.448,0.099
0.449,0.100
0.450,0.100
0.451,0.100
0.452,0.100
0.453,0.100
0.454,0.100
0.455,0.103
0.456,0.100
0.457,0.103
0.458,0.103
0.459,0.103
0.460,0.108
0.461,0.112
0.462,0.109
0.463,0.112
0.464,0.114
0.465,0.119
0.466,0.119
0.467,0.122
0.468,0.122
0.469,0.122
0.470,0.128
0.471,0.131
0.472,0.136
0.473,0.137
0.474,0.137
0.475,0.137
0.476,0.137
0.477,0.137
0.478,0.141
0.479,0.144
0.480,0.143
0.481,0.141
0.482,0.143
0.483,0.141
0.484,0.137
0.485,0.137
0.486,0.139
0.487,0.141
0.488,0.148
0.489,0.156
0.490,0.155
0.491,0.153
0.492,0.157
0.493,0.159
0.494,0.159
0.495,0.163
0.496,0.163
0.497,0.163
0.498,0.164
0.499,0.163
0.500,0.161
0.501,0.163
0.502,0.164
0.503,0.166
0.504,0.163
0.505,0.163
0.506,0.166
0.507,0.166
0.508,0.161
0.509,0.159
0.510,0.158
0.511,0.156
0.512,0.153
0.513,0.150
0.514,0.153
0.515,0.153
0.516,0.152
0.517,0.144
0.518,0.143
0.519,0.141
0.520,0.147
0.521,0.144
0.522,0.142
0.523,0.144
0.524,0.141
0.525,0.144
0.526,0.142
0.527,0.141
0.528,0.134
0.529,0.128
0.530,0.126
0.531,0.125
0.532,0.125
0.533,0.119
0.534,0.116
0.535,0.109
0.536,0.105
0.537,0.097
0.538,0.092
0.539,0.088
0.540,0.091
0.541,0.091
0.542,0.086
0.543,0.078
0.544,0.071
0.545,0.066
0.546,0.061
0.547,0.053
0.548,0.053
0.549,0.053
0.550,0.050
0.551,0.047
0.552,0.045
0.553,0.041
0.554,0.037
0.555,0.031
0.556,0.029
0.557,0.031
0.558,0.025
0.559,0.022
0.560,0.018
0.561,0.012
0.562,0.006
0.563,0.003
0.564,0.002
0.565,-0.006
0.566,-0.008
0.567,-0.009
0.568,-0.009
0.569,-0.009
0.570,-0.012
0.571,-0.012
0.572,-0.020
0.573,-0.028
0.574,-0.025
0.575,-0.025
0.576,-0.025
0.577,-0.025
0.578,-0.029
0.579,-0.031
0.580,-0.036
0.581,-0.037
0.582,-0.039
0.583,-0.041
0.584,-0.046
0.585,-0.044
0.586,-0.043
0.587,-0.041
0.588,-0.045
0.589,-0.047
0.590,-0.043
0.591,-0.047
0.592,-0.047
0.593,-0.047
0.594,-0.044
0.595,-0.044
0.596,-0.047
0.597,-0.050
0.598,-0.051
0.599,-0.050
0.600,-0.050
0.601,-0.053
0.602,-0.050
0.603,-0.053
0.604,-0.053
0.605,-0.053
0.606,-0.053
0.607,-0.053
0.608,-0.053
0.609,-0.050
0.610,-0.053
0.611,-0.050
0.612,-0.050
0.613,-0.050
0.614,-0.053
0.615,-0.053
0.616,-0.055
0.617,-0.053
0.618,-0.057
0.619,-0.059
0.620,-0.057
0.621,-0.059
0.622,-0.053
0.623,-0.053
0.624,-0.053
0.625,-0.056
0.626,-0.059
0.627,-0.056
0.628,-0.057
0.629,-0.059
0.630,-0.055
0.631,-0.056
0.632,-0.053
0.633,-0.056
0.634,-0.056
0.635,-0.056
0.636,-0.059
0.637,-0.056
0.638,-0.056
0.639,-0.056
0.640,-0.059
0.641,-0.059
0.642,-0.055
0.643,-0.056
0.644,-0.052
0.645,-0.053
0.646,-0.054
0.647,-0.056
0.648,-0.056
0.649,-0.056
0.650,-0.056
0.651,-0.059
0.652,-0.057
0.653,-0.059
0.654,-0.058
0.655,-0.059
0.656,-0.058
0.657,-0.053
0.658,-0.053
0.659,-0.053
0.660,-0.057
0.661,-0.066
0.662,-0.066
0.663,-0.066
0.664,-0.067
0.665,-0.066
0.666,-0.069
0.667,-0.069
0.668,-0.064
0.669,-0.059
0.670,-0.064
0.671,-0.066
0.672,-0.067
0.673,-0.069
0.674,-0.064
0.675,-0.066
0.676,-0.069
0.677,-0.069
0.678,-0.070
0.679,-0.072
0.680,-0.076
0.681,-0.075
0.682,-0.075
0.683,-0.075
0.684,-0.074
0.685,-0.072
0.686,-0.072
0.687,-0.072
0.688,-0.071
0.689,-0.069
0.690,-0.072
0.691,-0.075
0.692,-0.075
0.693,-0.075
0.694,-0.075
0.695,-0.075
0.696,-0.074
0.697,-0.075
0.698,-0.078
0.699,-0.081
0.700,-0.081
0.701,-0.081
0.702,-0.081
0.703,-0.081
0.704,-0.082
0.705,-0.084
0.706,-0.084
0.707,-0.088
0.708,-0.086
0.709,-0.088
0.710,-0.080
0.711,-0.072
0.712,-0.075
0.713,-0.075
0.714,-0.079
0.715,-0.084
0.716,-0.086
0.717,-0.088
0.718,-0.088
0.719,-0.088
0.720,-0.091
0.721,-0.091
0.722,-0.091
0.723,-0.091
0.724,-0.088
0.725,-0.091
0.726,-0.092
0.727,-0.088
0.728,-0.091
0.729,-0.088
0.730,-0.091
0.731,-0.091
0.732,-0.091
0.733,-0.091
0.734,-0.091
0.735,-0.091
0.736,-0.092
0.737,-0.097
0.738,-0.098
0.739,-0.097
0.740,-0.092
0.741,-0.088
0.742,-0.086
0.743,-0.084
0.744,-0.086
0.745,-0.084
0.746,-0.091
0.747,-0.097
0.748,-0.098
0.749,-0.100
0.750,-0.099
0.751,-0.097
0.752,-0.097
0.753,-0.100
0.754,-0.102
0.755,-0.100
0.756,-0.097
0.757,-0.097
0.758,-0.100
0.759,-0.103
0.760,-0.103
0.761,-0.103
0.762,-0.103
0.763,-0.103
0.764,-0.104
0.765,-0.103
0.766,-0.104
0.767,-0.106
0.768,-0.109
0.769,-0.109
0.770,-0.111
0.771,-0.109
0.772,-0.111
0.773,-0.112
0.774,-0.106
0.775,-0.103
0.776,-0.102
0.777,-0.097
0.778,-0.095
0.779,-0.097
0.780,-0.099
0.781,-0.100
0.782,-0.101
0.783,-0.103
0.784,-0.103
0.785,-0.103
0.786,-0.103
0.787,-0.103
0.788,-0.103
0.789,-0.106
0.790,-0.106
0.791,-0.106
0.792,-0.108
0.793,-0.106
0.794,-0.106
0.795,-0.106
0.796,-0.106
0.797,-0.106
0.798,-0.109
0.799,-0.109
0.800,-0.112
0.801,-0.116
0.802,-0.109
0.803,-0.109
0.804,-0.105
0.805,-0.100
0.806,-0.100
0.807,-0.100
0.808,-0.103
0.809,-0.106
0.810,-0.108
0.811,-0.106
0.812,-0.106
0.813,-0.109
0.814,-0.111
0.815,-0.109
0.816,-0.109
0.817,-0.109
0.818,-0.108
0.819,-0.109
0.820,-0.109
0.821,-0.109
0.822,-0.106
0.823,-0.100
0.824,-0.097
0.825,-0.097
0.826,-0.095
0.827,-0.094
0.828,-0.088
0.829,-0.084
0.830,-0.080
0.831,-0.072
0.832,-0.067
0.833,-0.059
0.834,-0.057
0.835,-0.056
0.836,-0.053
0.837,-0.050
0.838,-0.046
0.839,-0.041
0.840,-0.037
0.841,-0.037
0.842,-0.033
0.843,-0.031
0.844,-0.033
0.845,-0.028
0.846,-0.028
0.847,-0.025
0.848,-0.025
0.849,-0.022
0.850,-0.019
0.851,-0.019
0.852,-0.014
0.853,-0.009
0.854,-0.009
0.855,-0.009
0.856,-0.009
0.857,-0.012
0.858,-0.011
0.859,-0.003
0.860,0.000
0.861,0.006
0.862,0.012
0.863,0.016
0.864,0.019
0.865,0.028
0.866,0.033
0.867,0.041
0.868,0.039
0.869,0.041
0.870,0.044
0.871,0.047
0.872,0.050
0.873,0.050
0.874,0.046
0.875,0.047
0.876,0.054
0.877,0.053
0.878,0.048
0.879,0.047
0.880,0.048
0.881,0.047
0.882,0.041
0.883,0.037
0.884,0.029
0.885,0.028
0.886,0.022
0.887,0.016
0.888,0.014
0.889,0.009
0.890,0.009
0.891,0.009
0.892,0.009
0.893,0.009
0.894,0.004
0.895,0.000
0.896,-0.006
0.897,-0.012
0.898,-0.018
0.899,-0.025
0.900,-0.031
0.901,-0.037
0.902,-0.045
0.903,-0.050
0.904,-0.061
0.905,-0.072
0.906,-0.071
0.907,-0.069
0.908,-0.075
0.909,-0.075
0.910,-0.086
0.911,-0.097
0.912,-0.100
0.913,-0.103
0.914,-0.105
0.915,-0.103
0.916,-0.105
0.917,-0.109
0.918,-0.114
0.919,-0.119
0.920,-0.123
0.921,-0.128
0.922,-0.127
0.923,-0.128
0.924,-0.130
0.925,-0.131
0.926,-0.134
0.927,-0.137
0.928,-0.139
0.929,-0.141
0.930,-0.139
0.931,-0.141
0.932,-0.142
0.933,-0.144
0.934,-0.144
0.935,-0.141
0.936,-0.137
0.937,-0.134
0.938,-0.133
0.939,-0.134
0.940,-0.134
0.941,-0.141
0.942,-0.142
0.943,-0.144
0.944,-0.143
0.945,-0.144
0.946,-0.145
0.947,-0.147
0.948,-0.150
0.949,-0.153
0.950,-0.151
0.951,-0.153
0.952,-0.149
0.953,-0.147
0.954,-0.146
0.955,-0.144
0.956,-0.144
0.957,-0.144
0.958,-0.146
0.959,-0.144
0.960,-0.145
0.961,-0.147
0.962,-0.144
0.963,-0.147
0.964,-0.145
0.965,-0.147
0.966,-0.143
0.967,-0.144
0.968,-0.145
0.969,-0.147
0.970,-0.145
0.971,-0.147
0.972,-0.144
0.973,-0.144
0.974,-0.145
0.975,-0.147
0.976,-0.147
0.977,-0.147
0.978,-0.151
0.979,-0.150
0.980,-0.149
0.981,-0.147
0.982,-0.149
0.983,-0.147
0.984,-0.149
0.985,-0.153
0.986,-0.161
0.987,-0.166
0.988,-0.163
0.989,-0.156
0.990,-0.147
0.991,-0.131
0.992,-0.114
0.993,-0.100
0.994,-0.082
0.995,-0.066
0.996,-0.037
0.997,-0.003
0.998,0.028
0.999,0.063
1.000,0.106
1.001,0.153
1.002,0.209
1.003,0.269
1.004,0.337
1.005,0.416
1.006,0.500
1.007,0.584
1.008,0.678
1.009,0.766
1.010,0.847
1.011,0.931
1.012,1.017
1.013,1.097
1.014,1.171
1.015,1.234
1.016,1.289
1.017,1.341
1.018,1.361
1.019,1.353
1.020,1.307
1.021,1.259
1.022,1.178
1.023,1.081
1.024,0.975
1.025,0.862
1.026,0.725
1.027,0.578
1.028,0.436
1.029,0.313
1.030,0.202
1.031,0.100
1.032,0.016
1.033,-0.044
1.034,-0.081
1.035,-0.103
1.036,-0.111
1.037,-0.109
1.038,-0.101
1.039,-0.094
1.040,-0.084
1.041,-0.081
1.042,-0.079
1.043,-0.078
1.044,-0.076
1.045,-0.075
1.046,-0.073
1.047,-0.072
1.048,-0.067
1.049,-0.059
1.050,-0.061
1.051,-0.059
1.052,-0.059
1.053,-0.056
1.054,-0.056
1.055,-0.059
1.056,-0.067
1.057,-0.075
1.058,-0.081
1.059,-0.084
1.060,-0.088
1.061,-0.091
1.062,-0.092
1.063,-0.091
1.064,-0.089
1.065,-0.091
1.066,-0.095
1.067,-0.100
1.068,-0.102
1.069,-0.100
1.070,-0.097
1.071,-0.097
1.072,-0.099
1.073,-0.097
1.074,-0.101
1.075,-0.103
1.076,-0.109
1.077,-0.106
1.078,-0.109
1.079,-0.109
1.080,-0.106
1.081,-0.100
1.082,-0.097
1.083,-0.100
1.084,-0.101
1.085,-0.103
1.086,-0.103
1.087,-0.103
1.088,-0.104
1.089,-0.106
1.090,-0.105
1.091,-0.103
1.092,-0.103
1.093,-0.103
1.094,-0.101
1.095,-0.103
1.096,-0.099
1.097,-0.097
1.098,-0.095
1.099,-0.097
1.100,-0.098
1.101,-0.100
1.102,-0.096
1.103,-0.091
1.104,-0.086
1.105,-0.084
1.106,-0.089
1.107,-0.088
1.108,-0.088
1.109,-0.088
1.110,-0.088
1.111,-0.088
1.112,-0.088
1.113,-0.081
1.114,-0.081
1.115,-0.081
1.116,-0.080
1.117,-0.075
1.118,-0.072
1.119,-0.072
1.120,-0.072
1.121,-0.072
1.122,-0.075
1.123,-0.072
1.124,-0.071
1.125,-0.069
1.126,-0.066
1.127,-0.069
1.128,-0.073
1.129,-0.075
1.130,-0.075
1.131,-0.075
1.132,-0.073
1.133,-0.075
1.134,-0.071
1.135,-0.069
1.136,-0.071
1.137,-0.069
1.138,-0.067
1.139,-0.069
1.140,-0.070
1.141,-0.069
1.142,-0.070
1.143,-0.072
1.144,-0.070
1.145,-0.072
1.146,-0.067
1.147,-0.066
1.148,-0.066
1.149,-0.063
1.150,-0.067
1.151,-0.069
1.152,-0.067
1.153,-0.069
1.154,-0.067
1.155,-0.066
1.156,-0.061
1.157,-0.053
1.158,-0.052
1.159,-0.050
1.160,-0.046
1.161,-0.044
1.162,-0.041
1.163,-0.041
1.164,-0.044
1.165,-0.044
1.166,-0.043
1.167,-0.041
1.168,-0.041
1.169,-0.037
1.170,-0.036
1.171,-0.037
1.172,-0.036
1.173,-0.034
1.174,-0.034
1.175,-0.031
1.176,-0.029
1.177,-0.028
1.178,-0.029
1.179,-0.028
1.180,-0.028
1.181,-0.028
1.182,-0.024
1.183,-0.022
1.184,-0.019
1.185,-0.016
1.186,-0.017
1.187,-0.016
1.188,-0.014
1.189,-0.009
1.190,-0.008
1.191,-0.003
1.192,-0.001
1.193,0.000
1.194,0.003
1.195,0.003
1.196,0.006
1.197,0.006
1.198,0.006
1.199,0.006
1.200,0.009
1.201,0.016
1.202,0.022
1.203,0.022
1.204,0.025
1.205,0.025
1.206,0.022
1.207,0.025
1.208,0.027
1.209,0.028
1.210,0.029
1.211,0.034
1.212,0.037
1.213,0.037
1.214,0.036
1.215,0.037
1.216,0.039
1.217,0.044
1.218,0.044
1.219,0.047
1.220,0.053
1.221,0.059
1.222,0.056
1.223,0.056
1.224,0.058
1.225,0.056
1.226,0.061
1.227,0.066
1.228,0.064
1.229,0.066
1.230,0.066
1.231,0.063
1.232,0.066
1.233,0.069
1.234,0.072
1.235,0.078
1.236,0.078
1.237,0.081
1.238,0.083
1.239,0.084
1.240,0.086
1.241,0.091
1.242,0.095
1.243,0.097
1.244,0.100
1.245,0.103
1.246,0.102
1.247,0.103
1.248,0.103
1.249,0.103
1.250,0.105
1.251,0.106
1.252,0.106
1.253,0.109
1.254,0.108
1.255,0.112
1.256,0.117
1.257,0.122
1.258,0.124
1.259,0.125
1.260,0.121
1.261,0.122
1.262,0.121
1.263,0.122
1.264,0.123
1.265,0.128
1.266,0.131
1.267,0.134
1.268,0.137
1.269,0.137
1.270,0.139
1.271,0.137
1.272,0.137
1.273,0.137
1.274,0.137
1.275,0.137
1.276,0.142
1.277,0.147
1.278,0.150
1.279,0.153
1.280,0.156
1.281,0.156
1.282,0.155
1.283,0.156
1.284,0.158
1.285,0.159
1.286,0.163
1.287,0.166
1.288,0.167
1.289,0.169
1.290,0.171
1.291,0.169
1.292,0.170
1.293,0.175
1.294,0.176
1.295,0.178
1.296,0.180
1.297,0.178
1.298,0.175
1.299,0.175
1.300,0.181
1.301,0.188
1.302,0.183
1.303,0.181
1.304,0.183
1.305,0.181
1.306,0.178
1.307,0.178
1.308,0.178
1.309,0.178
1.310,0.179
1.311,0.181
1.312,0.182
1.313,0.181
1.314,0.181
1.315,0.175
1.316,0.174
1.317,0.172
1.318,0.176
1.319,0.172
1.320,0.166
1.321,0.163
1.322,0.157
1.323,0.159
1.324,0.157
1.325,0.156
1.326,0.153
1.327,0.150
1.328,0.147
1.329,0.144
1.330,0.144
1.331,0.137
1.332,0.131
1.333,0.122
1.334,0.123
1.335,0.122
1.336,0.117
1.337,0.112
1.338,0.111
1.339,0.106
1.340,0.108
1.341,0.106
1.342,0.099
1.343,0.094
1.344,0.091
1.345,0.084
1.346,0.081
1.347,0.078
1.348,0.074
1.349,0.069
1.350,0.064
1.351,0.056
1.352,0.056
1.353,0.053
1.354,0.047
1.355,0.044
1.356,0.036
1.357,0.031
1.358,0.031
1.359,0.031
1.360,0.026
1.361,0.025
1.362,0.022
1.363,0.012
1.364,0.011
1.365,0.009
1.366,0.006
1.367,0.003
1.368,0.001
1.369,0.003
1.370,-0.001
1.371,-0.006
1.372,-0.006
1.373,-0.009
1.374,-0.012
1.375,-0.016
1.376,-0.018
1.377,-0.016
1.378,-0.020
1.379,-0.022
1.380,-0.023
1.381,-0.025
1.382,-0.030
1.383,-0.028
1.384,-0.028
1.385,-0.028
1.386,-0.031
1.387,-0.031
1.388,-0.027
1.389,-0.031
1.390,-0.031
1.391,-0.031
1.392,-0.029
1.393,-0.031
1.394,-0.031
1.395,-0.031
1.396,-0.033
1.397,-0.031
1.398,-0.030
1.399,-0.031
1.400,-0.029
1.401,-0.034
1.402,-0.034
1.403,-0.034
1.404,-0.036
1.405,-0.037
1.406,-0.044
1.407,-0.047
1.408,-0.050
1.409,-0.047
1.410,-0.044
1.411,-0.041
1.412,-0.041
1.413,-0.037
1.414,-0.042
1.415,-0.044
1.416,-0.046
1.417,-0.044
1.418,-0.042
1.419,-0.044
1.420,-0.041
1.421,-0.044
1.422,-0.045
1.423,-0.050
1.424,-0.054
1.425,-0.053
1.426,-0.050
1.427,-0.047
1.428,-0.041
1.429,-0.041
1.430,-0.039
1.431,-0.044
1.432,-0.045
1.433,-0.047
1.434,-0.051
1.435,-0.050
1.436,-0.050
1.437,-0.050
1.438,-0.052
1.439,-0.050
1.440,-0.047
1.441,-0.050
1.442,-0.047
1.443,-0.050
1.444,-0.050
1.445,-0.050
1.446,-0.050
1.447,-0.050
1.448,-0.049
1.449,-0.050
1.450,-0.048
1.451,-0.050
1.452,-0.050
1.453,-0.053
1.454,-0.054
1.455,-0.053
1.456,-0.052
1.457,-0.050
1.458,-0.049
1.459,-0.050
1.460,-0.050
1.461,-0.050
1.462,-0.050
1.463,-0.047
1.464,-0.051
1.465,-0.053
1.466,-0.052
1.467,-0.050
1.468,-0.056
1.469,-0.059
1.470,-0.059
1.471,-0.059
1.472,-0.055
1.473,-0.056
1.474,-0.059
1.475,-0.059
1.476,-0.063
1.477,-0.066
1.478,-0.070
1.479,-0.069
1.480,-0.067
1.481,-0.066
1.482,-0.066
1.483,-0.066
1.484,-0.064
1.485,-0.063
1.486,-0.063
1.487,-0.063
1.488,-0.067
1.489,-0.072
1.490,-0.073
1.491,-0.075
1.492,-0.072
1.493,-0.069
1.494,-0.066
1.495,-0.066
1.496,-0.066
1.497,-0.066
1.498,-0.067
1.499,-0.069
1.500,-0.073
1.501,-0.078
1.502,-0.077
1.503,-0.075
1.504,-0.075
1.505,-0.078
1.506,-0.076
1.507,-0.078
1.508,-0.077
1.509,-0.075
1.510,-0.078
1.511,-0.078
1.512,-0.079
1.513,-0.081
1.514,-0.081
1.515,-0.081
1.516,-0.080
1.517,-0.078
1.518,-0.084
1.519,-0.088
1.520,-0.089
1.521,-0.091
1.522,-0.084
1.523,-0.084
1.524,-0.088
1.525,-0.084
1.526,-0.089
1.527,-0.088
1.528,-0.091
1.529,-0.091
1.530,-0.089
1.531,-0.088
1.532,-0.089
1.533,-0.091
1.534,-0.089
1.535,-0.091
1.536,-0.092
1.537,-0.091
1.538,-0.091
1.539,-0.091
1.540,-0.091
1.541,-0.091
1.542,-0.092
1.543,-0.091
1.544,-0.092
1.545,-0.094
1.546,-0.092
1.547,-0.091
1.548,-0.092
1.549,-0.094
1.550,-0.094
1.551,-0.097
1.552,-0.099
1.553,-0.097
1.554,-0.094
1.555,-0.094
1.556,-0.095
1.557,-0.097
1.558,-0.097
1.559,-0.097
1.560,-0.096
1.561,-0.094
1.562,-0.089
1.563,-0.088
1.564,-0.089
1.565,-0.091
1.566,-0.095
1.567,-0.097
1.568,-0.098
1.569,-0.100
1.570,-0.099
1.571,-0.097
1.572,-0.100
1.573,-0.100
1.574,-0.099
1.575,-0.097
1.576,-0.094
1.577,-0.097
1.578,-0.097
1.579,-0.097
1.580,-0.098
1.581,-0.100
1.582,-0.101
1.583,-0.103
1.584,-0.106
1.585,-0.106
1.586,-0.102
1.587,-0.100
1.588,-0.100
1.589,-0.097
1.590,-0.100
1.591,-0.103
1.592,-0.101
1.593,-0.103
1.594,-0.103
1.595,-0.103
1.596,-0.102
1.597,-0.097
1.598,-0.092
1.599,-0.091
1.600,-0.091
1.601,-0.091
1.602,-0.081
1.603,-0.075
1.604,-0.073
1.605,-0.069
1.606,-0.070
1.607,-0.069
1.608,-0.059
1.609,-0.050
1.610,-0.041
1.611,-0.031
1.612,-0.027
1.613,-0.022
1.614,-0.023
1.615,-0.028
1.616,-0.026
1.617,-0.028
1.618,-0.027
1.619,-0.019
1.620,-0.020
1.621,-0.019
1.622,-0.022
1.623,-0.022
1.624,-0.020
1.625,-0.022
1.626,-0.019
1.627,-0.016
1.628,-0.014
1.629,-0.012
1.630,-0.011
1.631,-0.012
1.632,-0.014
1.633,-0.009
1.634,-0.002
1.635,0.009
1.636,0.020
1.637,0.028
1.638,0.031
1.639,0.041
1.640,0.041
1.641,0.044
1.642,0.047
1.643,0.053
1.644,0.054
1.645,0.056
1.646,0.059
1.647,0.059
1.648,0.055
1.649,0.056
1.650,0.064
1.651,0.063
1.652,0.053
1.653,0.047
1.654,0.044
1.655,0.037
1.656,0.033
1.657,0.031
1.658,0.025
1.659,0.025
1.660,0.021
1.661,0.016
1.662,0.014
1.663,0.009
1.664,0.009
1.665,0.009
1.666,0.008
1.667,0.006
1.668,0.000
1.669,-0.006
1.670,-0.012
1.671,-0.019
1.672,-0.024
1.673,-0.031
1.674,-0.037
1.675,-0.044
1.676,-0.048
1.677,-0.050
1.678,-0.056
1.679,-0.063
1.680,-0.067
1.681,-0.072
1.682,-0.081
1.683,-0.084
1.684,-0.091
1.685,-0.097
1.686,-0.099
1.687,-0.100
1.688,-0.103
1.689,-0.103
1.690,-0.108
1.691,-0.116
1.692,-0.118
1.693,-0.119
1.694,-0.122
1.695,-0.125
1.696,-0.126
1.697,-0.131
1.698,-0.136
1.699,-0.141
1.700,-0.141
1.701,-0.141
1.702,-0.141
1.703,-0.141
1.704,-0.141
1.705,-0.144
1.706,-0.143
1.707,-0.141
1.708,-0.143
1.709,-0.141
1.710,-0.142
1.711,-0.144
1.712,-0.144
1.713,-0.147
1.714,-0.145
1.715,-0.150
1.716,-0.149
1.717,-0.147
1.718,-0.146
1.719,-0.147
1.720,-0.148
1.721,-0.150
1.722,-0.150
1.723,-0.150
1.724,-0.147
1.725,-0.147
1.726,-0.146
1.727,-0.147
1.728,-0.151
1.729,-0.156
1.730,-0.155
1.731,-0.153
1.732,-0.155
1.733,-0.153
1.734,-0.153
1.735,-0.153
1.736,-0.149
1.737,-0.150
1.738,-0.147
1.739,-0.147
1.740,-0.143
1.741,-0.144
1.742,-0.145
1.743,-0.147
1.744,-0.145
1.745,-0.147
1.746,-0.144
1.747,-0.144
1.748,-0.143
1.749,-0.141
1.750,-0.139
1.751,-0.137
1.752,-0.144
1.753,-0.144
1.754,-0.144
1.755,-0.144
1.756,-0.151
1.757,-0.156
1.758,-0.159
1.759,-0.166
1.760,-0.172
1.761,-0.175
1.762,-0.173
1.763,-0.169
1.764,-0.159
1.765,-0.144
1.766,-0.125
1.767,-0.109
1.768,-0.094
1.769,-0.078
1.770,-0.047
1.771,-0.009
1.772,0.029
1.773,0.072
1.774,0.117
1.775,0.166
1.776,0.221
1.777,0.278
1.778,0.348
1.779,0.428
1.780,0.516
1.781,0.603
1.782,0.689
1.783,0.769
1.784,0.846
1.785,0.925
1.786,1.005
1.787,1.078
1.788,1.152
1.789,1.216
1.790,1.272
1.791,1.325
1.792,1.328
1.793,1.303
1.794,1.252
1.795,1.197
1.796,1.117
1.797,1.022
1.798,0.911
1.799,0.794
1.800,0.659
1.801,0.516
1.802,0.379
1.803,0.263
1.804,0.157
1.805,0.063
1.806,-0.016
1.807,-0.069
1.808,-0.102
1.809,-0.119
1.810,-0.129
1.811,-0.131
1.812,-0.122
1.813,-0.112
1.814,-0.099
1.815,-0.091
1.816,-0.089
1.817,-0.088
1.818,-0.083
1.819,-0.078
1.820,-0.075
1.821,-0.072
1.822,-0.076
1.823,-0.078
1.824,-0.078
1.825,-0.075
1.826,-0.075
1.827,-0.072
1.828,-0.071
1.829,-0.072
1.830,-0.076
1.831,-0.081
1.832,-0.089
1.833,-0.094
1.834,-0.097
1.835,-0.100
1.836,-0.101
1.837,-0.100
1.838,-0.094
1.839,-0.091
1.840,-0.091
1.841,-0.091
1.842,-0.092
1.843,-0.091
1.844,-0.089
1.845,-0.091
1.846,-0.094
1.847,-0.094
1.848,-0.098
1.849,-0.100
1.850,-0.106
1.851,-0.103
1.852,-0.103
1.853,-0.100
1.854,-0.100
1.855,-0.097
1.856,-0.094
1.857,-0.097
1.858,-0.098
1.859,-0.100
1.860,-0.100
1.861,-0.100
1.862,-0.101
1.863,-0.103
1.864,-0.104
1.865,-0.106
1.866,-0.106
1.867,-0.106
1.868,-0.104
1.869,-0.106
1.870,-0.100
1.871,-0.097
1.872,-0.094
1.873,-0.094
1.874,-0.094
1.875,-0.094
1.876,-0.094
1.877,-0.094
1.878,-0.089
1.879,-0.088
1.880,-0.092
1.881,-0.091
1.882,-0.092
1.883,-0.094
1.884,-0.094
1.885,-0.094
1.886,-0.095
1.887,-0.091
1.888,-0.091
1.889,-0.091
1.890,-0.092
1.891,-0.091
1.892,-0.084
1.893,-0.081
1.894,-0.080
1.895,-0.078
1.896,-0.082
1.897,-0.081
1.898,-0.082
1.899,-0.084
1.900,-0.080
1.901,-0.081
1.902,-0.083
1.903,-0.081
1.904,-0.078
1.905,-0.075
1.906,-0.073
1.907,-0.075
1.908,-0.072
1.909,-0.072
1.910,-0.072
1.911,-0.069
1.912,-0.069
1.913,-0.072
1.914,-0.075
1.915,-0.075
1.916,-0.074
1.917,-0.072
1.918,-0.069
1.919,-0.069
1.920,-0.066
1.921,-0.066
1.922,-0.066
1.923,-0.063
1.924,-0.066
1.925,-0.066
1.926,-0.064
1.927,-0.066
1.928,-0.066
1.929,-0.066
1.930,-0.066
1.931,-0.063
1.932,-0.064
1.933,-0.066
1.934,-0.066
1.935,-0.069
1.936,-0.064
1.937,-0.063
1.938,-0.061
1.939,-0.056
1.940,-0.053
1.941,-0.050
1.942,-0.053
1.943,-0.053
1.944,-0.051
1.945,-0.053
1.946,-0.050
1.947,-0.047
1.948,-0.046
1.949,-0.041
1.950,-0.039
1.951,-0.037
1.952,-0.039
1.953,-0.037
1.954,-0.036
1.955,-0.034
1.956,-0.031
1.957,-0.031
1.958,-0.027
1.959,-0.022
1.960,-0.023
1.961,-0.022
1.962,-0.021
1.963,-0.016
1.964,-0.017
1.965,-0.016
1.966,-0.014
1.967,-0.012
1.968,-0.009
1.969,-0.009
1.970,-0.008
1.971,-0.009
1.972,-0.009
1.973,-0.009
1.974,-0.011
1.975,-0.009
1.976,-0.002
1.977,0.000
1.978,0.004
1.979,0.006
1.980,0.004
1.981,0.009
1.982,0.009
1.983,0.009
1.984,0.011
1.985,0.016
1.986,0.020
1.987,0.022
1.988,0.025
1.989,0.031
1.990,0.030
1.991,0.031
1.992,0.030
1.993,0.031
1.994,0.033
1.995,0.034
1.996,0.037
1.997,0.044
1.998,0.047
1.999,0.047
2.000,0.047
2.001,0.047
2.002,0.050
2.003,0.056
2.004,0.063
2.005,0.066
2.006,0.068
2.007,0.069
2.008,0.072
2.009,0.078
2.010,0.077
2.011,0.078
2.012,0.080
2.013,0.081
2.014,0.080
2.015,0.081
2.016,0.083
2.017,0.081
2.018,0.088
2.019,0.094
2.020,0.095
2.021,0.100
2.022,0.100
2.023,0.100
2.024,0.102
2.025,0.103
2.026,0.106
2.027,0.112
2.028,0.109
2.029,0.112
2.030,0.112
2.031,0.112
2.032,0.114
2.033,0.116
2.034,0.114
2.035,0.119
2.036,0.119
2.037,0.122
2.038,0.121
2.039,0.122
2.040,0.121
2.041,0.119
2.042,0.125
2.043,0.128
2.044,0.131
2.045,0.131
2.046,0.131
2.047,0.131
2.048,0.131
2.049,0.131
2.050,0.131
2.051,0.131
2.052,0.131
2.053,0.131
2.054,0.133
2.055,0.131
2.056,0.131
2.057,0.134
2.058,0.134
2.059,0.134
2.060,0.141
2.061,0.147
2.062,0.146
2.063,0.144
2.064,0.147
2.065,0.147
2.066,0.144
2.067,0.144
2.068,0.147
2.069,0.150
2.070,0.154
2.071,0.156
2.072,0.155
2.073,0.156
2.074,0.157
2.075,0.159
2.076,0.155
2.077,0.153
2.078,0.157
2.079,0.159
2.080,0.157
2.081,0.159
2.082,0.159
2.083,0.159
2.084,0.161
2.085,0.163
2.086,0.164
2.087,0.163
2.088,0.164
2.089,0.159
2.090,0.158
2.091,0.156
2.092,0.156
2.093,0.147
2.094,0.144
2.095,0.144
2.096,0.137
2.097,0.137
2.098,0.137
2.099,0.137
2.100,0.133
2.101,0.128
2.102,0.125
2.103,0.122
2.104,0.119
2.105,0.109
2.106,0.108
2.107,0.103
2.108,0.104
2.109,0.103
2.110,0.100
2.111,0.097
2.112,0.096
2.113,0.091
2.114,0.083
2.115,0.072
2.116,0.067
2.117,0.066
2.118,0.063
2.119,0.056
2.120,0.054
2.121,0.053
2.122,0.050
2.123,0.047
2.124,0.043
2.125,0.034
2.126,0.030
2.127,0.022
2.128,0.020
2.129,0.022
2.130,0.016
2.131,0.012
2.132,0.011
2.133,0.009
2.134,0.002
2.135,-0.003
2.136,-0.003
2.137,-0.009
2.138,-0.011
2.139,-0.012
2.140,-0.014
2.141,-0.016
2.142,-0.018
2.143,-0.016
2.144,-0.020
2.145,-0.025
2.146,-0.026
2.147,-0.031
2.148,-0.033
2.149,-0.034
2.150,-0.034
2.151,-0.031
2.152,-0.033
2.153,-0.031
2.154,-0.031
2.155,-0.031
2.156,-0.042
2.157,-0.047
2.158,-0.047
2.159,-0.047
2.160,-0.049
2.161,-0.047
2.162,-0.045
2.163,-0.053
2.164,-0.053
2.165,-0.053
2.166,-0.050
2.167,-0.050
2.168,-0.052
2.169,-0.053
2.170,-0.057
2.171,-0.059
2.172,-0.058
2.173,-0.059
2.174,-0.056
2.175,-0.059
2.176,-0.063
2.177,-0.066
2.178,-0.064
2.179,-0.063
2.180,-0.064
2.181,-0.063
2.182,-0.064
2.183,-0.059
2.184,-0.056
2.185,-0.053
2.186,-0.056
2.187,-0.056
2.188,-0.061
2.189,-0.063
2.190,-0.066
2.191,-0.066
2.192,-0.064
2.193,-0.066
2.194,-0.064
2.195,-0.069
2.196,-0.066
2.197,-0.066
2.198,-0.069
2.199,-0.066
2.200,-0.067
2.201,-0.069
2.202,-0.066
2.203,-0.069
2.204,-0.064
2.205,-0.066
2.206,-0.064
2.207,-0.063
2.208,-0.067
2.209,-0.066
2.210,-0.066
2.211,-0.066
2.212,-0.069
2.213,-0.069
2.214,-0.066
2.215,-0.069
2.216,-0.064
2.217,-0.066
2.218,-0.066
2.219,-0.066
2.220,-0.066
2.221,-0.066
2.222,-0.067
2.223,-0.072
2.224,-0.069
2.225,-0.069
2.226,-0.069
2.227,-0.072
2.228,-0.073
2.229,-0.072
2.230,-0.072
2.231,-0.072
2.232,-0.071
2.233,-0.072
2.234,-0.072
2.235,-0.072
2.236,-0.071
2.237,-0.066
2.238,-0.067
2.239,-0.066
2.240,-0.067
2.241,-0.069
2.242,-0.073
2.243,-0.075
2.244,-0.075
2.245,-0.075
2.246,-0.069
2.247,-0.069
2.248,-0.072
2.249,-0.072
2.250,-0.072
2.251,-0.072
2.252,-0.075
2.253,-0.072
2.254,-0.072
2.255,-0.072
2.256,-0.072
2.257,-0.072
2.258,-0.072
2.259,-0.072
2.260,-0.072
2.261,-0.072
2.262,-0.075
2.263,-0.078
2.264,-0.079
2.265,-0.081
2.266,-0.081
2.267,-0.081
2.268,-0.081
2.269,-0.084
2.270,-0.086
2.271,-0.088
2.272,-0.086
2.273,-0.084
2.274,-0.080
2.275,-0.075
2.276,-0.076
2.277,-0.078
2.278,-0.081
2.279,-0.088
2.280,-0.082
2.281,-0.081
2.282,-0.081
2.283,-0.081
2.284,-0.082
2.285,-0.084
2.286,-0.084
2.287,-0.084
2.288,-0.088
2.289,-0.088
2.290,-0.091
2.291,-0.094
2.292,-0.091
2.293,-0.091
2.294,-0.091
2.295,-0.091
2.296,-0.089
2.297,-0.091
2.298,-0.092
2.299,-0.094
2.300,-0.094
2.301,-0.091
2.302,-0.094
2.303,-0.094
2.304,-0.094
2.305,-0.094
2.306,-0.094
2.307,-0.094
2.308,-0.092
2.309,-0.094
2.310,-0.092
2.311,-0.091
2.312,-0.094
2.313,-0.094
2.314,-0.092
2.315,-0.094
2.316,-0.094
2.317,-0.091
2.318,-0.089
2.319,-0.088
2.320,-0.088
2.321,-0.088
2.322,-0.088
2.323,-0.088
2.324,-0.086
2.325,-0.081
2.326,-0.079
2.327,-0.075
2.328,-0.076
2.329,-0.078
2.330,-0.071
2.331,-0.066
2.332,-0.059
2.333,-0.053
2.334,-0.047
2.335,-0.041
2.336,-0.034
2.337,-0.031
2.338,-0.029
2.339,-0.028
2.340,-0.024
2.341,-0.016
2.342,-0.017
2.343,-0.019
2.344,-0.012
2.345,-0.012
2.346,-0.009
2.347,-0.012
2.348,-0.014
2.349,-0.012
2.350,-0.016
2.351,-0.016
2.352,-0.009
2.353,-0.006
2.354,-0.006
2.355,-0.003
2.356,-0.004
2.357,-0.003
2.358,0.002
2.359,0.003
2.360,0.016
2.361,0.025
2.362,0.034
2.363,0.041
2.364,0.046
2.365,0.047
2.366,0.056
2.367,0.059
2.368,0.063
2.369,0.063
2.370,0.061
2.371,0.063
2.372,0.067
2.373,0.069
2.374,0.072
2.375,0.075
2.376,0.069
2.377,0.063
2.378,0.055
2.379,0.050
2.380,0.046
2.381,0.037
2.382,0.034
2.383,0.025
2.384,0.025
2.385,0.025
2.386,0.023
2.387,0.025
2.388,0.022
2.389,0.019
2.390,0.014
2.391,0.009
2.392,0.006
2.393,0.000
2.394,-0.006
2.395,-0.012
2.396,-0.019
2.397,-0.025
2.398,-0.033
2.399,-0.037
2.400,-0.047
2.401,-0.053
2.402,-0.054
2.403,-0.063
2.404,-0.066
2.405,-0.069
2.406,-0.078
2.407,-0.088
2.408,-0.088
2.409,-0.094
2.410,-0.100
2.411,-0.103
2.412,-0.106
2.413,-0.109
2.414,-0.111
2.415,-0.116
2.416,-0.121
2.417,-0.122
2.418,-0.124
2.419,-0.125
2.420,-0.129
2.421,-0.131
2.422,-0.134
2.423,-0.137
2.424,-0.142
2.425,-0.144
2.426,-0.144
2.427,-0.144
2.428,-0.144
2.429,-0.144
2.430,-0.147
2.431,-0.147
2.432,-0.147
2.433,-0.150
2.434,-0.149
2.435,-0.147
2.436,-0.148
2.437,-0.150
2.438,-0.156
2.439,-0.156
2.440,-0.159
2.441,-0.159
2.442,-0.156
2.443,-0.153
2.444,-0.156
2.445,-0.156
2.446,-0.156
2.447,-0.156
2.448,-0.159
2.449,-0.159
2.450,-0.158
2.451,-0.156
2.452,-0.159
2.453,-0.159
2.454,-0.159
2.455,-0.159
2.456,-0.159
2.457,-0.163
2.458,-0.163
2.459,-0.163
2.460,-0.164
2.461,-0.163
2.462,-0.166
2.463,-0.163
2.464,-0.159
2.465,-0.153
2.466,-0.153
2.467,-0.150
2.468,-0.151
2.469,-0.150
2.470,-0.154
2.471,-0.156
2.472,-0.156
2.473,-0.156
2.474,-0.157
2.475,-0.159
2.476,-0.161
2.477,-0.166
2.478,-0.159
2.479,-0.156
2.480,-0.153
2.481,-0.156
2.482,-0.161
2.483,-0.166
2.484,-0.172
2.485,-0.178
2.486,-0.182
2.487,-0.181
2.488,-0.178
2.489,-0.175
2.490,-0.159
2.491,-0.137
2.492,-0.125
2.493,-0.109
2.494,-0.089
2.495,-0.059
2.496,-0.024
2.497,0.012
2.498,0.050
2.499,0.094
2.500,0.139
2.501,0.194
2.502,0.254
2.503,0.322
2.504,0.400
2.505,0.488
2.506,0.569
2.507,0.656
2.508,0.736
2.509,0.813
2.510,0.896
2.511,0.978
2.512,1.052
2.513,1.122
2.514,1.194
2.515,1.250
2.516,1.301
2.517,1.325
2.518,1.309
2.519,1.256
2.520,1.211
2.521,1.137
2.522,1.044
2.523,0.934
2.524,0.816
2.525,0.684
2.526,0.548
2.527,0.403
2.528,0.274
2.529,0.166
2.530,0.072
2.531,-0.009
2.532,-0.069
2.533,-0.109
2.534,-0.133
2.535,-0.141
2.536,-0.145
2.537,-0.141
2.538,-0.130
2.539,-0.119
2.540,-0.114
2.541,-0.109
2.542,-0.102
2.543,-0.094
2.544,-0.091
2.545,-0.088
2.546,-0.086
2.547,-0.088
2.548,-0.088
2.549,-0.091
2.550,-0.088
2.551,-0.091
2.552,-0.089
2.553,-0.088
2.554,-0.092
2.555,-0.097
2.556,-0.099
2.557,-0.103
2.558,-0.103
2.559,-0.103
2.560,-0.108
2.561,-0.109
2.562,-0.105
2.563,-0.103
2.564,-0.106
2.565,-0.106
2.566,-0.106
2.567,-0.109
2.568,-0.112
2.569,-0.116
2.570,-0.116
2.571,-0.116
2.572,-0.116
2.573,-0.119
2.574,-0.119
2.575,-0.125
2.576,-0.125
2.577,-0.128
2.578,-0.125
2.579,-0.125
2.580,-0.122
2.581,-0.119
2.582,-0.118
2.583,-0.112
2.584,-0.112
2.585,-0.112
2.586,-0.112
2.587,-0.112
2.588,-0.112
2.589,-0.112
2.590,-0.116
2.591,-0.119
2.592,-0.120
2.593,-0.119
2.594,-0.120
2.595,-0.119
2.596,-0.116
2.597,-0.109
2.598,-0.108
2.599,-0.106
2.600,-0.108
2.601,-0.109
2.602,-0.111
2.603,-0.109
2.604,-0.108
2.605,-0.109
2.606,-0.106
2.607,-0.106
2.608,-0.106
2.609,-0.106
2.610,-0.106
2.611,-0.106
2.612,-0.101
2.613,-0.103
2.614,-0.104
2.615,-0.106
2.616,-0.104
2.617,-0.103
2.618,-0.100
2.619,-0.097
2.620,-0.096
2.621,-0.097
2.622,-0.095
2.623,-0.097
2.624,-0.098
2.625,-0.097
2.626,-0.100
2.627,-0.103
2.628,-0.103
2.629,-0.100
2.630,-0.100
2.631,-0.100
2.632,-0.103
2.633,-0.103
2.634,-0.100
2.635,-0.100
2.636,-0.099
2.637,-0.097
2.638,-0.099
2.639,-0.097
2.640,-0.091
2.641,-0.088
2.642,-0.089
2.643,-0.088
2.644,-0.089
2.645,-0.088
2.646,-0.089
2.647,-0.091
2.648,-0.086
2.649,-0.088
2.650,-0.089
2.651,-0.088
2.652,-0.084
2.653,-0.081
2.654,-0.081
2.655,-0.081
2.656,-0.079
2.657,-0.081
2.658,-0.084
2.659,-0.084
2.660,-0.084
2.661,-0.081
2.662,-0.077
2.663,-0.072
2.664,-0.069
2.665,-0.069
2.666,-0.070
2.667,-0.072
2.668,-0.070
2.669,-0.069
2.670,-0.069
2.671,-0.069
2.672,-0.070
2.673,-0.072
2.674,-0.070
2.675,-0.069
2.676,-0.063
2.677,-0.059
2.678,-0.056
2.679,-0.056
2.680,-0.057
2.681,-0.056
2.682,-0.057
2.683,-0.056
2.684,-0.053
2.685,-0.053
2.686,-0.044
2.687,-0.037
2.688,-0.037
2.689,-0.041
2.690,-0.036
2.691,-0.031
2.692,-0.031
2.693,-0.031
2.694,-0.031
2.695,-0.028
2.696,-0.028
2.697,-0.028
2.698,-0.025
2.699,-0.022
2.700,-0.019
2.701,-0.012
2.702,-0.016
2.703,-0.016
2.704,-0.016
2.705,-0.019
2.706,-0.014
2.707,-0.009
2.708,-0.005
2.709,-0.003
2.710,-0.003
2.711,-0.003
2.712,-0.002
2.713,0.003
2.714,0.009
2.715,0.009
2.716,0.014
2.717,0.016
2.718,0.018
2.719,0.019
2.720,0.021
2.721,0.019
2.722,0.019
2.723,0.019
2.724,0.022
2.725,0.028
2.726,0.031
2.727,0.031
2.728,0.036
2.729,0.041
2.730,0.039
2.731,0.041
2.732,0.043
2.733,0.041
2.734,0.045
2.735,0.047
2.736,0.047
2.737,0.047
2.738,0.053
2.739,0.056
2.740,0.058
2.741,0.059
2.742,0.059
2.743,0.063
2.744,0.066
2.745,0.066
2.746,0.068
2.747,0.066
2.748,0.067
2.749,0.072
2.750,0.078
2.751,0.081
2.752,0.086
2.753,0.084
2.754,0.084
2.755,0.084
2.756,0.084
2.757,0.084
2.758,0.089
2.759,0.088
2.760,0.089
2.761,0.088
2.762,0.091
2.763,0.091
2.764,0.094
2.765,0.094
2.766,0.094
2.767,0.097
2.768,0.096
2.769,0.097
2.770,0.096
2.771,0.094
2.772,0.094
2.773,0.097
2.774,0.100
2.775,0.100
2.776,0.100
2.777,0.100
2.778,0.099
2.779,0.100
2.780,0.101
2.781,0.103
2.782,0.103
2.783,0.103
2.784,0.111
2.785,0.116
2.786,0.114
2.787,0.112
2.788,0.111
2.789,0.112
2.790,0.116
2.791,0.119
2.792,0.121
2.793,0.119
2.794,0.122
2.795,0.128
2.796,0.125
2.797,0.122
2.798,0.124
2.799,0.122
2.800,0.122
2.801,0.119
2.802,0.116
2.803,0.116
2.804,0.119
2.805,0.119
2.806,0.119
2.807,0.119
2.808,0.119
2.809,0.119
2.810,0.119
2.811,0.119
2.812,0.114
2.813,0.112
2.814,0.108
2.815,0.109
2.816,0.108
2.817,0.109
2.818,0.106
2.819,0.106
2.820,0.106
2.821,0.100
2.822,0.097
2.823,0.091
2.824,0.089
2.825,0.088
2.826,0.088
2.827,0.088
2.828,0.086
2.829,0.088
2.830,0.082
2.831,0.081
2.832,0.074
2.833,0.072
2.834,0.064
2.835,0.053
2.836,0.047
2.837,0.047
2.838,0.047
2.839,0.047
2.840,0.039
2.841,0.031
2.842,0.027
2.843,0.022
2.844,0.017
2.845,0.016
2.846,0.012
2.847,0.009
2.848,0.008
2.849,0.006
2.850,0.000
2.851,-0.003
2.852,-0.008
2.853,-0.009
2.854,-0.008
2.855,-0.012
2.856,-0.019
2.857,-0.025
2.858,-0.027
2.859,-0.031
2.860,-0.037
2.861,-0.041
2.862,-0.048
2.863,-0.050
2.864,-0.049
2.865,-0.050
2.866,-0.050
2.867,-0.050
2.868,-0.053
2.869,-0.059
2.870,-0.061
2.871,-0.059
2.872,-0.059
2.873,-0.056
2.874,-0.056
2.875,-0.059
2.876,-0.061
2.877,-0.066
2.878,-0.067
2.879,-0.069
2.880,-0.067
2.881,-0.072
2.882,-0.072
2.883,-0.072
2.884,-0.073
2.885,-0.078
2.886,-0.081
2.887,-0.081
2.888,-0.086
2.889,-0.084
2.890,-0.084
2.891,-0.081
2.892,-0.080
2.893,-0.081
2.894,-0.083
2.895,-0.081
2.896,-0.077
2.897,-0.075
2.898,-0.081
2.899,-0.081
2.900,-0.084
2.901,-0.084
2.902,-0.086
2.903,-0.088
2.904,-0.086
2.905,-0.088
2.906,-0.086
2.907,-0.088
2.908,-0.086
2.909,-0.088
2.910,-0.091
2.911,-0.094
2.912,-0.089
2.913,-0.091
2.914,-0.088
2.915,-0.088
2.916,-0.089
2.917,-0.088
2.918,-0.089
2.919,-0.088
2.920,-0.089
2.921,-0.088
2.922,-0.089
2.923,-0.091
2.924,-0.089
2.925,-0.091
2.926,-0.092
2.927,-0.091
2.928,-0.094
2.929,-0.091
2.930,-0.094
2.931,-0.094
2.932,-0.092
2.933,-0.094
2.934,-0.092
2.935,-0.094
2.936,-0.092
2.937,-0.094
2.938,-0.094
2.939,-0.091
2.940,-0.094
2.941,-0.091
2.942,-0.094
2.943,-0.094
2.944,-0.094
2.945,-0.094
2.946,-0.097
2.947,-0.100
2.948,-0.104
2.949,-0.103
2.950,-0.103
2.951,-0.103
2.952,-0.102
2.953,-0.097
2.954,-0.095
2.955,-0.097
2.956,-0.098
2.957,-0.100
2.958,-0.103
2.959,-0.103
2.960,-0.102
2.961,-0.100
2.962,-0.097
2.963,-0.100
2.964,-0.101
2.965,-0.103
2.966,-0.102
2.967,-0.103
2.968,-0.103
2.969,-0.103
2.970,-0.103
2.971,-0.100
2.972,-0.102
2.973,-0.103
2.974,-0.102
2.975,-0.100
2.976,-0.099
2.977,-0.100
2.978,-0.098
2.979,-0.100
2.980,-0.100
2.981,-0.100
2.982,-0.100
2.983,-0.100
2.984,-0.099
2.985,-0.097
2.986,-0.098
2.987,-0.103
2.988,-0.106
2.989,-0.106
2.990,-0.106
2.991,-0.106
2.992,-0.105
2.993,-0.103
2.994,-0.108
2.995,-0.109
2.996,-0.111
2.997,-0.112
2.998,-0.112
2.999,-0.112
3.000,-0.111
3.001,-0.109
3.002,-0.111
3.003,-0.112
3.004,-0.112
3.005,-0.112
3.006,-0.109
3.007,-0.109
3.008,-0.109
3.009,-0.109
3.010,-0.108
3.011,-0.103
3.012,-0.103
3.013,-0.103
3.014,-0.103
3.015,-0.103
3.016,-0.106
3.017,-0.106
3.018,-0.106
3.019,-0.106
3.020,-0.103
3.021,-0.106
3.022,-0.108
3.023,-0.109
3.024,-0.109
3.025,-0.109
3.026,-0.109
3.027,-0.109
3.028,-0.112
3.029,-0.112
3.030,-0.111
3.031,-0.112
3.032,-0.112
3.033,-0.109
3.034,-0.109
3.035,-0.109
3.036,-0.106
3.037,-0.106
3.038,-0.108
3.039,-0.109
3.040,-0.112
3.041,-0.112
3.042,-0.109
3.043,-0.109
3.044,-0.108
3.045,-0.106
3.046,-0.099
3.047,-0.094
3.048,-0.091
3.049,-0.084
3.050,-0.081
3.051,-0.075
3.052,-0.069
3.053,-0.063
3.054,-0.057
3.055,-0.053
3.056,-0.046
3.057,-0.037
3.058,-0.034
3.059,-0.034
3.060,-0.033
3.061,-0.034
3.062,-0.034
3.063,-0.028
3.064,-0.024
3.065,-0.016
3.066,-0.019
3.067,-0.019
3.068,-0.019
3.069,-0.022
3.070,-0.020
3.071,-0.019
3.072,-0.019
3.073,-0.019
3.074,-0.017
3.075,-0.019
3.076,-0.020
3.077,-0.016
3.078,-0.008
3.079,0.003
3.080,0.017
3.081,0.028
3.082,0.029
3.083,0.037
3.084,0.041
3.085,0.047
3.086,0.046
3.087,0.047
3.088,0.047
3.089,0.047
3.090,0.050
3.091,0.050
3.092,0.046
3.093,0.047
3.094,0.056
3.095,0.056
3.096,0.051
3.097,0.050
3.098,0.050
3.099,0.047
3.100,0.039
3.101,0.034
3.102,0.026
3.103,0.025
3.104,0.021
3.105,0.016
3.106,0.012
3.107,0.006
3.108,0.004
3.109,0.003
3.110,0.000
3.111,-0.003
3.112,-0.006
3.113,-0.009
3.114,-0.016
3.115,-0.022
3.116,-0.025
3.117,-0.031
3.118,-0.037
3.119,-0.044
3.120,-0.048
3.121,-0.050
3.122,-0.056
3.123,-0.063
3.124,-0.069
3.125,-0.075
3.126,-0.084
3.127,-0.088
3.128,-0.095
3.129,-0.103
3.130,-0.106
3.131,-0.109
3.132,-0.116
3.133,-0.119
3.134,-0.121
3.135,-0.125
3.136,-0.125
3.137,-0.125
3.138,-0.129
3.139,-0.134
3.140,-0.136
3.141,-0.141
3.142,-0.145
3.143,-0.150
3.144,-0.151
3.145,-0.153
3.146,-0.153
3.147,-0.153
3.148,-0.152
3.149,-0.153
3.150,-0.152
3.151,-0.150
3.152,-0.153
3.153,-0.153
3.154,-0.154
3.155,-0.156
3.156,-0.157
3.157,-0.163
3.158,-0.159
3.159,-0.163
3.160,-0.163
3.161,-0.163
3.162,-0.161
3.163,-0.163
3.164,-0.159
3.165,-0.156
3.166,-0.157
3.167,-0.159
3.168,-0.153
3.169,-0.150
3.170,-0.150
3.171,-0.153
3.172,-0.156
3.173,-0.159
3.174,-0.159
3.175,-0.159
3.176,-0.163
3.177,-0.163
3.178,-0.159
3.179,-0.156
3.180,-0.154
3.181,-0.159
3.182,-0.157
3.183,-0.159
3.184,-0.155
3.185,-0.156
3.186,-0.153
3.187,-0.150
3.188,-0.151
3.189,-0.156
3.190,-0.154
3.191,-0.156
3.192,-0.156
3.193,-0.156
3.194,-0.155
3.195,-0.153
3.196,-0.157
3.197,-0.156
3.198,-0.155
3.199,-0.153
3.200,-0.156
3.201,-0.156
3.202,-0.159
3.203,-0.166
3.204,-0.171
3.205,-0.172
3.206,-0.173
3.207,-0.172
3.208,-0.164
3.209,-0.150
3.210,-0.134
3.211,-0.122
3.212,-0.109
3.213,-0.097
3.214,-0.070
3.215,-0.037
3.216,-0.008
3.217,0.025
3.218,0.069
3.219,0.116
3.220,0.169
3.221,0.225
3.222,0.292
3.223,0.369
3.224,0.453
3.225,0.537
3.226,0.628
3.227,0.713
3.228,0.791
3.229,0.872
3.230,0.958
3.231,1.037
3.232,1.119
3.233,1.191
3.234,1.254
3.235,1.316
3.236,1.345
3.237,1.347
3.238,1.313
3.239,1.275
3.240,1.206
3.241,1.122
3.242,1.016
3.243,0.903
3.244,0.778
3.245,0.644
3.246,0.489
3.247,0.353
3.248,0.237
3.249,0.131
3.250,0.034
3.251,-0.037
3.252,-0.086
3.253,-0.119
3.254,-0.133
3.255,-0.137
3.256,-0.131
3.257,-0.125
3.258,-0.116
3.259,-0.112
3.260,-0.109
3.261,-0.106
3.262,-0.102
3.263,-0.097
3.264,-0.089
3.265,-0.081
3.266,-0.086
3.267,-0.088
3.268,-0.088
3.269,-0.084
3.270,-0.084
3.271,-0.081
3.272,-0.080
3.273,-0.081
3.274,-0.083
3.275,-0.084
3.276,-0.091
3.277,-0.094
3.278,-0.098
3.279,-0.103
3.280,-0.104
3.281,-0.103
3.282,-0.103
3.283,-0.106
3.284,-0.105
3.285,-0.103
3.286,-0.106
3.287,-0.106
3.288,-0.105
3.289,-0.106
3.290,-0.112
3.291,-0.116
3.292,-0.119
3.293,-0.119
3.294,-0.125
3.295,-0.122
3.296,-0.121
3.297,-0.116
3.298,-0.116
3.299,-0.112
3.300,-0.106
3.301,-0.106
3.302,-0.106
3.303,-0.106
3.304,-0.106
3.305,-0.106
3.306,-0.108
3.307,-0.109
3.308,-0.109
3.309,-0.109
3.310,-0.108
3.311,-0.106
3.312,-0.103
3.313,-0.103
3.314,-0.103
3.315,-0.106
3.316,-0.103
3.317,-0.103
3.318,-0.103
3.319,-0.103
3.320,-0.100
3.321,-0.097
3.322,-0.094
3.323,-0.094
3.324,-0.101
3.325,-0.103
3.326,-0.102
3.327,-0.100
3.328,-0.097
3.329,-0.094
3.330,-0.097
3.331,-0.094
3.332,-0.094
3.333,-0.094
3.334,-0.095
3.335,-0.094
3.336,-0.091
3.337,-0.091
3.338,-0.091
3.339,-0.091
3.340,-0.094
3.341,-0.091
3.342,-0.088
3.343,-0.084
3.344,-0.080
3.345,-0.081
3.346,-0.084
3.347,-0.084
3.348,-0.086
3.349,-0.088
3.350,-0.086
3.351,-0.088
3.352,-0.084
3.353,-0.084
3.354,-0.086
3.355,-0.084
3.356,-0.078
3.357,-0.075
3.358,-0.076
3.359,-0.075
3.360,-0.076
3.361,-0.078
3.362,-0.075
3.363,-0.075
3.364,-0.072
3.365,-0.072
3.366,-0.072
3.367,-0.069
3.368,-0.071
3.369,-0.069
3.370,-0.066
3.371,-0.066
3.372,-0.067
3.373,-0.069
3.374,-0.070
3.375,-0.069
3.376,-0.066
3.377,-0.063
3.378,-0.058
3.379,-0.056
3.380,-0.054
3.381,-0.056
3.382,-0.059
3.383,-0.059
3.384,-0.058
3.385,-0.056
3.386,-0.056
3.387,-0.053
3.388,-0.049
3.389,-0.047
3.390,-0.047
3.391,-0.047
3.392,-0.050
3.393,-0.050
3.394,-0.047
3.395,-0.044
3.396,-0.044
3.397,-0.041
3.398,-0.041
3.399,-0.041
3.400,-0.034
3.401,-0.031
3.402,-0.029
3.403,-0.028
3.404,-0.025
3.405,-0.019
3.406,-0.020
3.407,-0.019
3.408,-0.019
3.409,-0.016
3.410,-0.014
3.411,-0.012
3.412,-0.011
3.413,-0.012
3.414,-0.011
3.415,-0.012
3.416,-0.011
3.417,-0.009
3.418,-0.011
3.419,-0.009
3.420,-0.002
3.421,0.000
3.422,0.004
3.423,0.006
3.424,0.003
3.425,0.006
3.426,0.008
3.427,0.009
3.428,0.011
3.429,0.016
3.430,0.019
3.431,0.019
3.432,0.021
3.433,0.025
3.434,0.024
3.435,0.025
3.436,0.025
3.437,0.028
3.438,0.030
3.439,0.031
3.440,0.033
3.441,0.037
3.442,0.042
3.443,0.044
3.444,0.048
3.445,0.053
3.446,0.053
3.447,0.056
3.448,0.059
3.449,0.059
3.450,0.064
3.451,0.069
3.452,0.068
3.453,0.069
3.454,0.070
3.455,0.075
3.456,0.075
3.457,0.075
3.458,0.078
3.459,0.084
3.460,0.084
3.461,0.081
3.462,0.084
3.463,0.088
3.464,0.086
3.465,0.088
3.466,0.092
3.467,0.097
3.468,0.100
3.469,0.103
3.470,0.106
3.471,0.112
3.472,0.108
3.473,0.109
3.474,0.111
3.475,0.112
3.476,0.114
3.477,0.116
3.478,0.116
3.479,0.122
3.480,0.121
3.481,0.122
3.482,0.122
3.483,0.125
3.484,0.124
3.485,0.122
3.486,0.128
3.487,0.131
3.488,0.134
3.489,0.134
3.490,0.134
3.491,0.134
3.492,0.137
3.493,0.141
3.494,0.141
3.495,0.141
3.496,0.144
3.497,0.147
3.498,0.149
3.499,0.147
3.500,0.146
3.501,0.147
3.502,0.150
3.503,0.153
3.504,0.153
3.505,0.153
3.506,0.153
3.507,0.153
3.508,0.156
3.509,0.156
3.510,0.156
3.511,0.159
3.512,0.158
3.513,0.156
3.514,0.161
3.515,0.163
3.516,0.163
3.517,0.166
3.518,0.166
3.519,0.166
3.520,0.164
3.521,0.166
3.522,0.170
3.523,0.172
3.524,0.168
3.525,0.166
3.526,0.164
3.527,0.163
3.528,0.163
3.529,0.163
3.530,0.163
3.531,0.159
3.532,0.161
3.533,0.156
3.534,0.156
3.535,0.156
3.536,0.161
3.537,0.156
3.538,0.153
3.539,0.153
3.540,0.146
3.541,0.144
3.542,0.141
3.543,0.137
3.544,0.133
3.545,0.128
3.546,0.126
3.547,0.125
3.548,0.128
3.549,0.125
3.550,0.122
3.551,0.116
3.552,0.116
3.553,0.112
3.554,0.106
3.555,0.100
3.556,0.096
3.557,0.088
3.558,0.088
3.559,0.084
3.560,0.078
3.561,0.075
3.562,0.075
3.563,0.072
3.564,0.069
3.565,0.066
3.566,0.064
3.567,0.063
3.568,0.058
3.569,0.050
3.570,0.044
3.571,0.034
3.572,0.033
3.573,0.034
3.574,0.031
3.575,0.031
3.576,0.027
3.577,0.022
3.578,0.017
3.579,0.016
3.580,0.016
3.581,0.009
3.582,0.005
3.583,0.000
3.584,-0.003
3.585,-0.006
3.586,-0.009
3.587,-0.009
3.588,-0.005
3.589,0.000
3.590,0.000
3.591,-0.003
3.592,-0.004
3.593,-0.006
3.594,-0.008
3.595,-0.006
3.596,-0.012
3.597,-0.016
3.598,-0.019
3.599,-0.022
3.600,-0.029
3.601,-0.031
3.602,-0.030
3.603,-0.028
3.604,-0.031
3.605,-0.031
3.606,-0.027
3.607,-0.031
3.608,-0.036
3.609,-0.041
3.610,-0.039
3.611,-0.041
3.612,-0.043
3.613,-0.044
3.614,-0.044
3.615,-0.041
3.616,-0.039
3.617,-0.041
3.618,-0.037
3.619,-0.041
3.620,-0.037
3.621,-0.034
3.622,-0.034
3.623,-0.034
3.624,-0.037
3.625,-0.037
3.626,-0.044
3.627,-0.044
3.628,-0.039
3.629,-0.034
3.630,-0.036
3.631,-0.034
3.632,-0.036
3.633,-0.034
3.634,-0.037
3.635,-0.037
3.636,-0.036
3.637,-0.037
3.638,-0.036
3.639,-0.041
3.640,-0.039
3.641,-0.041
3.642,-0.045
3.643,-0.044
3.644,-0.041
3.645,-0.037
3.646,-0.033
3.647,-0.034
3.648,-0.031
3.649,-0.034
3.650,-0.033
3.651,-0.031
3.652,-0.036
3.653,-0.034
3.654,-0.034
3.655,-0.034
3.656,-0.037
3.657,-0.037
3.658,-0.034
3.659,-0.037
3.660,-0.037
3.661,-0.044
3.662,-0.045
3.663,-0.047
3.664,-0.047
3.665,-0.047
3.666,-0.047
3.667,-0.050
3.668,-0.048
3.669,-0.050
3.670,-0.047
3.671,-0.047
3.672,-0.048
3.673,-0.047
3.674,-0.047
3.675,-0.047
3.676,-0.046
3.677,-0.047
3.678,-0.047
3.679,-0.047
3.680,-0.048
3.681,-0.047
3.682,-0.051
3.683,-0.053
3.684,-0.052
3.685,-0.050
3.686,-0.053
3.687,-0.053
3.688,-0.053
3.689,-0.053
3.690,-0.050
3.691,-0.053
3.692,-0.056
3.693,-0.056
3.694,-0.055
3.695,-0.053
3.696,-0.056
3.697,-0.053
3.698,-0.053
3.699,-0.053
3.700,-0.052
3.701,-0.050
3.702,-0.050
3.703,-0.050
3.704,-0.049
3.705,-0.047
3.706,-0.049
3.707,-0.050
3.708,-0.050
3.709,-0.050
3.710,-0.051
3.711,-0.053
3.712,-0.056
3.713,-0.063
3.714,-0.064
3.715,-0.066
3.716,-0.064
3.717,-0.063
3.718,-0.063
3.719,-0.063
3.720,-0.063
3.721,-0.063
3.722,-0.061
3.723,-0.063
3.724,-0.061
3.725,-0.063
3.726,-0.059
3.727,-0.056
3.728,-0.059
3.729,-0.059
3.730,-0.059
3.731,-0.059
3.732,-0.059
3.733,-0.059
3.734,-0.063
3.735,-0.066
3.736,-0.066
3.737,-0.069
3.738,-0.069
3.739,-0.069
3.740,-0.070
3.741,-0.069
3.742,-0.069
3.743,-0.069
3.744,-0.069
3.745,-0.069
3.746,-0.072
3.747,-0.072
3.748,-0.072
3.749,-0.072
3.750,-0.069
3.751,-0.072
3.752,-0.072
3.753,-0.072
3.754,-0.072
3.755,-0.072
3.756,-0.071
3.757,-0.069
3.758,-0.072
3.759,-0.072
3.760,-0.071
3.761,-0.072
3.762,-0.075
3.763,-0.075
3.764,-0.075
3.765,-0.075
3.766,-0.075
3.767,-0.078
3.768,-0.079
3.769,-0.081
3.770,-0.080
3.771,-0.075
3.772,-0.072
3.773,-0.072
3.774,-0.067
3.775,-0.063
3.776,-0.057
3.777,-0.056
3.778,-0.057
3.779,-0.056
3.780,-0.052
3.781,-0.044
3.782,-0.036
3.783,-0.028
3.784,-0.018
3.785,-0.006
3.786,-0.002
3.787,0.003
3.788,0.005
3.789,0.003
3.790,0.005
3.791,0.003
3.792,0.000
3.793,0.003
3.794,0.006
3.795,0.012
3.796,0.009
3.797,0.009
3.798,0.014
3.799,0.016
3.800,0.020
3.801,0.025
3.802,0.025
3.803,0.025
3.804,0.028
3.805,0.028
3.806,0.025
3.807,0.028
3.808,0.034
3.809,0.044
3.810,0.049
3.811,0.050
3.812,0.050
3.813,0.056
3.814,0.061
3.815,0.069
3.816,0.068
3.817,0.069
3.818,0.069
3.819,0.069
3.820,0.072
3.821,0.072
3.822,0.068
3.823,0.069
3.824,0.073
3.825,0.069
3.826,0.067
3.827,0.069
3.828,0.070
3.829,0.069
3.830,0.059
3.831,0.053
3.832,0.045
3.833,0.044
3.834,0.037
3.835,0.031
3.836,0.033
3.837,0.031
3.838,0.029
3.839,0.028
3.840,0.025
3.841,0.022
3.842,0.019
3.843,0.016
3.844,0.012
3.845,0.009
3.846,0.000
3.847,-0.012
3.848,-0.022
3.849,-0.031
3.850,-0.039
3.851,-0.044
3.852,-0.049
3.853,-0.053
3.854,-0.058
3.855,-0.063
3.856,-0.067
3.857,-0.066
3.858,-0.072
3.859,-0.078
3.860,-0.082
3.861,-0.088
3.862,-0.089
3.863,-0.088
3.864,-0.088
3.865,-0.091
3.866,-0.095
3.867,-0.100
3.868,-0.102
3.869,-0.103
3.870,-0.103
3.871,-0.106
3.872,-0.112
3.873,-0.119
3.874,-0.120
3.875,-0.122
3.876,-0.123
3.877,-0.125
3.878,-0.124
3.879,-0.125
3.880,-0.125
3.881,-0.125
3.882,-0.127
3.883,-0.125
3.884,-0.125
3.885,-0.125
3.886,-0.125
3.887,-0.128
3.888,-0.124
3.889,-0.125
3.890,-0.125
3.891,-0.125
3.892,-0.125
3.893,-0.128
3.894,-0.131
3.895,-0.134
3.896,-0.136
3.897,-0.137
3.898,-0.134
3.899,-0.134
3.900,-0.133
3.901,-0.134
3.902,-0.133
3.903,-0.131
3.904,-0.130
3.905,-0.128
3.906,-0.133
3.907,-0.134
3.908,-0.134
3.909,-0.134
3.910,-0.131
3.911,-0.134
3.912,-0.133
3.913,-0.134
3.914,-0.131
3.915,-0.134
3.916,-0.133
3.917,-0.131
3.918,-0.128
3.919,-0.128
3.920,-0.126
3.921,-0.128
3.922,-0.128
3.923,-0.128
3.924,-0.128
3.925,-0.128
3.926,-0.127
3.927,-0.119
3.928,-0.118
3.929,-0.116
3.930,-0.126
3.931,-0.134
3.932,-0.141
3.933,-0.150
3.934,-0.153
3.935,-0.153
3.936,-0.153
3.937,-0.150
3.938,-0.143
3.939,-0.128
3.940,-0.109
3.941,-0.094
3.942,-0.072
3.943,-0.050
3.944,-0.023
3.945,0.009
3.946,0.041
3.947,0.075
3.948,0.116
3.949,0.159
3.950,0.216
3.951,0.275
3.952,0.337
3.953,0.409
3.954,0.494
3.955,0.578
3.956,0.675
3.957,0.766
3.958,0.850
3.959,0.937
3.960,1.025
3.961,1.106
3.962,1.182
3.963,1.250
3.964,1.297
3.965,1.341
3.966,1.362
3.967,1.356
3.968,1.317
3.969,1.275
3.970,1.197
3.971,1.103
3.972,0.997
3.973,0.884
3.974,0.759
3.975,0.625
3.976,0.477
3.977,0.347
3.978,0.230
3.979,0.122
3.980,0.033
3.981,-0.031
3.982,-0.076
3.983,-0.106
3.984,-0.117
3.985,-0.119
3.986,-0.109
3.987,-0.100
3.988,-0.089
3.989,-0.084
3.990,-0.080
3.991,-0.075
3.992,-0.069
3.993,-0.063
3.994,-0.059
3.995,-0.056
3.996,-0.057
3.997,-0.056
3.998,-0.055
3.999,-0.050
4.000,-0.052
4.001,-0.050
4.002,-0.051
4.003,-0.056
4.004,-0.061
4.005,-0.066
4.006,-0.071
4.007,-0.072
4.008,-0.076
4.009,-0.081
4.010,-0.082
4.011,-0.081
4.012,-0.084
4.013,-0.091
4.014,-0.091
4.015,-0.091
4.016,-0.094
4.017,-0.094
4.018,-0.094
4.019,-0.097
4.020,-0.099
4.021,-0.097
4.022,-0.096
4.023,-0.091
4.024,-0.097
4.025,-0.094
4.026,-0.100
4.027,-0.103
4.028,-0.103
4.029,-0.100
4.030,-0.092
4.031,-0.091
4.032,-0.091
4.033,-0.091
4.034,-0.094
4.035,-0.097
4.036,-0.096
4.037,-0.094
4.038,-0.094
4.039,-0.094
4.040,-0.094
4.041,-0.094
4.042,-0.094
4.043,-0.097
4.044,-0.092
4.045,-0.091
4.046,-0.088
4.047,-0.088
4.048,-0.089
4.049,-0.091
4.050,-0.092
4.051,-0.094
4.052,-0.091
4.053,-0.091
4.054,-0.094
4.055,-0.091
4.056,-0.089
4.057,-0.088
4.058,-0.088
4.059,-0.088
4.060,-0.089
4.061,-0.084
4.062,-0.083
4.063,-0.081
4.064,-0.077
4.065,-0.069
4.066,-0.067
4.067,-0.069
4.068,-0.069
4.069,-0.069
4.070,-0.073
4.071,-0.072
4.072,-0.073
4.073,-0.075
4.074,-0.071
4.075,-0.072
4.076,-0.075
4.077,-0.075
4.078,-0.072
4.079,-0.069
4.080,-0.066
4.081,-0.066
4.082,-0.064
4.083,-0.066
4.084,-0.069
4.085,-0.069
4.086,-0.072
4.087,-0.078
4.088,-0.078
4.089,-0.075
4.090,-0.074
4.091,-0.072
4.092,-0.069
4.093,-0.069
4.094,-0.064
4.095,-0.063
4.096,-0.061
4.097,-0.056
4.098,-0.059
4.099,-0.059
4.100,-0.059
4.101,-0.063
4.102,-0.059
4.103,-0.056
4.104,-0.059
4.105,-0.059
4.106,-0.061
4.107,-0.063
4.108,-0.061
4.109,-0.063
4.110,-0.058
4.111,-0.056
4.112,-0.057
4.113,-0.056
4.114,-0.056
4.115,-0.056
4.116,-0.053
4.117,-0.047
4.118,-0.044
4.119,-0.044
4.120,-0.045
4.121,-0.047
4.122,-0.046
4.123,-0.041
4.124,-0.039
4.125,-0.037
4.126,-0.037
4.127,-0.034
4.128,-0.034
4.129,-0.034
4.130,-0.031
4.131,-0.031
4.132,-0.027
4.133,-0.022
4.134,-0.021
4.135,-0.016
4.136,-0.017
4.137,-0.016
4.138,-0.019
4.139,-0.019
4.140,-0.011
4.141,-0.003
4.142,0.001
4.143,0.003
4.144,0.005
4.145,0.003
4.146,0.003
4.147,0.003
4.148,0.002
4.149,0.003
4.150,0.008
4.151,0.006
4.152,0.011
4.153,0.012
4.154,0.008
4.155,0.009
4.156,0.016
4.157,0.022
4.158,0.021
4.159,0.022
4.160,0.024
4.161,0.022
4.162,0.025
4.163,0.031
4.164,0.034
4.165,0.041
4.166,0.039
4.167,0.041
4.168,0.043
4.169,0.044
4.170,0.043
4.171,0.044
4.172,0.048
4.173,0.050
4.174,0.052
4.175,0.053
4.176,0.057
4.177,0.066
4.178,0.069
4.179,0.069
4.180,0.071
4.181,0.072
4.182,0.071
4.183,0.072
4.184,0.073
4.185,0.078
4.186,0.080
4.187,0.081
4.188,0.082
4.189,0.088
4.190,0.089
4.191,0.088
4.192,0.088
4.193,0.088
4.194,0.091
4.195,0.097
4.196,0.098
4.197,0.100
4.198,0.102
4.199,0.103
4.200,0.103
4.201,0.106
4.202,0.102
4.203,0.103
4.204,0.106
4.205,0.109
4.206,0.116
4.207,0.122
4.208,0.120
4.209,0.125
4.210,0.124
4.211,0.125
4.212,0.122
4.213,0.122
4.214,0.123
4.215,0.125
4.216,0.128
4.217,0.128
4.218,0.131
4.219,0.131
4.220,0.133
4.221,0.134
4.222,0.136
4.223,0.137
4.224,0.137
4.225,0.137
4.226,0.137
4.227,0.137
4.228,0.141
4.229,0.141
4.230,0.139
4.231,0.141
4.232,0.147
4.233,0.153
4.234,0.154
4.235,0.156
4.236,0.155
4.237,0.153
4.238,0.155
4.239,0.153
4.240,0.152
4.241,0.153
4.242,0.154
4.243,0.156
4.244,0.159
4.245,0.159
4.246,0.158
4.247,0.159
4.248,0.159
4.249,0.159
4.250,0.156
4.251,0.156
4.252,0.161
4.253,0.163
4.254,0.159
4.255,0.159
4.256,0.161
4.257,0.163
4.258,0.161
4.259,0.159
4.260,0.161
4.261,0.159
4.262,0.159
4.263,0.153
4.264,0.152
4.265,0.150
4.266,0.156
4.267,0.153
4.268,0.144
4.269,0.137
4.270,0.133
4.271,0.134
4.272,0.134
4.273,0.134
4.274,0.130
4.275,0.125
4.276,0.122
4.277,0.119
4.278,0.116
4.279,0.106
4.280,0.106
4.281,0.103
4.282,0.104
4.283,0.103
4.284,0.096
4.285,0.088
4.286,0.084
4.287,0.078
4.288,0.075
4.289,0.069
4.290,0.064
4.291,0.063
4.292,0.059
4.293,0.053
4.294,0.050
4.295,0.047
4.296,0.043
4.297,0.037
4.298,0.034
4.299,0.028
4.300,0.028
4.301,0.025
4.302,0.021
4.303,0.019
4.304,0.011
4.305,0.006
4.306,0.002
4.307,-0.003
4.308,-0.009
4.309,-0.012
4.310,-0.011
4.311,-0.016
4.312,-0.014
4.313,-0.012
4.314,-0.017
4.315,-0.022
4.316,-0.024
4.317,-0.022
4.318,-0.025
4.319,-0.028
4.320,-0.028
4.321,-0.031
4.322,-0.033
4.323,-0.034
4.324,-0.036
4.325,-0.034
4.326,-0.034
4.327,-0.031
4.328,-0.033
4.329,-0.034
4.330,-0.042
4.331,-0.044
4.332,-0.043
4.333,-0.041
4.334,-0.047
4.335,-0.050
4.336,-0.046
4.337,-0.050
4.338,-0.050
4.339,-0.050
4.340,-0.044
4.341,-0.041
4.342,-0.043
4.343,-0.044
4.344,-0.045
4.345,-0.044
4.346,-0.044
4.347,-0.047
4.348,-0.044
4.349,-0.047
4.350,-0.047
4.351,-0.047
4.352,-0.047
4.353,-0.047
4.354,-0.053
4.355,-0.056
4.356,-0.059
4.357,-0.056
4.358,-0.057
4.359,-0.059
4.360,-0.059
4.361,-0.056
4.362,-0.058
4.363,-0.056
4.364,-0.056
4.365,-0.053
4.366,-0.050
4.367,-0.050
4.368,-0.047
4.369,-0.050
4.370,-0.051
4.371,-0.056
4.372,-0.061
4.373,-0.059
4.374,-0.059
4.375,-0.059
4.376,-0.055
4.377,-0.056
4.378,-0.053
4.379,-0.056
4.380,-0.059
4.381,-0.063
4.382,-0.066
4.383,-0.063
4.384,-0.061
4.385,-0.059
4.386,-0.063
4.387,-0.063
4.388,-0.058
4.389,-0.059
4.390,-0.057
4.391,-0.063
4.392,-0.061
4.393,-0.059
4.394,-0.061
4.395,-0.063
4.396,-0.061
4.397,-0.063
4.398,-0.061
4.399,-0.063
4.400,-0.061
4.401,-0.063
4.402,-0.061
4.403,-0.056
4.404,-0.059
4.405,-0.063
4.406,-0.064
4.407,-0.069
4.408,-0.069
4.409,-0.069
4.410,-0.070
4.411,-0.069
4.412,-0.072
4.413,-0.072
4.414,-0.071
4.415,-0.069
4.416,-0.069
4.417,-0.066
4.418,-0.067
4.419,-0.069
4.420,-0.064
4.421,-0.066
4.422,-0.069
4.423,-0.069
4.424,-0.067
4.425,-0.066
4.426,-0.070
4.427,-0.069
4.428,-0.069
4.429,-0.069
4.430,-0.070
4.431,-0.072
4.432,-0.073
4.433,-0.075
4.434,-0.074
4.435,-0.072
4.436,-0.074
4.437,-0.075
4.438,-0.075
4.439,-0.075
4.440,-0.078
4.441,-0.081
4.442,-0.082
4.443,-0.088
4.444,-0.089
4.445,-0.091
4.446,-0.091
4.447,-0.091
4.448,-0.091
4.449,-0.091
4.450,-0.091
4.451,-0.091
4.452,-0.089
4.453,-0.091
4.454,-0.088
4.455,-0.088
4.456,-0.088
4.457,-0.088
4.458,-0.091
4.459,-0.091
4.460,-0.091
4.461,-0.091
4.462,-0.091
4.463,-0.091
4.464,-0.089
4.465,-0.088
4.466,-0.091
4.467,-0.091
4.468,-0.091
4.469,-0.091
4.470,-0.086
4.471,-0.088
4.472,-0.091
4.473,-0.091
4.474,-0.094
4.475,-0.097
4.476,-0.097
4.477,-0.097
4.478,-0.096
4.479,-0.094
4.480,-0.097
4.481,-0.097
4.482,-0.098
4.483,-0.100
4.484,-0.098
4.485,-0.100
4.486,-0.101
4.487,-0.103
4.488,-0.103
4.489,-0.106
4.490,-0.105
4.491,-0.103
4.492,-0.103
4.493,-0.100
4.494,-0.102
4.495,-0.100
4.496,-0.100
4.497,-0.100
4.498,-0.101
4.499,-0.103
4.500,-0.103
4.501,-0.106
4.502,-0.108
4.503,-0.109
4.504,-0.111
4.505,-0.109
4.506,-0.106
4.507,-0.106
4.508,-0.109
4.509,-0.109
4.510,-0.106
4.511,-0.103
4.512,-0.103
4.513,-0.103
4.514,-0.103
4.515,-0.103
4.516,-0.100
4.517,-0.094
4.518,-0.091
4.519,-0.084
4.520,-0.080
4.521,-0.075
4.522,-0.067
4.523,-0.063
4.524,-0.059
4.525,-0.056
4.526,-0.049
4.527,-0.041
4.528,-0.036
4.529,-0.034
4.530,-0.031
4.531,-0.028
4.532,-0.025
4.533,-0.019
4.534,-0.020
4.535,-0.022
4.536,-0.016
4.537,-0.016
4.538,-0.012
4.539,-0.016
4.540,-0.014
4.541,-0.009
4.542,-0.012
4.543,-0.012
4.544,-0.011
4.545,-0.012
4.546,-0.011
4.547,-0.006
4.548,-0.005
4.549,0.000
4.550,0.011
4.551,0.019
4.552,0.025
4.553,0.028
4.554,0.034
4.555,0.037
4.556,0.041
4.557,0.041
4.558,0.043
4.559,0.037
4.560,0.039
4.561,0.037
4.562,0.037
4.563,0.041
4.564,0.042
4.565,0.041
4.566,0.043
4.567,0.044
4.568,0.039
4.569,0.034
4.570,0.031
4.571,0.031
4.572,0.031
4.573,0.028
4.574,0.025
4.575,0.016
4.576,0.012
4.577,0.009
4.578,0.008
4.579,0.009
4.580,0.006
4.581,0.003
4.582,-0.003
4.583,-0.009
4.584,-0.012
4.585,-0.019
4.586,-0.025
4.587,-0.031
4.588,-0.037
4.589,-0.044
4.590,-0.052
4.591,-0.056
4.592,-0.066
4.593,-0.072
4.594,-0.072
4.595,-0.078
4.596,-0.081
4.597,-0.084
4.598,-0.095
4.599,-0.106
4.600,-0.103
4.601,-0.106
4.602,-0.114
4.603,-0.119
4.604,-0.121
4.605,-0.122
4.606,-0.121
4.607,-0.122
4.608,-0.128
4.609,-0.131
4.610,-0.136
4.611,-0.141
4.612,-0.143
4.613,-0.141
4.614,-0.141
4.615,-0.141
4.616,-0.145
4.617,-0.147
4.618,-0.148
4.619,-0.150
4.620,-0.149
4.621,-0.147
4.622,-0.150
4.623,-0.150
4.624,-0.149
4.625,-0.150
4.626,-0.150
4.627,-0.150
4.628,-0.153
4.629,-0.156
4.630,-0.159
4.631,-0.156
4.632,-0.159
4.633,-0.159
4.634,-0.159
4.635,-0.159
4.636,-0.163
4.637,-0.163
4.638,-0.163
4.639,-0.163
4.640,-0.164
4.641,-0.163
4.642,-0.161
4.643,-0.159
4.644,-0.163
4.645,-0.163
4.646,-0.164
4.647,-0.166
4.648,-0.164
4.649,-0.166
4.650,-0.169
4.651,-0.172
4.652,-0.173
4.653,-0.172
4.654,-0.176
4.655,-0.175
4.656,-0.174
4.657,-0.169
4.658,-0.171
4.659,-0.169
4.660,-0.170
4.661,-0.169
4.662,-0.164
4.663,-0.156
4.664,-0.156
4.665,-0.156
4.666,-0.157
4.667,-0.159
4.668,-0.159
4.669,-0.163
4.670,-0.161
4.671,-0.163
4.672,-0.159
4.673,-0.163
4.674,-0.166
4.675,-0.169
4.676,-0.174
4.677,-0.178
4.678,-0.184
4.679,-0.184
4.680,-0.177
4.681,-0.169
4.682,-0.156
4.683,-0.137
4.684,-0.123
4.685,-0.106
4.686,-0.092
4.687,-0.069
4.688,-0.036
4.689,-0.003
4.690,0.034
4.691,0.078
4.692,0.121
4.693,0.172
4.694,0.228
4.695,0.291
4.696,0.363
4.697,0.444
4.698,0.529
4.699,0.622
4.700,0.706
4.701,0.788
4.702,0.871
4.703,0.953
4.704,1.034
4.705,1.113
4.706,1.181
4.707,1.234
4.708,1.292
4.709,1.322
4.710,1.325
4.711,1.291
4.712,1.248
4.713,1.178
4.714,1.089
4.715,0.984
4.716,0.872
4.717,0.747
4.718,0.603
4.719,0.450
4.720,0.319
4.721,0.209
4.722,0.106
4.723,0.016
4.724,-0.048
4.725,-0.094
4.726,-0.120
4.727,-0.131
4.728,-0.136
4.729,-0.131
4.730,-0.122
4.731,-0.112
4.732,-0.109
4.733,-0.106
4.734,-0.106
4.735,-0.106
4.736,-0.103
4.737,-0.100
4.738,-0.097
4.739,-0.097
4.740,-0.094
4.741,-0.094
4.742,-0.091
4.743,-0.094
4.744,-0.092
4.745,-0.091
4.746,-0.091
4.747,-0.091
4.748,-0.091
4.749,-0.094
4.750,-0.098
4.751,-0.103
4.752,-0.108
4.753,-0.109
4.754,-0.108
4.755,-0.109
4.756,-0.116
4.757,-0.119
4.758,-0.119
4.759,-0.122
4.760,-0.125
4.761,-0.128
4.762,-0.130
4.763,-0.131
4.764,-0.130
4.765,-0.131
4.766,-0.130
4.767,-0.134
4.768,-0.131
4.769,-0.131
4.770,-0.128
4.771,-0.128
4.772,-0.126
4.773,-0.125
4.774,-0.127
4.775,-0.125
4.776,-0.125
4.777,-0.125
4.778,-0.125
4.779,-0.125
4.780,-0.125
4.781,-0.125
4.782,-0.126
4.783,-0.128
4.784,-0.129
4.785,-0.128
4.786,-0.125
4.787,-0.119
4.788,-0.119
4.789,-0.116
4.790,-0.116
4.791,-0.116
4.792,-0.116
4.793,-0.116
4.794,-0.117
4.795,-0.116
4.796,-0.114
4.797,-0.116
4.798,-0.114
4.799,-0.116
4.800,-0.116
4.801,-0.116
4.802,-0.112
4.803,-0.109
4.804,-0.099
4.805,-0.094
4.806,-0.095
4.807,-0.097
4.808,-0.098
4.809,-0.100
4.810,-0.100
4.811,-0.100
4.812,-0.099
4.813,-0.100
4.814,-0.098
4.815,-0.100
4.816,-0.100
4.817,-0.097
4.818,-0.099
4.819,-0.100
4.820,-0.101
4.821,-0.100
4.822,-0.096
4.823,-0.091
4.824,-0.092
4.825,-0.091
4.826,-0.089
4.827,-0.091
4.828,-0.094
4.829,-0.097
4.830,-0.099
4.831,-0.097
4.832,-0.094
4.833,-0.094
4.834,-0.095
4.835,-0.094
4.836,-0.095
4.837,-0.094
4.838,-0.094
4.839,-0.094
4.840,-0.089
4.841,-0.091
4.842,-0.091
4.843,-0.088
4.844,-0.084
4.845,-0.081
4.846,-0.080
4.847,-0.078
4.848,-0.076
4.849,-0.078
4.850,-0.079
4.851,-0.078
4.852,-0.079
4.853,-0.078
4.854,-0.077
4.855,-0.075
4.856,-0.072
4.857,-0.072
4.858,-0.071
4.859,-0.069
4.860,-0.067
4.861,-0.066
4.862,-0.066
4.863,-0.066
4.864,-0.067
4.865,-0.069
4.866,-0.066
4.867,-0.063
4.868,-0.056
4.869,-0.053
4.870,-0.050
4.871,-0.050
4.872,-0.053
4.873,-0.053
4.874,-0.056
4.875,-0.056
4.876,-0.053
4.877,-0.053
4.878,-0.047
4.879,-0.044
4.880,-0.039
4.881,-0.037
4.882,-0.036
4.883,-0.034
4.884,-0.031
4.885,-0.028
4.886,-0.031
4.887,-0.031
4.888,-0.028
4.889,-0.025
4.890,-0.022
4.891,-0.019
4.892,-0.017
4.893,-0.012
4.894,-0.014
4.895,-0.012
4.896,-0.008
4.897,-0.006
4.898,-0.002
4.899,0.003
4.900,0.006
4.901,0.006
4.902,0.006
4.903,0.006
4.904,0.009
4.905,0.016
4.906,0.019
4.907,0.016
4.908,0.018
4.909,0.016
4.910,0.022
4.911,0.028
4.912,0.028
4.913,0.025
4.914,0.025
4.915,0.025
4.916,0.028
4.917,0.034
4.918,0.039
4.919,0.041
4.920,0.041
4.921,0.041
4.922,0.037
4.923,0.037
4.924,0.042
4.925,0.044
4.926,0.053
4.927,0.059
4.928,0.061
4.929,0.063
4.930,0.066
4.931,0.066
4.932,0.068
4.933,0.069
4.934,0.070
4.935,0.075
4.936,0.077
4.937,0.075
4.938,0.079
4.939,0.081
4.940,0.080
4.941,0.081
4.942,0.083
4.943,0.081
4.944,0.084
4.945,0.081
4.946,0.086
4.947,0.091
4.948,0.095
4.949,0.100
4.950,0.103
4.951,0.100
4.952,0.103
4.953,0.103
4.954,0.106
4.955,0.106
4.956,0.108
4.957,0.106
4.958,0.106
4.959,0.109
4.960,0.108
4.961,0.109
4.962,0.112
4.963,0.116
4.964,0.117
4.965,0.122
4.966,0.125
4.967,0.125
4.968,0.125
4.969,0.125
4.970,0.125
4.971,0.128
4.972,0.131
4.973,0.134
4.974,0.136
4.975,0.137
4.976,0.139
4.977,0.137
4.978,0.137
4.979,0.137
4.980,0.137
4.981,0.141
4.982,0.141
4.983,0.141
4.984,0.145
4.985,0.147
4.986,0.147
4.987,0.150
4.988,0.150
4.989,0.150
4.990,0.153
4.991,0.153
4.992,0.153
4.993,0.150
4.994,0.150
4.995,0.153
4.996,0.150
4.997,0.144
4.998,0.144
4.999,0.144
5.000,0.144
5.001,0.144
5.002,0.144
5.003,0.144
5.004,0.144
5.005,0.147
5.006,0.142
5.007,0.144
5.008,0.143
5.009,0.144
5.010,0.141
5.011,0.141
5.012,0.142
5.013,0.137
5.014,0.133
5.015,0.125
5.016,0.121
5.017,0.116
5.018,0.111
5.019,0.106
5.020,0.104
5.021,0.106
5.022,0.100
5.023,0.097
5.024,0.091
5.025,0.091
5.026,0.091
5.027,0.088
5.028,0.077
5.029,0.072
5.030,0.070
5.031,0.069
5.032,0.066
5.033,0.063
5.034,0.059
5.035,0.056
5.036,0.050
5.037,0.047
5.038,0.044
5.039,0.041
5.040,0.037
5.041,0.034
5.042,0.027
5.043,0.022
5.044,0.014
5.045,0.009
5.046,0.012
5.047,0.009
5.048,0.006
5.049,0.003
5.050,0.000
5.051,-0.006
5.052,-0.009
5.053,-0.009
5.054,-0.016
5.055,-0.016
5.056,-0.016
5.057,-0.019
5.058,-0.022
5.059,-0.025
5.060,-0.025
5.061,-0.028
5.062,-0.030
5.063,-0.028
5.064,-0.031
5.065,-0.031
5.066,-0.031
5.067,-0.034
5.068,-0.037
5.069,-0.044
5.070,-0.045
5.071,-0.047
5.072,-0.044
5.073,-0.047
5.074,-0.047
5.075,-0.047
5.076,-0.046
5.077,-0.047
5.078,-0.048
5.079,-0.047
5.080,-0.053
5.081,-0.053
5.082,-0.054
5.083,-0.053
5.084,-0.050
5.085,-0.050
5.086,-0.053
5.087,-0.053
5.088,-0.053
5.089,-0.056
5.090,-0.059
5.091,-0.056
5.092,-0.059
5.093,-0.059
5.094,-0.058
5.095,-0.056
5.096,-0.056
5.097,-0.059
5.098,-0.059
5.099,-0.063
5.100,-0.061
5.101,-0.063
5.102,-0.063
5.103,-0.063
5.104,-0.059
5.105,-0.063
5.106,-0.063
5.107,-0.066
5.108,-0.067
5.109,-0.066
5.110,-0.066
5.111,-0.063
5.112,-0.064
5.113,-0.063
5.114,-0.064
5.115,-0.066
5.116,-0.064
5.117,-0.066
5.118,-0.066
5.119,-0.063
5.120,-0.066
5.121,-0.063
5.122,-0.066
5.123,-0.066
5.124,-0.064
5.125,-0.066
5.126,-0.064
5.127,-0.066
5.128,-0.064
5.129,-0.066
5.130,-0.066
5.131,-0.063
5.132,-0.063
5.133,-0.056
5.134,-0.059
5.135,-0.059
5.136,-0.061
5.137,-0.063
5.138,-0.064
5.139,-0.066
5.140,-0.070
5.141,-0.069
5.142,-0.067
5.143,-0.066
5.144,-0.067
5.145,-0.066
5.146,-0.064
5.147,-0.066
5.148,-0.066
5.149,-0.066
5.150,-0.067
5.151,-0.066
5.152,-0.063
5.153,-0.059
5.154,-0.061
5.155,-0.069
5.156,-0.069
5.157,-0.069
5.158,-0.067
5.159,-0.069
5.160,-0.070
5.161,-0.072
5.162,-0.073
5.163,-0.072
5.164,-0.072
5.165,-0.072
5.166,-0.072
5.167,-0.072
5.168,-0.072
5.169,-0.075
5.170,-0.076
5.171,-0.081
5.172,-0.082
5.173,-0.084
5.174,-0.083
5.175,-0.081
5.176,-0.077
5.177,-0.072
5.178,-0.072
5.179,-0.075
5.180,-0.079
5.181,-0.081
5.182,-0.078
5.183,-0.075
5.184,-0.075
5.185,-0.075
5.186,-0.079
5.187,-0.081
5.188,-0.081
5.189,-0.081
5.190,-0.081
5.191,-0.081
5.192,-0.081
5.193,-0.081
5.194,-0.081
5.195,-0.081
5.196,-0.086
5.197,-0.084
5.198,-0.084
5.199,-0.084
5.200,-0.084
5.201,-0.088
5.202,-0.089
5.203,-0.091
5.204,-0.091
5.205,-0.091
5.206,-0.091
5.207,-0.091
5.208,-0.091
5.209,-0.094
5.210,-0.092
5.211,-0.091
5.212,-0.092
5.213,-0.091
5.214,-0.092
5.215,-0.094
5.216,-0.091
5.217,-0.094
5.218,-0.091
5.219,-0.094
5.220,-0.094
5.221,-0.094
5.222,-0.095
5.223,-0.097
5.224,-0.098
5.225,-0.100
5.226,-0.100
5.227,-0.100
5.228,-0.100
5.229,-0.100
5.230,-0.103
5.231,-0.103
5.232,-0.100
5.233,-0.097
5.234,-0.094
5.235,-0.094
5.236,-0.094
5.237,-0.094
5.238,-0.094
5.239,-0.097
5.240,-0.094
5.241,-0.091
5.242,-0.092
5.243,-0.091
5.244,-0.094
5.245,-0.094
5.246,-0.095
5.247,-0.097
5.248,-0.098
5.249,-0.100
5.250,-0.099
5.251,-0.100
5.252,-0.099
5.253,-0.097
5.254,-0.100
5.255,-0.100
5.256,-0.100
5.257,-0.103
5.258,-0.106
5.259,-0.106
5.260,-0.103
5.261,-0.100
5.262,-0.097
5.263,-0.094
5.264,-0.092
5.265,-0.091
5.266,-0.092
5.267,-0.091
5.268,-0.088
5.269,-0.081
5.270,-0.078
5.271,-0.075
5.272,-0.070
5.273,-0.069
5.274,-0.063
5.275,-0.056
5.276,-0.046
5.277,-0.034
5.278,-0.029
5.279,-0.028
5.280,-0.028
5.281,-0.028
5.282,-0.027
5.283,-0.022
5.284,-0.018
5.285,-0.012
5.286,-0.005
5.287,-0.003
5.288,-0.004
5.289,-0.012
5.290,-0.014
5.291,-0.012
5.292,-0.014
5.293,-0.012
5.294,-0.011
5.295,-0.012
5.296,-0.008
5.297,0.000
5.298,0.000
5.299,0.003
5.300,0.012
5.301,0.019
5.302,0.025
5.303,0.028
5.304,0.030
5.305,0.028
5.306,0.034
5.307,0.037
5.308,0.044
5.309,0.044
5.310,0.050
5.311,0.053
5.312,0.054
5.313,0.059
5.314,0.059
5.315,0.056
5.316,0.055
5.317,0.053
5.318,0.048
5.319,0.044
5.320,0.037
5.321,0.034
5.322,0.034
5.323,0.031
5.324,0.028
5.325,0.019
5.326,0.017
5.327,0.016
5.328,0.014
5.329,0.016
5.330,0.012
5.331,0.009
5.332,0.008
5.333,0.006
5.334,0.002
5.335,-0.006
5.336,-0.016
5.337,-0.025
5.338,-0.033
5.339,-0.041
5.340,-0.049
5.341,-0.053
5.342,-0.061
5.343,-0.066
5.344,-0.064
5.345,-0.069
5.346,-0.074
5.347,-0.078
5.348,-0.086
5.349,-0.094
5.350,-0.094
5.351,-0.100
5.352,-0.103
5.353,-0.103
5.354,-0.105
5.355,-0.106
5.356,-0.111
5.357,-0.119
5.358,-0.126
5.359,-0.131
5.360,-0.136
5.361,-0.141
5.362,-0.143
5.363,-0.141
5.364,-0.141
5.365,-0.141
5.366,-0.144
5.367,-0.144
5.368,-0.144
5.369,-0.144
5.370,-0.144
5.371,-0.144
5.372,-0.147
5.373,-0.147
5.374,-0.146
5.375,-0.147
5.376,-0.148
5.377,-0.150
5.378,-0.150
5.379,-0.150
5.380,-0.153
5.381,-0.150
5.382,-0.152
5.383,-0.150
5.384,-0.153
5.385,-0.156
5.386,-0.159
5.387,-0.159
5.388,-0.159
5.389,-0.159
5.390,-0.161
5.391,-0.159
5.392,-0.159
5.393,-0.159
5.394,-0.158
5.395,-0.153
5.396,-0.153
5.397,-0.153
5.398,-0.154
5.399,-0.159
5.400,-0.158
5.401,-0.156
5.402,-0.157
5.403,-0.156
5.404,-0.161
5.405,-0.159
5.406,-0.159
5.407,-0.156
5.408,-0.159
5.409,-0.159
5.410,-0.158
5.411,-0.153
5.412,-0.154
5.413,-0.153
5.414,-0.154
5.415,-0.156
5.416,-0.156
5.417,-0.156
5.418,-0.153
5.419,-0.153
5.420,-0.151
5.421,-0.153
5.422,-0.149
5.423,-0.150
5.424,-0.152
5.425,-0.153
5.426,-0.163
5.427,-0.172
5.428,-0.178
5.429,-0.178
5.430,-0.172
5.431,-0.166
5.432,-0.152
5.433,-0.131
5.434,-0.119
5.435,-0.103
5.436,-0.080
5.437,-0.047
5.438,-0.012
5.439,0.022
5.440,0.056
5.441,0.097
5.442,0.144
5.443,0.200
5.444,0.258
5.445,0.322
5.446,0.397
5.447,0.481
5.448,0.567
5.449,0.659
5.450,0.745
5.451,0.828
5.452,0.913
5.453,0.997
5.454,1.076
5.455,1.153
5.456,1.220
5.457,1.272
5.458,1.317
5.459,1.334
5.460,1.326
5.461,1.281
5.462,1.228
5.463,1.147
5.464,1.054
5.465,0.947
5.466,0.831
5.467,0.703
5.468,0.566
5.469,0.419
5.470,0.288
5.471,0.178
5.472,0.082
5.473,0.000
5.474,-0.061
5.475,-0.103
5.476,-0.127
5.477,-0.134
5.478,-0.134
5.479,-0.125
5.480,-0.114
5.481,-0.103
5.482,-0.097
5.483,-0.091
5.484,-0.089
5.485,-0.088
5.486,-0.086
5.487,-0.084
5.488,-0.080
5.489,-0.078
5.490,-0.076
5.491,-0.078
5.492,-0.076
5.493,-0.081
5.494,-0.084
5.495,-0.088
5.496,-0.089
5.497,-0.091
5.498,-0.094
5.499,-0.100
5.500,-0.106
5.501,-0.112
5.502,-0.114
5.503,-0.112
5.504,-0.108
5.505,-0.106
5.506,-0.109
5.507,-0.109
5.508,-0.108
5.509,-0.109
5.510,-0.108
5.511,-0.106
5.512,-0.109
5.513,-0.112
5.514,-0.114
5.515,-0.119
5.516,-0.118
5.517,-0.122
5.518,-0.119
5.519,-0.119
5.520,-0.117
5.521,-0.119
5.522,-0.116
5.523,-0.112
5.524,-0.116
5.525,-0.116
5.526,-0.117
5.527,-0.119
5.528,-0.119
5.529,-0.119
5.530,-0.118
5.531,-0.116
5.532,-0.117
5.533,-0.119
5.534,-0.120
5.535,-0.119
5.536,-0.119
5.537,-0.116
5.538,-0.112
5.539,-0.106
5.540,-0.106
5.541,-0.106
5.542,-0.108
5.543,-0.109
5.544,-0.111
5.545,-0.109
5.546,-0.108
5.547,-0.109
5.548,-0.108
5.549,-0.109
5.550,-0.106
5.551,-0.103
5.552,-0.104
5.553,-0.106
5.554,-0.101
5.555,-0.103
5.556,-0.104
5.557,-0.106
5.558,-0.102
5.559,-0.097
5.560,-0.096
5.561,-0.094
5.562,-0.094
5.563,-0.097
5.564,-0.094
5.565,-0.094
5.566,-0.094
5.567,-0.091
5.568,-0.092
5.569,-0.094
5.570,-0.097
5.571,-0.097
5.572,-0.092
5.573,-0.088
5.574,-0.086
5.575,-0.081
5.576,-0.081
5.577,-0.084
5.578,-0.081
5.579,-0.078
5.580,-0.080
5.581,-0.078
5.582,-0.078
5.583,-0.081
5.584,-0.084
5.585,-0.084
5.586,-0.081
5.587,-0.075
5.588,-0.075
5.589,-0.075
5.590,-0.072
5.591,-0.075
5.592,-0.076
5.593,-0.075
5.594,-0.074
5.595,-0.072
5.596,-0.073
5.597,-0.075
5.598,-0.073
5.599,-0.075
5.600,-0.074
5.601,-0.069
5.602,-0.070
5.603,-0.069
5.604,-0.066
5.605,-0.063
5.606,-0.061
5.607,-0.063
5.608,-0.063
5.609,-0.063
5.610,-0.059
5.611,-0.056
5.612,-0.056
5.613,-0.056
5.614,-0.055
5.615,-0.053
5.616,-0.049
5.617,-0.044
5.618,-0.044
5.619,-0.047
5.620,-0.045
5.621,-0.047
5.622,-0.044
5.623,-0.037
5.624,-0.036
5.625,-0.031
5.626,-0.029
5.627,-0.031
5.628,-0.031
5.629,-0.034
5.630,-0.031
5.631,-0.031
5.632,-0.027
5.633,-0.022
5.634,-0.020
5.635,-0.019
5.636,-0.016
5.637,-0.009
5.638,-0.009
5.639,-0.009
5.640,-0.006
5.641,-0.003
5.642,-0.001
5.643,0.003
5.644,0.002
5.645,0.003
5.646,0.006
5.647,0.006
5.648,0.008
5.649,0.009
5.650,0.016
5.651,0.019
5.652,0.021
5.653,0.022
5.654,0.021
5.655,0.022
5.656,0.027
5.657,0.025
5.658,0.028
5.659,0.028
5.660,0.033
5.661,0.037
5.662,0.041
5.663,0.041
5.664,0.041
5.665,0.041
5.666,0.041
5.667,0.044
5.668,0.050
5.669,0.053
5.670,0.059
5.671,0.066
5.672,0.063
5.673,0.063
5.674,0.066
5.675,0.066
5.676,0.072
5.677,0.075
5.678,0.075
5.679,0.075
5.680,0.079
5.681,0.081
5.682,0.083
5.683,0.084
5.684,0.083
5.685,0.084
5.686,0.089
5.687,0.091
5.688,0.098
5.689,0.103
5.690,0.102
5.691,0.103
5.692,0.105
5.693,0.103
5.694,0.105
5.695,0.100
5.696,0.102
5.697,0.103
5.698,0.108
5.699,0.112
5.700,0.117
5.701,0.116
5.702,0.118
5.703,0.116
5.704,0.119
5.705,0.119
5.706,0.123
5.707,0.125
5.708,0.128
5.709,0.134
5.710,0.131
5.711,0.131
5.712,0.130
5.713,0.128
5.714,0.128
5.715,0.131
5.716,0.136
5.717,0.137
5.718,0.137
5.719,0.137
5.720,0.136
5.721,0.137
5.722,0.137
5.723,0.137
5.724,0.142
5.725,0.147
5.726,0.150
5.727,0.150
5.728,0.150
5.729,0.150
5.730,0.150
5.731,0.153
5.732,0.152
5.733,0.150
5.734,0.154
5.735,0.156
5.736,0.155
5.737,0.156
5.738,0.155
5.739,0.153
5.740,0.156
5.741,0.156
5.742,0.159
5.743,0.159
5.744,0.158
5.745,0.159
5.746,0.161
5.747,0.159
5.748,0.159
5.749,0.159
5.750,0.159
5.751,0.159
5.752,0.161
5.753,0.163
5.754,0.161
5.755,0.163
5.756,0.156
5.757,0.156
5.758,0.153
5.759,0.153
5.760,0.146
5.761,0.141
5.762,0.139
5.763,0.131
5.764,0.134
5.765,0.134
5.766,0.133
5.767,0.131
5.768,0.127
5.769,0.122
5.770,0.120
5.771,0.122
5.772,0.120
5.773,0.122
5.774,0.109
5.775,0.103
5.776,0.097
5.777,0.088
5.778,0.082
5.779,0.084
5.780,0.081
5.781,0.078
5.782,0.073
5.783,0.069
5.784,0.067
5.785,0.066
5.786,0.058
5.787,0.053
5.788,0.050
5.789,0.047
5.790,0.047
5.791,0.047
5.792,0.037
5.793,0.031
5.794,0.025
5.795,0.022
5.796,0.019
5.797,0.009
5.798,0.008
5.799,0.006
5.800,0.006
5.801,0.003
5.802,0.000
5.803,0.000
5.804,-0.008
5.805,-0.009
5.806,-0.009
5.807,-0.012
5.808,-0.016
5.809,-0.019
5.810,-0.020
5.811,-0.025
5.812,-0.028
5.813,-0.028
5.814,-0.033
5.815,-0.034
5.816,-0.033
5.817,-0.034
5.818,-0.033
5.819,-0.034
5.820,-0.036
5.821,-0.037
5.822,-0.034
5.823,-0.037
5.824,-0.037
5.825,-0.037
5.826,-0.036
5.827,-0.037
5.828,-0.039
5.829,-0.037
5.830,-0.048
5.831,-0.053
5.832,-0.054
5.833,-0.053
5.834,-0.050
5.835,-0.050
5.836,-0.053
5.837,-0.053
5.838,-0.050
5.839,-0.050
5.840,-0.050
5.841,-0.044
5.842,-0.047
5.843,-0.047
5.844,-0.048
5.845,-0.050
5.846,-0.050
5.847,-0.053
5.848,-0.052
5.849,-0.053
5.850,-0.051
5.851,-0.053
5.852,-0.053
5.853,-0.053
5.854,-0.050
5.855,-0.053
5.856,-0.052
5.857,-0.053
5.858,-0.056
5.859,-0.056
5.860,-0.055
5.861,-0.050
5.862,-0.053
5.863,-0.053
5.864,-0.055
5.865,-0.056
5.866,-0.054
5.867,-0.056
5.868,-0.056
5.869,-0.053
5.870,-0.056
5.871,-0.053
5.872,-0.056
5.873,-0.056
5.874,-0.055
5.875,-0.056
5.876,-0.054
5.877,-0.056
5.878,-0.056
5.879,-0.059
5.880,-0.061
5.881,-0.059
5.882,-0.061
5.883,-0.056
5.884,-0.059
5.885,-0.059
5.886,-0.059
5.887,-0.059
5.888,-0.059
5.889,-0.059
5.890,-0.064
5.891,-0.063
5.892,-0.061
5.893,-0.059
5.894,-0.063
5.895,-0.063
5.896,-0.061
5.897,-0.063
5.898,-0.064
5.899,-0.066
5.900,-0.067
5.901,-0.066
5.902,-0.063
5.903,-0.059
5.904,-0.056
5.905,-0.059
5.906,-0.063
5.907,-0.066
5.908,-0.064
5.909,-0.066
5.910,-0.066
5.911,-0.066
5.912,-0.067
5.913,-0.066
5.914,-0.066
5.915,-0.066
5.916,-0.067
5.917,-0.069
5.918,-0.070
5.919,-0.075
5.920,-0.072
5.921,-0.072
5.922,-0.072
5.923,-0.072
5.924,-0.073
5.925,-0.075
5.926,-0.075
5.927,-0.075
5.928,-0.072
5.929,-0.072
5.930,-0.075
5.931,-0.075
5.932,-0.075
5.933,-0.075
5.934,-0.074
5.935,-0.072
5.936,-0.078
5.937,-0.081
5.938,-0.081
5.939,-0.081
5.940,-0.080
5.941,-0.078
5.942,-0.079
5.943,-0.081
5.944,-0.081
5.945,-0.081
5.946,-0.086
5.947,-0.084
5.948,-0.084
5.949,-0.084
5.950,-0.083
5.951,-0.084
5.952,-0.084
5.953,-0.084
5.954,-0.084
5.955,-0.084
5.956,-0.084
5.957,-0.084
5.958,-0.084
5.959,-0.088
5.960,-0.089
5.961,-0.091
5.962,-0.089
5.963,-0.088
5.964,-0.088
5.965,-0.088
5.966,-0.088
5.967,-0.088
5.968,-0.086
5.969,-0.088
5.970,-0.089
5.971,-0.091
5.972,-0.092
5.973,-0.091
5.974,-0.089
5.975,-0.088
5.976,-0.088
5.977,-0.088
5.978,-0.091
5.979,-0.091
5.980,-0.091
5.981,-0.091
5.982,-0.088
5.983,-0.091
5.984,-0.094
5.985,-0.097
5.986,-0.096
5.987,-0.094
5.988,-0.091
5.989,-0.088
5.990,-0.091
5.991,-0.091
5.992,-0.092
5.993,-0.097
5.994,-0.098
5.995,-0.097
5.996,-0.097
5.997,-0.097
5.998,-0.095
5.999,-0.097
6.000,-0.096
6.001,-0.094
6.002,-0.094
6.003,-0.091
6.004,-0.088
6.005,-0.088
6.006,-0.080
6.007,-0.072
6.008,-0.064
6.009,-0.059
6.010,-0.056
6.011,-0.050
6.012,-0.047
6.013,-0.041
6.014,-0.033
6.015,-0.025
6.016,-0.022
6.017,-0.019
6.018,-0.019
6.019,-0.019
6.020,-0.017
6.021,-0.019
6.022,-0.016
6.023,-0.016
6.024,-0.019
6.025,-0.016
6.026,-0.016
6.027,-0.012
6.028,-0.012
6.029,-0.009
6.030,-0.002
6.031,0.003
6.032,0.003
6.033,0.003
6.034,0.002
6.035,0.000
6.036,0.003
6.037,0.003
6.038,0.006
6.039,0.016
6.040,0.021
6.041,0.028
6.042,0.036
6.043,0.041
6.044,0.044
6.045,0.053
6.046,0.055
6.047,0.059
6.048,0.058
6.049,0.059
6.050,0.061
6.051,0.063
6.052,0.064
6.053,0.063
6.054,0.058
6.055,0.059
6.056,0.064
6.057,0.059
6.058,0.054
6.059,0.053
6.060,0.054
6.061,0.053
6.062,0.046
6.063,0.041
6.064,0.030
6.065,0.025
6.066,0.022
6.067,0.019
6.068,0.019
6.069,0.016
6.070,0.012
6.071,0.009
6.072,0.005
6.073,0.000
6.074,-0.008
6.075,-0.016
6.076,-0.025
6.077,-0.034
6.078,-0.037
6.079,-0.044
6.080,-0.049
6.081,-0.053
6.082,-0.059
6.083,-0.063
6.084,-0.066
6.085,-0.069
6.086,-0.075
6.087,-0.081
6.088,-0.091
6.089,-0.094
6.090,-0.096
6.091,-0.097
6.092,-0.100
6.093,-0.103
6.094,-0.108
6.095,-0.109
6.096,-0.112
6.097,-0.119
6.098,-0.123
6.099,-0.128
6.100,-0.128
6.101,-0.128
6.102,-0.127
6.103,-0.128
6.104,-0.134
6.105,-0.141
6.106,-0.142
6.107,-0.144
6.108,-0.144
6.109,-0.144
6.110,-0.141
6.111,-0.141
6.112,-0.141
6.113,-0.141
6.114,-0.143
6.115,-0.141
6.116,-0.141
6.117,-0.141
6.118,-0.145
6.119,-0.153
6.120,-0.151
6.121,-0.156
6.122,-0.156
6.123,-0.156
6.124,-0.152
6.125,-0.150
6.126,-0.149
6.127,-0.147
6.128,-0.147
6.129,-0.147
6.130,-0.145
6.131,-0.147
6.132,-0.146
6.133,-0.147
6.134,-0.148
6.135,-0.150
6.136,-0.149
6.137,-0.147
6.138,-0.150
6.139,-0.150
6.140,-0.150
6.141,-0.150
6.142,-0.151
6.143,-0.159
6.144,-0.152
6.145,-0.147
6.146,-0.145
6.147,-0.150
6.148,-0.151
6.149,-0.153
6.150,-0.151
6.151,-0.153
6.152,-0.151
6.153,-0.153
6.154,-0.153
6.155,-0.153
6.156,-0.152
6.157,-0.150
6.158,-0.153
6.159,-0.150
6.160,-0.150
6.161,-0.150
6.162,-0.157
6.163,-0.163
6.164,-0.166
6.165,-0.172
6.166,-0.178
6.167,-0.181
6.168,-0.177
6.169,-0.169
6.170,-0.156
6.171,-0.137
6.172,-0.119
6.173,-0.103
6.174,-0.081
6.175,-0.059
6.176,-0.030
6.177,0.006
6.178,0.039
6.179,0.075
6.180,0.122
6.181,0.172
6.182,0.229
6.183,0.291
6.184,0.359
6.185,0.437
6.186,0.522
6.187,0.606
6.188,0.692
6.189,0.772
6.190,0.853
6.191,0.937
6.192,1.019
6.193,1.094
6.194,1.158
6.195,1.213
6.196,1.261
6.197,1.306
6.198,1.305
6.199,1.275
6.200,1.217
6.201,1.156
6.202,1.075
6.203,0.978
6.204,0.862
6.205,0.741
6.206,0.606
6.207,0.463
6.208,0.329
6.209,0.216
6.210,0.120
6.211,0.034
6.212,-0.036
6.213,-0.081
6.214,-0.114
6.215,-0.131
6.216,-0.137
6.217,-0.134
6.218,-0.128
6.219,-0.122
6.220,-0.111
6.221,-0.106
6.222,-0.100
6.223,-0.094
6.224,-0.091
6.225,-0.088
6.226,-0.084
6.227,-0.081
6.228,-0.080
6.229,-0.075
6.230,-0.075
6.231,-0.072
6.232,-0.075
6.233,-0.075
6.234,-0.076
6.235,-0.081
6.236,-0.086
6.237,-0.091
6.238,-0.096
6.239,-0.097
6.240,-0.099
6.241,-0.100
6.242,-0.101
6.243,-0.100
6.244,-0.099
6.245,-0.100
6.246,-0.101
6.247,-0.103
6.248,-0.105
6.249,-0.103
6.250,-0.102
6.251,-0.103
6.252,-0.105
6.253,-0.103
6.254,-0.106
6.255,-0.106
6.256,-0.112
6.257,-0.109
6.258,-0.109
6.259,-0.106
6.260,-0.108
6.261,-0.106
6.262,-0.103
6.263,-0.106
6.264,-0.106
6.265,-0.106
6.266,-0.106
6.267,-0.106
6.268,-0.108
6.269,-0.109
6.270,-0.109
6.271,-0.109
6.272,-0.108
6.273,-0.106
6.274,-0.100
6.275,-0.097
6.276,-0.095
6.277,-0.097
6.278,-0.092
6.279,-0.091
6.280,-0.094
6.281,-0.097
6.282,-0.098
6.283,-0.100
6.284,-0.096
6.285,-0.094
6.286,-0.097
6.287,-0.094
6.288,-0.091
6.289,-0.088
6.290,-0.091
6.291,-0.094
6.292,-0.097
6.293,-0.094
6.294,-0.091
6.295,-0.088
6.296,-0.083
6.297,-0.075
6.298,-0.075
6.299,-0.078
6.300,-0.078
6.301,-0.078
6.302,-0.082
6.303,-0.081
6.304,-0.080
6.305,-0.078
6.306,-0.076
6.307,-0.081
6.308,-0.084
6.309,-0.084
6.310,-0.082
6.311,-0.081
6.312,-0.077
6.313,-0.075
6.314,-0.071
6.315,-0.069
6.316,-0.072
6.317,-0.072
6.318,-0.073
6.319,-0.078
6.320,-0.078
6.321,-0.075
6.322,-0.072
6.323,-0.069
6.324,-0.067
6.325,-0.069
6.326,-0.066
6.327,-0.066
6.328,-0.063
6.329,-0.056
6.330,-0.058
6.331,-0.056
6.332,-0.053
6.333,-0.053
6.334,-0.053
6.335,-0.053
6.336,-0.054
6.337,-0.053
6.338,-0.053
6.339,-0.053
6.340,-0.047
6.341,-0.044
6.342,-0.042
6.343,-0.044
6.344,-0.045
6.345,-0.044
6.346,-0.045
6.347,-0.047
6.348,-0.046
6.349,-0.041
6.350,-0.037
6.351,-0.037
6.352,-0.039
6.353,-0.041
6.354,-0.041
6.355,-0.037
6.356,-0.031
6.357,-0.025
6.358,-0.026
6.359,-0.025
6.360,-0.024
6.361,-0.022
6.362,-0.020
6.363,-0.022
6.364,-0.022
6.365,-0.022
6.366,-0.021
6.367,-0.016
6.368,-0.017
6.369,-0.016
6.370,-0.017
6.371,-0.016
6.372,-0.011
6.373,-0.006
6.374,-0.003
6.375,-0.003
6.376,0.000
6.377,0.000
6.378,0.000
6.379,0.000
6.380,0.000
6.381,0.003
6.382,0.009
6.383,0.009
6.384,0.014
6.385,0.016
6.386,0.014
6.387,0.019
6.388,0.021
6.389,0.022
6.390,0.022
6.391,0.025
6.392,0.031
6.393,0.034
6.394,0.033
6.395,0.034
6.396,0.037
6.397,0.044
6.398,0.043
6.399,0.044
6.400,0.048
6.401,0.053
6.402,0.054
6.403,0.059
6.404,0.061
6.405,0.059
6.406,0.063
6.407,0.066
6.408,0.063
6.409,0.063
6.410,0.066
6.411,0.066
6.412,0.072
6.413,0.078
6.414,0.077
6.415,0.078
6.416,0.078
6.417,0.081
6.418,0.081
6.419,0.081
6.420,0.080
6.421,0.081
6.422,0.088
6.423,0.091
6.424,0.095
6.425,0.100
6.426,0.099
6.427,0.100
6.428,0.100
6.429,0.100
6.430,0.103
6.431,0.106
6.432,0.106
6.433,0.109
6.434,0.108
6.435,0.112
6.436,0.116
6.437,0.119
6.438,0.121
6.439,0.122
6.440,0.119
6.441,0.122
6.442,0.121
6.443,0.122
6.444,0.123
6.445,0.128
6.446,0.131
6.447,0.134
6.448,0.136
6.449,0.134
6.450,0.137
6.451,0.137
6.452,0.136
6.453,0.134
6.454,0.136
6.455,0.137
6.456,0.137
6.457,0.137
6.458,0.136
6.459,0.134
6.460,0.139
6.461,0.141
6.462,0.141
6.463,0.144
6.464,0.144
6.465,0.144
6.466,0.144
6.467,0.144
6.468,0.145
6.469,0.147
6.470,0.151
6.471,0.153
6.472,0.152
6.473,0.153
6.474,0.153
6.475,0.153
6.476,0.157
6.477,0.159
6.478,0.159
6.479,0.163
6.480,0.163
6.481,0.163
6.482,0.158
6.483,0.156
6.484,0.159
6.485,0.159
6.486,0.156
6.487,0.156
6.488,0.156
6.489,0.156
6.490,0.153
6.491,0.150
6.492,0.153
6.493,0.153
6.494,0.154
6.495,0.150
6.496,0.149
6.497,0.147
6.498,0.153
6.499,0.150
6.500,0.144
6.501,0.141
6.502,0.134
6.503,0.134
6.504,0.130
6.505,0.125
6.506,0.125
6.507,0.125
6.508,0.121
6.509,0.116
6.510,0.112
6.511,0.103
6.512,0.099
6.513,0.091
6.514,0.091
6.515,0.088
6.516,0.084
6.517,0.081
6.518,0.078
6.519,0.072
6.520,0.072
6.521,0.069
6.522,0.058
6.523,0.050
6.524,0.047
6.525,0.041
6.526,0.041
6.527,0.041
6.528,0.037
6.529,0.034
6.530,0.031
6.531,0.025
6.532,0.021
6.533,0.012
6.534,0.009
6.535,0.009
6.536,0.006
6.537,0.006
6.538,0.003
6.539,0.000
6.540,-0.008
6.541,-0.012
6.542,-0.011
6.543,-0.016
6.544,-0.014
6.545,-0.012
6.546,-0.016
6.547,-0.019
6.548,-0.023
6.549,-0.025
6.550,-0.027
6.551,-0.028
6.552,-0.028
6.553,-0.031
6.554,-0.031
6.555,-0.031
6.556,-0.033
6.557,-0.031
6.558,-0.037
6.559,-0.041
6.560,-0.041
6.561,-0.041
6.562,-0.047
6.563,-0.047
6.564,-0.047
6.565,-0.047
6.566,-0.051
6.567,-0.053
6.568,-0.049
6.569,-0.053
6.570,-0.052
6.571,-0.050
6.572,-0.047
6.573,-0.047
6.574,-0.050
6.575,-0.053
6.576,-0.054
6.577,-0.053
6.578,-0.053
6.579,-0.056
6.580,-0.050
6.581,-0.050
6.582,-0.051
6.583,-0.053
6.584,-0.054
6.585,-0.056
6.586,-0.059
6.587,-0.059
6.588,-0.063
6.589,-0.059
6.590,-0.058
6.591,-0.056
6.592,-0.057
6.593,-0.056
6.594,-0.059
6.595,-0.059
6.596,-0.061
6.597,-0.059
6.598,-0.056
6.599,-0.056
6.600,-0.053
6.601,-0.056
6.602,-0.056
6.603,-0.059
6.604,-0.064
6.605,-0.063
6.606,-0.061
6.607,-0.059
6.608,-0.055
6.609,-0.056
6.610,-0.053
6.611,-0.056
6.612,-0.055
6.613,-0.053
6.614,-0.057
6.615,-0.056
6.616,-0.055
6.617,-0.053
6.618,-0.061
6.619,-0.066
6.620,-0.063
6.621,-0.066
6.622,-0.063
6.623,-0.066
6.624,-0.066
6.625,-0.066
6.626,-0.066
6.627,-0.066
6.628,-0.063
6.629,-0.063
6.630,-0.059
6.631,-0.059
6.632,-0.061
6.633,-0.066
6.634,-0.066
6.635,-0.063
6.636,-0.059
6.637,-0.056
6.638,-0.052
6.639,-0.050
6.640,-0.050
6.641,-0.050
6.642,-0.053
6.643,-0.053
6.644,-0.056
6.645,-0.056
6.646,-0.059
6.647,-0.063
6.648,-0.067
6.649,-0.069
6.650,-0.069
6.651,-0.069
6.652,-0.064
6.653,-0.066
6.654,-0.069
6.655,-0.069
6.656,-0.069
6.657,-0.069
6.658,-0.072
6.659,-0.069
6.660,-0.067
6.661,-0.066
6.662,-0.067
6.663,-0.069
6.664,-0.069
6.665,-0.069
6.666,-0.069
6.667,-0.069
6.668,-0.073
6.669,-0.078
6.670,-0.078
6.671,-0.078
6.672,-0.079
6.673,-0.081
6.674,-0.080
6.675,-0.081
6.676,-0.079
6.677,-0.078
6.678,-0.079
6.679,-0.081
6.680,-0.082
6.681,-0.084
6.682,-0.084
6.683,-0.084
6.684,-0.081
6.685,-0.081
6.686,-0.081
6.687,-0.081
6.688,-0.082
6.689,-0.081
6.690,-0.081
6.691,-0.081
6.692,-0.080
6.693,-0.078
6.694,-0.081
6.695,-0.081
6.696,-0.080
6.697,-0.078
6.698,-0.075
6.699,-0.078
6.700,-0.079
6.701,-0.081
6.702,-0.081
6.703,-0.081
6.704,-0.081
6.705,-0.081
6.706,-0.084
6.707,-0.084
6.708,-0.084
6.709,-0.088
6.710,-0.089
6.711,-0.088
6.712,-0.088
6.713,-0.088
6.714,-0.083
6.715,-0.081
6.716,-0.081
6.717,-0.081
6.718,-0.084
6.719,-0.084
6.720,-0.078
6.721,-0.075
6.722,-0.075
6.723,-0.075
6.724,-0.067
6.725,-0.063
6.726,-0.059
6.727,-0.053
6.728,-0.053
6.729,-0.050
6.730,-0.045
6.731,-0.041
6.732,-0.033
6.733,-0.025
6.734,-0.022
6.735,-0.019
6.736,-0.019
6.737,-0.022
6.738,-0.018
6.739,-0.016
6.740,-0.017
6.741,-0.012
6.742,-0.012
6.743,-0.009
6.744,-0.012
6.745,-0.012
6.746,-0.011
6.747,-0.012
6.748,-0.006
6.749,0.000
6.750,0.000
6.751,0.000
6.752,0.003
6.753,0.003
6.754,0.009
6.755,0.022
6.756,0.029
6.757,0.041
6.758,0.050
6.759,0.056
6.760,0.053
6.761,0.056
6.762,0.059
6.763,0.066
6.764,0.066
6.765,0.069
6.766,0.069
6.767,0.069
6.768,0.075
6.769,0.078
6.770,0.074
6.771,0.075
6.772,0.077
6.773,0.069
6.774,0.066
6.775,0.066
6.776,0.061
6.777,0.053
6.778,0.048
6.779,0.047
6.780,0.036
6.781,0.031
6.782,0.033
6.783,0.034
6.784,0.036
6.785,0.034
6.786,0.027
6.787,0.019
6.788,0.016
6.789,0.012
6.790,0.006
6.791,0.000
6.792,-0.006
6.793,-0.012
6.794,-0.022
6.795,-0.034
6.796,-0.041
6.797,-0.047
6.798,-0.050
6.799,-0.050
6.800,-0.056
6.801,-0.063
6.802,-0.069
6.803,-0.075
6.804,-0.081
6.805,-0.081
6.806,-0.088
6.807,-0.094
6.808,-0.098
6.809,-0.103
6.810,-0.106
6.811,-0.106
6.812,-0.105
6.813,-0.106
6.814,-0.114
6.815,-0.122
6.816,-0.125
6.817,-0.128
6.818,-0.125
6.819,-0.125
6.820,-0.127
6.821,-0.128
6.822,-0.131
6.823,-0.134
6.824,-0.136
6.825,-0.137
6.826,-0.136
6.827,-0.137
6.828,-0.137
6.829,-0.137
6.830,-0.141
6.831,-0.141
6.832,-0.141
6.833,-0.141
6.834,-0.142
6.835,-0.147
6.836,-0.144
6.837,-0.147
6.838,-0.147
6.839,-0.147
6.840,-0.147
6.841,-0.150
6.842,-0.149
6.843,-0.147
6.844,-0.147
6.845,-0.147
6.846,-0.145
6.847,-0.147
6.848,-0.146
6.849,-0.147
6.850,-0.148
6.851,-0.150
6.852,-0.153
6.853,-0.156
6.854,-0.155
6.855,-0.150
6.856,-0.150
6.857,-0.150
6.858,-0.144
6.859,-0.144
6.860,-0.141
6.861,-0.141
6.862,-0.139
6.863,-0.144
6.864,-0.145
6.865,-0.147
6.866,-0.145
6.867,-0.147
6.868,-0.144
6.869,-0.144
6.870,-0.144
6.871,-0.144
6.872,-0.144
6.873,-0.144
6.874,-0.147
6.875,-0.144
6.876,-0.145
6.877,-0.147
6.878,-0.149
6.879,-0.147
6.880,-0.154
6.881,-0.166
6.882,-0.172
6.883,-0.175
6.884,-0.178
6.885,-0.178
6.886,-0.173
6.887,-0.163
6.888,-0.141
6.889,-0.122
6.890,-0.104
6.891,-0.088
6.892,-0.059
6.893,-0.025
6.894,0.008
6.895,0.044
6.896,0.084
6.897,0.128
6.898,0.183
6.899,0.241
6.900,0.303
6.901,0.375
6.902,0.459
6.903,0.544
6.904,0.627
6.905,0.703
6.906,0.777
6.907,0.853
6.908,0.941
6.909,1.022
6.910,1.096
6.911,1.159
6.912,1.223
6.913,1.284
6.914,1.306
6.915,1.300
6.916,1.259
6.917,1.216
6.918,1.145
6.919,1.059
6.920,0.953
6.921,0.841
6.922,0.709
6.923,0.569
6.924,0.425
6.925,0.300
6.926,0.189
6.927,0.088
6.928,0.003
6.929,-0.056
6.930,-0.100
6.931,-0.128
6.932,-0.137
6.933,-0.137
6.934,-0.134
6.935,-0.131
6.936,-0.122
6.937,-0.119
6.938,-0.112
6.939,-0.106
6.940,-0.100
6.941,-0.094
6.942,-0.091
6.943,-0.088
6.944,-0.089
6.945,-0.088
6.946,-0.089
6.947,-0.088
6.948,-0.089
6.949,-0.088
6.950,-0.086
6.951,-0.088
6.952,-0.088
6.953,-0.088
6.954,-0.095
6.955,-0.100
6.956,-0.102
6.957,-0.103
6.958,-0.104
6.959,-0.103
6.960,-0.102
6.961,-0.103
6.962,-0.102
6.963,-0.100
6.964,-0.103
6.965,-0.103
6.966,-0.106
6.967,-0.112
6.968,-0.117
6.969,-0.119
6.970,-0.121
6.971,-0.119
6.972,-0.125
6.973,-0.122
6.974,-0.123
6.975,-0.122
6.976,-0.122
6.977,-0.119
6.978,-0.114
6.979,-0.116
6.980,-0.116
6.981,-0.116
6.982,-0.114
6.983,-0.112
6.984,-0.112
6.985,-0.112
6.986,-0.112
6.987,-0.112
6.988,-0.111
6.989,-0.109
6.990,-0.106
6.991,-0.106
6.992,-0.106
6.993,-0.109
6.994,-0.106
6.995,-0.106
6.996,-0.105
6.997,-0.103
6.998,-0.104
6.999,-0.106
7.000,-0.104
7.001,-0.106
7.002,-0.111
7.003,-0.109
7.004,-0.109
7.005,-0.109
7.006,-0.109
7.007,-0.109
7.008,-0.111
7.009,-0.106
7.010,-0.105
7.011,-0.103
7.012,-0.104
7.013,-0.103
7.014,-0.101
7.015,-0.103
7.016,-0.102
7.017,-0.100
7.018,-0.104
7.019,-0.103
7.020,-0.102
7.021,-0.100
7.022,-0.094
7.023,-0.094
7.024,-0.097
7.025,-0.097
7.026,-0.097
7.027,-0.097
7.028,-0.098
7.029,-0.103
7.030,-0.099
7.031,-0.097
7.032,-0.097
7.033,-0.094
7.034,-0.092
7.035,-0.094
7.036,-0.095
7.037,-0.094
7.038,-0.098
7.039,-0.103
7.040,-0.100
7.041,-0.100
7.042,-0.096
7.043,-0.094
7.044,-0.095
7.045,-0.094
7.046,-0.096
7.047,-0.094
7.048,-0.091
7.049,-0.091
7.050,-0.091
7.051,-0.091
7.052,-0.092
7.053,-0.091
7.054,-0.088
7.055,-0.084
7.056,-0.082
7.057,-0.084
7.058,-0.082
7.059,-0.084
7.060,-0.086
7.061,-0.084
7.062,-0.084
7.063,-0.084
7.064,-0.084
7.065,-0.081
7.066,-0.077
7.067,-0.075
7.068,-0.075
7.069,-0.075
7.070,-0.075
7.071,-0.072
7.072,-0.070
7.073,-0.069
7.074,-0.070
7.075,-0.069
7.076,-0.069
7.077,-0.069
7.078,-0.063
7.079,-0.059
7.080,-0.055
7.081,-0.050
7.082,-0.053
7.083,-0.053
7.084,-0.053
7.085,-0.050
7.086,-0.053
7.087,-0.053
7.088,-0.047
7.089,-0.041
7.090,-0.036
7.091,-0.034
7.092,-0.030
7.093,-0.028
7.094,-0.029
7.095,-0.031
7.096,-0.034
7.097,-0.034
7.098,-0.027
7.099,-0.025
7.100,-0.019
7.101,-0.016
7.102,-0.019
7.103,-0.016
7.104,-0.016
7.105,-0.016
7.106,-0.019
7.107,-0.019
7.108,-0.016
7.109,-0.016
7.110,-0.009
7.111,0.000
7.112,-0.001
7.113,0.000
7.114,0.000
7.115,0.003
7.116,0.006
7.117,0.009
7.118,0.011
7.119,0.016
7.120,0.020
7.121,0.022
7.122,0.025
7.123,0.028
7.124,0.028
7.125,0.031
7.126,0.033
7.127,0.031
7.128,0.031
7.129,0.031
7.130,0.031
7.131,0.034
7.132,0.036
7.133,0.041
7.134,0.044
7.135,0.047
7.136,0.046
7.137,0.047
7.138,0.049
7.139,0.047
7.140,0.051
7.141,0.056
7.142,0.059
7.143,0.066
7.144,0.064
7.145,0.063
7.146,0.064
7.147,0.066
7.148,0.064
7.149,0.066
7.150,0.063
7.151,0.066
7.152,0.068
7.153,0.069
7.154,0.073
7.155,0.078
7.156,0.076
7.157,0.081
7.158,0.081
7.159,0.084
7.160,0.083
7.161,0.084
7.162,0.084
7.163,0.084
7.164,0.086
7.165,0.084
7.166,0.089
7.167,0.091
7.168,0.092
7.169,0.094
7.170,0.094
7.171,0.094
7.172,0.095
7.173,0.097
7.174,0.097
7.175,0.097
7.176,0.099
7.177,0.097
7.178,0.096
7.179,0.097
7.180,0.099
7.181,0.100
7.182,0.100
7.183,0.100
7.184,0.100
7.185,0.100
7.186,0.102
7.187,0.100
7.188,0.100
7.189,0.103
7.190,0.103
7.191,0.103
7.192,0.106
7.193,0.106
7.194,0.109
7.195,0.116
7.196,0.116
7.197,0.116
7.198,0.112
7.199,0.112
7.200,0.117
7.201,0.119
7.202,0.116
7.203,0.116
7.204,0.116
7.205,0.116
7.206,0.111
7.207,0.106
7.208,0.105
7.209,0.100
7.210,0.101
7.211,0.097
7.212,0.097
7.213,0.097
7.214,0.103
7.215,0.100
7.216,0.096
7.217,0.094
7.218,0.088
7.219,0.088
7.220,0.080
7.221,0.072
7.222,0.072
7.223,0.072
7.224,0.069
7.225,0.066
7.226,0.067
7.227,0.063
7.228,0.059
7.229,0.053
7.230,0.054
7.231,0.053
7.232,0.047
7.233,0.041
7.234,0.039
7.235,0.034
7.236,0.033
7.237,0.028
7.238,0.021
7.239,0.016
7.240,0.017
7.241,0.016
7.242,0.011
7.243,0.006
7.244,-0.001
7.245,-0.009
7.246,-0.009
7.247,-0.012
7.248,-0.017
7.249,-0.025
7.250,-0.029
7.251,-0.031
7.252,-0.034
7.253,-0.034
7.254,-0.033
7.255,-0.031
7.256,-0.036
7.257,-0.037
7.258,-0.041
7.259,-0.050
7.260,-0.051
7.261,-0.053
7.262,-0.053
7.263,-0.053
7.264,-0.059
7.265,-0.063
7.266,-0.067
7.267,-0.072
7.268,-0.072
7.269,-0.075
7.270,-0.074
7.271,-0.072
7.272,-0.074
7.273,-0.072
7.274,-0.078
7.275,-0.081
7.276,-0.080
7.277,-0.078
7.278,-0.083
7.279,-0.081
7.280,-0.084
7.281,-0.088
7.282,-0.091
7.283,-0.091
7.284,-0.086
7.285,-0.091
7.286,-0.091
7.287,-0.091
7.288,-0.086
7.289,-0.084
7.290,-0.086
7.291,-0.088
7.292,-0.091
7.293,-0.091
7.294,-0.092
7.295,-0.097
7.296,-0.094
7.297,-0.097
7.298,-0.094
7.299,-0.091
7.300,-0.088
7.301,-0.084
7.302,-0.089
7.303,-0.091
7.304,-0.095
7.305,-0.094
7.306,-0.092
7.307,-0.091
7.308,-0.089
7.309,-0.084
7.310,-0.086
7.311,-0.084
7.312,-0.091
7.313,-0.094
7.314,-0.091
7.315,-0.091
7.316,-0.086
7.317,-0.088
7.318,-0.088
7.319,-0.091
7.320,-0.095
7.321,-0.094
7.322,-0.098
7.323,-0.103
7.324,-0.100
7.325,-0.103
7.326,-0.096
7.327,-0.094
7.328,-0.094
7.329,-0.094
7.330,-0.100
7.331,-0.100
7.332,-0.097
7.333,-0.094
7.334,-0.097
7.335,-0.097
7.336,-0.092
7.337,-0.094
7.338,-0.091
7.339,-0.094
7.340,-0.094
7.341,-0.094
7.342,-0.098
7.343,-0.103
7.344,-0.100
7.345,-0.100
7.346,-0.098
7.347,-0.100
7.348,-0.099
7.349,-0.100
7.350,-0.101
7.351,-0.100
7.352,-0.096
7.353,-0.091
7.354,-0.094
7.355,-0.100
7.356,-0.103
7.357,-0.106
7.358,-0.106
7.359,-0.103
7.360,-0.105
7.361,-0.103
7.362,-0.103
7.363,-0.103
7.364,-0.105
7.365,-0.103
7.366,-0.102
7.367,-0.100
7.368,-0.096
7.369,-0.097
7.370,-0.104
7.371,-0.109
7.372,-0.109
7.373,-0.109
7.374,-0.112
7.375,-0.109
7.376,-0.108
7.377,-0.106
7.378,-0.106
7.379,-0.106
7.380,-0.108
7.381,-0.109
7.382,-0.106
7.383,-0.103
7.384,-0.105
7.385,-0.106
7.386,-0.108
7.387,-0.109
7.388,-0.109
7.389,-0.109
7.390,-0.109
7.391,-0.109
7.392,-0.108
7.393,-0.106
7.394,-0.106
7.395,-0.106
7.396,-0.109
7.397,-0.109
7.398,-0.108
7.399,-0.106
7.400,-0.104
7.401,-0.106
7.402,-0.108
7.403,-0.109
7.404,-0.108
7.405,-0.109
7.406,-0.111
7.407,-0.112
7.408,-0.112
7.409,-0.109
7.410,-0.112
7.411,-0.112
7.412,-0.111
7.413,-0.109
7.414,-0.109
7.415,-0.109
7.416,-0.111
7.417,-0.116
7.418,-0.116
7.419,-0.116
7.420,-0.119
7.421,-0.119
7.422,-0.114
7.423,-0.112
7.424,-0.114
7.425,-0.112
7.426,-0.114
7.427,-0.116
7.428,-0.117
7.429,-0.119
7.430,-0.116
7.431,-0.112
7.432,-0.112
7.433,-0.109
7.434,-0.103
7.435,-0.094
7.436,-0.092
7.437,-0.091
7.438,-0.086
7.439,-0.084
7.440,-0.075
7.441,-0.066
7.442,-0.059
7.443,-0.053
7.444,-0.046
7.445,-0.041
7.446,-0.042
7.447,-0.044
7.448,-0.044
7.449,-0.041
7.450,-0.039
7.451,-0.037
7.452,-0.033
7.453,-0.034
7.454,-0.028
7.455,-0.028
7.456,-0.025
7.457,-0.019
7.458,-0.020
7.459,-0.019
7.460,-0.017
7.461,-0.019
7.462,-0.020
7.463,-0.019
7.464,-0.018
7.465,-0.012
7.466,-0.006
7.467,-0.003
7.468,0.009
7.469,0.019
7.470,0.025
7.471,0.028
7.472,0.031
7.473,0.031
7.474,0.037
7.475,0.037
7.476,0.044
7.477,0.047
7.478,0.046
7.479,0.047
7.480,0.048
7.481,0.047
7.482,0.049
7.483,0.050
7.484,0.048
7.485,0.047
7.486,0.043
7.487,0.041
7.488,0.036
7.489,0.028
7.490,0.025
7.491,0.016
7.492,0.014
7.493,0.012
7.494,0.009
7.495,0.009
7.496,0.008
7.497,0.006
7.498,0.002
7.499,-0.003
7.500,-0.006
7.501,-0.012
7.502,-0.018
7.503,-0.022
7.504,-0.028
7.505,-0.034
7.506,-0.041
7.507,-0.044
7.508,-0.053
7.509,-0.059
7.510,-0.061
7.511,-0.069
7.512,-0.078
7.513,-0.088
7.514,-0.091
7.515,-0.094
7.516,-0.092
7.517,-0.097
7.518,-0.103
7.519,-0.106
7.520,-0.111
7.521,-0.116
7.522,-0.117
7.523,-0.122
7.524,-0.125
7.525,-0.125
7.526,-0.125
7.527,-0.125
7.528,-0.133
7.529,-0.137
7.530,-0.141
7.531,-0.144
7.532,-0.148
7.533,-0.150
7.534,-0.151
7.535,-0.153
7.536,-0.153
7.537,-0.153
7.538,-0.156
7.539,-0.156
7.540,-0.156
7.541,-0.159
7.542,-0.159
7.543,-0.159
7.544,-0.156
7.545,-0.153
7.546,-0.156
7.547,-0.153
7.548,-0.157
7.549,-0.159
7.550,-0.159
7.551,-0.159
7.552,-0.163
7.553,-0.163
7.554,-0.163
7.555,-0.163
7.556,-0.163
7.557,-0.159
7.558,-0.159
7.559,-0.159
7.560,-0.163
7.561,-0.163
7.562,-0.164
7.563,-0.166
7.564,-0.164
7.565,-0.166
7.566,-0.167
7.567,-0.169
7.568,-0.169
7.569,-0.166
7.570,-0.172
7.571,-0.172
7.572,-0.172
7.573,-0.169
7.574,-0.171
7.575,-0.169
7.576,-0.170
7.577,-0.169
7.578,-0.169
7.579,-0.166
7.580,-0.166
7.581,-0.166
7.582,-0.164
7.583,-0.163
7.584,-0.163
7.585,-0.166
7.586,-0.164
7.587,-0.166
7.588,-0.161
7.589,-0.163
7.590,-0.163
7.591,-0.163
7.592,-0.170
7.593,-0.178
7.594,-0.184
7.595,-0.184
7.596,-0.182
7.597,-0.181
7.598,-0.170
7.599,-0.153
7.600,-0.141
7.601,-0.125
7.602,-0.112
7.603,-0.091
7.604,-0.055
7.605,-0.019
7.606,0.014
7.607,0.053
7.608,0.097
7.609,0.150
7.610,0.203
7.611,0.263
7.612,0.334
7.613,0.416
7.614,0.500
7.615,0.591
7.616,0.675
7.617,0.756
7.618,0.839
7.619,0.922
7.620,1.004
7.621,1.084
7.622,1.159
7.623,1.219
7.624,1.292
7.625,1.337
7.626,1.344
7.627,1.313
7.628,1.282
7.629,1.225
7.630,1.142
7.631,1.044
7.632,0.929
7.633,0.803
7.634,0.659
7.635,0.506
7.636,0.369
7.637,0.253
7.638,0.144
7.639,0.047
7.640,-0.026
7.641,-0.081
7.642,-0.116
7.643,-0.134
7.644,-0.139
7.645,-0.134
7.646,-0.126
7.647,-0.119
7.648,-0.116
7.649,-0.112
7.650,-0.111
7.651,-0.109
7.652,-0.103
7.653,-0.097
7.654,-0.094
7.655,-0.094
7.656,-0.092
7.657,-0.094
7.658,-0.089
7.659,-0.091
7.660,-0.091
7.661,-0.091
7.662,-0.089
7.663,-0.088
7.664,-0.089
7.665,-0.094
7.666,-0.096
7.667,-0.097
7.668,-0.103
7.669,-0.106
7.670,-0.103
7.671,-0.103
7.672,-0.106
7.673,-0.106
7.674,-0.106
7.675,-0.109
7.676,-0.111
7.677,-0.112
7.678,-0.116
7.679,-0.119
7.680,-0.120
7.681,-0.125
7.682,-0.126
7.683,-0.134
7.684,-0.130
7.685,-0.128
7.686,-0.125
7.687,-0.125
7.688,-0.123
7.689,-0.122
7.690,-0.125
7.691,-0.125
7.692,-0.124
7.693,-0.122
7.694,-0.122
7.695,-0.122
7.696,-0.122
7.697,-0.122
7.698,-0.123
7.699,-0.125
7.700,-0.124
7.701,-0.119
7.702,-0.119
7.703,-0.116
7.704,-0.117
7.705,-0.116
7.706,-0.116
7.707,-0.116
7.708,-0.116
7.709,-0.116
7.710,-0.114
7.711,-0.109
7.712,-0.108
7.713,-0.109
7.714,-0.106
7.715,-0.106
7.716,-0.106
7.717,-0.106
7.718,-0.106
7.719,-0.106
7.720,-0.101
7.721,-0.103
7.722,-0.100
7.723,-0.097
7.724,-0.095
7.725,-0.094
7.726,-0.095
7.727,-0.097
7.728,-0.096
7.729,-0.097
7.730,-0.094
7.731,-0.094
7.732,-0.094
7.733,-0.091
7.734,-0.092
7.735,-0.094
7.736,-0.095
7.737,-0.094
7.738,-0.091
7.739,-0.088
7.740,-0.089
7.741,-0.088
7.742,-0.086
7.743,-0.088
7.744,-0.088
7.745,-0.088
7.746,-0.091
7.747,-0.091
7.748,-0.088
7.749,-0.088
7.750,-0.091
7.751,-0.091
7.752,-0.092
7.753,-0.091
7.754,-0.092
7.755,-0.094
7.756,-0.089
7.757,-0.091
7.758,-0.094
7.759,-0.094
7.760,-0.094
7.761,-0.094
7.762,-0.092
7.763,-0.091
7.764,-0.088
7.765,-0.088
7.766,-0.086
7.767,-0.081
7.768,-0.078
7.769,-0.072
7.770,-0.072
7.771,-0.072
7.772,-0.070
7.773,-0.072
7.774,-0.073
7.775,-0.075
7.776,-0.072
7.777,-0.069
7.778,-0.067
7.779,-0.066
7.780,-0.063
7.781,-0.059
7.782,-0.063
7.783,-0.066
7.784,-0.064
7.785,-0.066
7.786,-0.059
7.787,-0.056
7.788,-0.055
7.789,-0.050
7.790,-0.053
7.791,-0.053
7.792,-0.049
7.793,-0.047
7.794,-0.041
7.795,-0.037
7.796,-0.033
7.797,-0.031
7.798,-0.027
7.799,-0.022
7.800,-0.022
7.801,-0.022
7.802,-0.022
7.803,-0.019
7.804,-0.019
7.805,-0.019
7.806,-0.019
7.807,-0.019
7.808,-0.016
7.809,-0.009
7.810,-0.011
7.811,-0.009
7.812,-0.006
7.813,-0.006
7.814,-0.003
7.815,0.000
7.816,0.003
7.817,0.003
7.818,0.005
7.819,0.006
7.820,0.009
7.821,0.016
7.822,0.022
7.823,0.022
7.824,0.024
7.825,0.022
7.826,0.025
7.827,0.028
7.828,0.034
7.829,0.037
7.830,0.037
7.831,0.037
7.832,0.034
7.833,0.034
7.834,0.039
7.835,0.041
7.836,0.043
7.837,0.044
7.838,0.045
7.839,0.050
7.840,0.054
7.841,0.056
7.842,0.059
7.843,0.059
7.844,0.063
7.845,0.066
7.846,0.069
7.847,0.069
7.848,0.073
7.849,0.078
7.850,0.075
7.851,0.075
7.852,0.077
7.853,0.075
7.854,0.077
7.855,0.075
7.856,0.076
7.857,0.081
7.858,0.088
7.859,0.091
7.860,0.094
7.861,0.091
7.862,0.092
7.863,0.094
7.864,0.097
7.865,0.100
7.866,0.103
7.867,0.100
7.868,0.103
7.869,0.103
7.870,0.106
7.871,0.106
7.872,0.108
7.873,0.106
7.874,0.105
7.875,0.106
7.876,0.109
7.877,0.116
7.878,0.116
7.879,0.116
7.880,0.116
7.881,0.119
7.882,0.122
7.883,0.122
7.884,0.123
7.885,0.125
7.886,0.124
7.887,0.125
7.888,0.125
7.889,0.125
7.890,0.128
7.891,0.131
7.892,0.136
7.893,0.137
7.894,0.137
7.895,0.137
7.896,0.136
7.897,0.137
7.898,0.137
7.899,0.137
7.900,0.141
7.901,0.141
7.902,0.139
7.903,0.141
7.904,0.139
7.905,0.137
7.906,0.139
7.907,0.137
7.908,0.139
7.909,0.137
7.910,0.139
7.911,0.144
7.912,0.143
7.913,0.137
7.914,0.137
7.915,0.137
7.916,0.137
7.917,0.137
7.918,0.137
7.919,0.137
7.920,0.133
7.921,0.131
7.922,0.126
7.923,0.128
7.924,0.127
7.925,0.128
7.926,0.123
7.927,0.122
7.928,0.121
7.929,0.112
7.930,0.114
7.931,0.112
7.932,0.111
7.933,0.109
7.934,0.108
7.935,0.106
7.936,0.102
7.937,0.100
7.938,0.094
7.939,0.091
7.940,0.086
7.941,0.088
7.942,0.081
7.943,0.072
7.944,0.067
7.945,0.069
7.946,0.067
7.947,0.066
7.948,0.064
7.949,0.063
7.950,0.059
7.951,0.056
7.952,0.046
7.953,0.037
7.954,0.033
7.955,0.028
7.956,0.026
7.957,0.025
7.958,0.020
7.959,0.019
7.960,0.014
7.961,0.012
7.962,0.012
7.963,0.006
7.964,0.004
7.965,0.003
7.966,-0.001
7.967,-0.009
7.968,-0.012
7.969,-0.012
7.970,-0.019
7.971,-0.019
7.972,-0.020
7.973,-0.025
7.974,-0.028
7.975,-0.031
7.976,-0.033
7.977,-0.037
7.978,-0.042
7.979,-0.044
7.980,-0.047
7.981,-0.047
7.982,-0.046
7.983,-0.047
7.984,-0.046
7.985,-0.047
7.986,-0.047
7.987,-0.047
7.988,-0.047
7.989,-0.053
7.990,-0.053
7.991,-0.053
7.992,-0.052
7.993,-0.053
7.994,-0.053
7.995,-0.050
7.996,-0.057
7.997,-0.059
7.998,-0.064
7.999,-0.066
8.000,-0.064
8.001,-0.066
8.002,-0.067
8.003,-0.066
8.004,-0.059
8.005,-0.056
8.006,-0.059
8.007,-0.056
8.008,-0.059
8.009,-0.059
8.010,-0.061
8.011,-0.063
8.012,-0.063
8.013,-0.066
8.014,-0.063
8.015,-0.063
8.016,-0.061
8.017,-0.063
8.018,-0.063
8.019,-0.063
8.020,-0.056
8.021,-0.056
8.022,-0.055
8.023,-0.056
8.024,-0.059
8.025,-0.059
8.026,-0.061
8.027,-0.059
8.028,-0.061
8.029,-0.059
8.030,-0.061
8.031,-0.063
8.032,-0.058
8.033,-0.056
8.034,-0.057
8.035,-0.056
8.036,-0.059
8.037,-0.056
8.038,-0.061
8.039,-0.063
8.040,-0.064
8.041,-0.069
8.042,-0.067
8.043,-0.069
8.044,-0.066
8.045,-0.066
8.046,-0.063
8.047,-0.056
8.048,-0.059
8.049,-0.056
8.050,-0.063
8.051,-0.066
8.052,-0.067
8.053,-0.069
8.054,-0.067
8.055,-0.066
8.056,-0.069
8.057,-0.066
8.058,-0.066
8.059,-0.066
8.060,-0.069
8.061,-0.069
8.062,-0.067
8.063,-0.069
8.064,-0.069
8.065,-0.069
8.066,-0.073
8.067,-0.075
8.068,-0.075
8.069,-0.075
8.070,-0.069
8.071,-0.069
8.072,-0.069
8.073,-0.069
8.074,-0.066
8.075,-0.066
8.076,-0.061
8.077,-0.056
8.078,-0.061
8.079,-0.063
8.080,-0.067
8.081,-0.072
8.082,-0.072
8.083,-0.072
8.084,-0.072
8.085,-0.075
8.086,-0.069
8.087,-0.066
8.088,-0.067
8.089,-0.069
8.090,-0.069
8.091,-0.069
8.092,-0.070
8.093,-0.072
8.094,-0.069
8.095,-0.069
8.096,-0.075
8.097,-0.078
8.098,-0.079
8.099,-0.081
8.100,-0.082
8.101,-0.084
8.102,-0.086
8.103,-0.084
8.104,-0.083
8.105,-0.081
8.106,-0.080
8.107,-0.078
8.108,-0.079
8.109,-0.081
8.110,-0.080
8.111,-0.078
8.112,-0.082
8.113,-0.081
8.114,-0.081
8.115,-0.081
8.116,-0.080
8.117,-0.081
8.118,-0.082
8.119,-0.084
8.120,-0.083
8.121,-0.081
8.122,-0.080
8.123,-0.078
8.124,-0.077
8.125,-0.078
8.126,-0.079
8.127,-0.081
8.128,-0.084
8.129,-0.084
8.130,-0.086
8.131,-0.088
8.132,-0.081
8.133,-0.081
8.134,-0.081
8.135,-0.084
8.136,-0.086
8.137,-0.088
8.138,-0.089
8.139,-0.091
8.140,-0.089
8.141,-0.088
8.142,-0.091
8.143,-0.091
8.144,-0.091
8.145,-0.091
8.146,-0.088
8.147,-0.088
8.148,-0.088
8.149,-0.088
8.150,-0.084
8.151,-0.084
8.152,-0.084
8.153,-0.084
8.154,-0.086
8.155,-0.084
8.156,-0.088
8.157,-0.088
8.158,-0.088
8.159,-0.088
8.160,-0.088
8.161,-0.088
8.162,-0.086
8.163,-0.088
8.164,-0.088
8.165,-0.088
8.166,-0.094
8.167,-0.097
8.168,-0.092
8.169,-0.091
8.170,-0.091
8.171,-0.088
8.172,-0.086
8.173,-0.084
8.174,-0.086
8.175,-0.088
8.176,-0.088
8.177,-0.088
8.178,-0.083
8.179,-0.075
8.180,-0.073
8.181,-0.069
8.182,-0.063
8.183,-0.056
8.184,-0.047
8.185,-0.041
8.186,-0.036
8.187,-0.031
8.188,-0.026
8.189,-0.022
8.190,-0.017
8.191,-0.016
8.192,-0.016
8.193,-0.016
8.194,-0.014
8.195,-0.009
8.196,-0.006
8.197,-0.003
8.198,0.000
8.199,-0.003
8.200,-0.001
8.201,-0.006
8.202,-0.002
8.203,0.006
8.204,0.006
8.205,0.009
8.206,0.011
8.207,0.009
8.208,0.008
8.209,0.009
8.210,0.012
8.211,0.019
8.212,0.027
8.213,0.031
8.214,0.041
8.215,0.047
8.216,0.049
8.217,0.047
8.218,0.053
8.219,0.056
8.220,0.061
8.221,0.059
8.222,0.064
8.223,0.066
8.224,0.064
8.225,0.066
8.226,0.067
8.227,0.066
8.228,0.066
8.229,0.066
8.230,0.059
8.231,0.053
8.232,0.050
8.233,0.050
8.234,0.047
8.235,0.041
8.236,0.034
8.237,0.022
8.238,0.022
8.239,0.022
8.240,0.018
8.241,0.016
8.242,0.014
8.243,0.012
8.244,0.009
8.245,0.006
8.246,0.000
8.247,-0.009
8.248,-0.011
8.249,-0.012
8.250,-0.019
8.251,-0.025
8.252,-0.033
8.253,-0.037
8.254,-0.044
8.255,-0.047
8.256,-0.046
8.257,-0.050
8.258,-0.057
8.259,-0.066
8.260,-0.073
8.261,-0.081
8.262,-0.082
8.263,-0.091
8.264,-0.094
8.265,-0.094
8.266,-0.096
8.267,-0.097
8.268,-0.097
8.269,-0.100
8.270,-0.108
8.271,-0.112
8.272,-0.117
8.273,-0.122
8.274,-0.128
8.275,-0.131
8.276,-0.133
8.277,-0.134
8.278,-0.137
8.279,-0.137
8.280,-0.134
8.281,-0.131
8.282,-0.131
8.283,-0.131
8.284,-0.136
8.285,-0.137
8.286,-0.136
8.287,-0.137
8.288,-0.141
8.289,-0.144
8.290,-0.144
8.291,-0.144
8.292,-0.147
8.293,-0.144
8.294,-0.147
8.295,-0.147
8.296,-0.147
8.297,-0.147
8.298,-0.151
8.299,-0.153
8.300,-0.153
8.301,-0.153
8.302,-0.152
8.303,-0.147
8.304,-0.144
8.305,-0.141
8.306,-0.144
8.307,-0.144
8.308,-0.145
8.309,-0.147
8.310,-0.147
8.311,-0.150
8.312,-0.153
8.313,-0.156
8.314,-0.152
8.315,-0.144
8.316,-0.146
8.317,-0.141
8.318,-0.142
8.319,-0.141
8.320,-0.144
8.321,-0.144
8.322,-0.144
8.323,-0.141
8.324,-0.142
8.325,-0.141
8.326,-0.136
8.327,-0.131
8.328,-0.133
8.329,-0.134
8.330,-0.130
8.331,-0.128
8.332,-0.128
8.333,-0.131
8.334,-0.134
8.335,-0.144
8.336,-0.147
8.337,-0.150
8.338,-0.150
8.339,-0.150
8.340,-0.152
8.341,-0.147
8.342,-0.137
8.343,-0.128
8.344,-0.114
8.345,-0.094
8.346,-0.077
8.347,-0.056
8.348,-0.034
8.349,-0.003
8.350,0.031
8.351,0.066
8.352,0.114
8.353,0.169
8.354,0.223
8.355,0.288
8.356,0.354
8.357,0.428
8.358,0.506
8.359,0.594
8.360,0.679
8.361,0.772
8.362,0.856
8.363,0.937
8.364,1.022
8.365,1.106
8.366,1.178
8.367,1.247
8.368,1.300
8.369,1.337
8.370,1.356
8.371,1.347
8.372,1.327
8.373,1.269
8.374,1.197
8.375,1.097
8.376,0.994
8.377,0.875
8.378,0.737
8.379,0.588
8.380,0.457
8.381,0.319
8.382,0.201
8.383,0.106
8.384,0.031
8.385,-0.031
8.386,-0.072
8.387,-0.094
8.388,-0.108
8.389,-0.106
8.390,-0.105
8.391,-0.094
8.392,-0.088
8.393,-0.081
8.394,-0.079
8.395,-0.078
8.396,-0.075
8.397,-0.072
8.398,-0.072
8.399,-0.072
8.400,-0.069
8.401,-0.069
8.402,-0.063
8.403,-0.059
8.404,-0.055
8.405,-0.056
8.406,-0.056
8.407,-0.056
8.408,-0.061
8.409,-0.066
8.410,-0.070
8.411,-0.078
8.412,-0.082
8.413,-0.088
8.414,-0.091
8.415,-0.091
8.416,-0.086
8.417,-0.084
8.418,-0.086
8.419,-0.084
8.420,-0.083
8.421,-0.084
8.422,-0.086
8.423,-0.088
8.424,-0.094
8.425,-0.100
8.426,-0.101
8.427,-0.106
8.428,-0.103
8.429,-0.106
8.430,-0.103
8.431,-0.103
8.432,-0.101
8.433,-0.103
8.434,-0.101
8.435,-0.100
8.436,-0.099
8.437,-0.094
8.438,-0.095
8.439,-0.097
8.440,-0.097
8.441,-0.097
8.442,-0.097
8.443,-0.097
8.444,-0.096
8.445,-0.094
8.446,-0.095
8.447,-0.094
8.448,-0.092
8.449,-0.088
8.450,-0.089
8.451,-0.088
8.452,-0.089
8.453,-0.091
8.454,-0.091
8.455,-0.091
8.456,-0.092
8.457,-0.091
8.458,-0.089
8.459,-0.091
8.460,-0.088
8.461,-0.088
8.462,-0.089
8.463,-0.091
8.464,-0.091
8.465,-0.091
8.466,-0.084
8.467,-0.084
8.468,-0.083
8.469,-0.081
8.470,-0.081
8.471,-0.081
8.472,-0.078
8.473,-0.075
8.474,-0.075
8.475,-0.078
8.476,-0.074
8.477,-0.072
8.478,-0.072
8.479,-0.069
8.480,-0.071
8.481,-0.072
8.482,-0.075
8.483,-0.075
8.484,-0.075
8.485,-0.075
8.486,-0.074
8.487,-0.069
8.488,-0.067
8.489,-0.069
8.490,-0.070
8.491,-0.072
8.492,-0.075
8.493,-0.075
8.494,-0.072
8.495,-0.072
8.496,-0.073
8.497,-0.072
8.498,-0.073
8.499,-0.072
8.500,-0.072
8.501,-0.072
8.502,-0.067
8.503,-0.069
8.504,-0.064
8.505,-0.056
8.506,-0.055
8.507,-0.053
8.508,-0.054
8.509,-0.056
8.510,-0.054
8.511,-0.056
8.512,-0.057
8.513,-0.056
8.514,-0.057
8.515,-0.056
8.516,-0.057
8.517,-0.059
8.518,-0.053
8.519,-0.050
8.520,-0.050
8.521,-0.050
8.522,-0.047
8.523,-0.044
8.524,-0.039
8.525,-0.034
8.526,-0.036
8.527,-0.037
8.528,-0.037
8.529,-0.037
8.530,-0.033
8.531,-0.031
8.532,-0.028
8.533,-0.028
8.534,-0.025
8.535,-0.019
8.536,-0.020
8.537,-0.019
8.538,-0.016
8.539,-0.016
8.540,-0.014
8.541,-0.016
8.542,-0.016
8.543,-0.019
8.544,-0.016
8.545,-0.012
8.546,-0.006
8.547,0.000
8.548,0.003
8.549,0.009
8.550,0.009
8.551,0.009
8.552,0.008
8.553,0.006
8.554,0.005
8.555,0.006
8.556,0.009
8.557,0.016
8.558,0.022
8.559,0.025
8.560,0.029
8.561,0.034
8.562,0.034
8.563,0.031
8.564,0.033
8.565,0.034
8.566,0.036
8.567,0.041
8.568,0.046
8.569,0.044
8.570,0.046
8.571,0.044
8.572,0.048
8.573,0.053
8.574,0.059
8.575,0.063
8.576,0.064
8.577,0.066
8.578,0.064
8.579,0.066
8.580,0.069
8.581,0.069
8.582,0.071
8.583,0.072
8.584,0.072
8.585,0.075
8.586,0.077
8.587,0.075
8.588,0.082
8.589,0.088
8.590,0.091
8.591,0.094
8.592,0.097
8.593,0.097
8.594,0.100
8.595,0.103
8.596,0.104
8.597,0.109
8.598,0.112
8.599,0.112
8.600,0.114
8.601,0.112
8.602,0.111
8.603,0.112
8.604,0.117
8.605,0.119
8.606,0.122
8.607,0.119
8.608,0.121
8.609,0.122
8.610,0.126
8.611,0.131
8.612,0.134
8.613,0.131
8.614,0.133
8.615,0.131
8.616,0.137
8.617,0.141
8.618,0.144
8.619,0.144
8.620,0.144
8.621,0.147
8.622,0.150
8.623,0.156
8.624,0.155
8.625,0.153
8.626,0.152
8.627,0.153
8.628,0.157
8.629,0.159
8.630,0.163
8.631,0.166
8.632,0.164
8.633,0.166
8.634,0.164
8.635,0.163
8.636,0.166
8.637,0.169
8.638,0.172
8.639,0.172
8.640,0.171
8.641,0.169
8.642,0.172
8.643,0.178
8.644,0.177
8.645,0.175
8.646,0.177
8.647,0.175
8.648,0.174
8.649,0.175
8.650,0.175
8.651,0.175
8.652,0.177
8.653,0.175
8.654,0.176
8.655,0.175
8.656,0.174
8.657,0.175
8.658,0.176
8.659,0.175
8.660,0.175
8.661,0.175
8.662,0.175
8.663,0.175
8.664,0.174
8.665,0.172
8.666,0.168
8.667,0.166
8.668,0.163
8.669,0.166
8.670,0.167
8.671,0.172
8.672,0.164
8.673,0.159
8.674,0.156
8.675,0.147
8.676,0.147
8.677,0.144
8.678,0.141
8.679,0.137
8.680,0.137
8.681,0.137
8.682,0.131
8.683,0.128
8.684,0.126
8.685,0.128
8.686,0.123
8.687,0.125
8.688,0.123
8.689,0.119
8.690,0.108
8.691,0.103
8.692,0.099
8.693,0.094
8.694,0.089
8.695,0.084
8.696,0.081
8.697,0.078
8.698,0.072
8.699,0.069
8.700,0.066
8.701,0.063
8.702,0.059
8.703,0.056
8.704,0.051
8.705,0.050
8.706,0.045
8.707,0.044
8.708,0.043
8.709,0.034
8.710,0.030
8.711,0.025
8.712,0.025
8.713,0.022
8.714,0.016
8.715,0.012
8.716,0.008
8.717,0.009
8.718,0.009
8.719,0.006
8.720,0.004
8.721,0.003
8.722,0.004
8.723,0.003
8.724,0.000
8.725,0.000
8.726,-0.004
8.727,-0.006
8.728,-0.006
8.729,-0.009
8.730,-0.009
8.731,-0.012
8.732,-0.014
8.733,-0.016
8.734,-0.016
8.735,-0.022
8.736,-0.023
8.737,-0.025
8.738,-0.024
8.739,-0.025
8.740,-0.024
8.741,-0.019
8.742,-0.025
8.743,-0.025
8.744,-0.028
8.745,-0.028
8.746,-0.025
8.747,-0.025
8.748,-0.028
8.749,-0.028
8.750,-0.025
8.751,-0.025
8.752,-0.028
8.753,-0.025
8.754,-0.028
8.755,-0.028
8.756,-0.029
8.757,-0.031
8.758,-0.025
8.759,-0.022
8.760,-0.019
8.761,-0.019
8.762,-0.022
8.763,-0.028
8.764,-0.029
8.765,-0.031
8.766,-0.027
8.767,-0.028
8.768,-0.028
8.769,-0.031
8.770,-0.031
8.771,-0.028
8.772,-0.028
8.773,-0.025
8.774,-0.028
8.775,-0.028
8.776,-0.030
8.777,-0.031
8.778,-0.029
8.779,-0.031
8.780,-0.033
8.781,-0.031
8.782,-0.036
8.783,-0.034
8.784,-0.037
8.785,-0.037
8.786,-0.036
8.787,-0.037
8.788,-0.034
8.789,-0.034
8.790,-0.033
8.791,-0.034
8.792,-0.036
8.793,-0.034
8.794,-0.037
8.795,-0.034
8.796,-0.036
8.797,-0.034
8.798,-0.033
8.799,-0.031
8.800,-0.031
8.801,-0.031
8.802,-0.036
8.803,-0.034
8.804,-0.033
8.805,-0.031
8.806,-0.036
8.807,-0.037
8.808,-0.039
8.809,-0.044
8.810,-0.044
8.811,-0.044
8.812,-0.043
8.813,-0.037
8.814,-0.039
8.815,-0.041
8.816,-0.037
8.817,-0.041
8.818,-0.041
8.819,-0.041
8.820,-0.041
8.821,-0.044
8.822,-0.045
8.823,-0.047
8.824,-0.048
8.825,-0.047
8.826,-0.049
8.827,-0.050
8.828,-0.050
8.829,-0.050
8.830,-0.050
8.831,-0.053
8.832,-0.050
8.833,-0.050
8.834,-0.050
8.835,-0.050
8.836,-0.050
8.837,-0.050
8.838,-0.050
8.839,-0.050
8.840,-0.049
8.841,-0.050
8.842,-0.056
8.843,-0.059
8.844,-0.059
8.845,-0.059
8.846,-0.056
8.847,-0.053
8.848,-0.055
8.849,-0.053
8.850,-0.054
8.851,-0.056
8.852,-0.057
8.853,-0.059
8.854,-0.061
8.855,-0.063
8.856,-0.059
8.857,-0.056
8.858,-0.061
8.859,-0.059
8.860,-0.061
8.861,-0.063
8.862,-0.063
8.863,-0.066
8.864,-0.066
8.865,-0.066
8.866,-0.066
8.867,-0.066
8.868,-0.066
8.869,-0.066
8.870,-0.066
8.871,-0.069
8.872,-0.066
8.873,-0.063
8.874,-0.064
8.875,-0.063
8.876,-0.064
8.877,-0.066
8.878,-0.066
8.879,-0.072
8.880,-0.067
8.881,-0.069
8.882,-0.067
8.883,-0.066
8.884,-0.066
8.885,-0.066
8.886,-0.067
8.887,-0.069
8.888,-0.072
8.889,-0.072
8.890,-0.069
8.891,-0.069
8.892,-0.069
8.893,-0.069
8.894,-0.070
8.895,-0.072
8.896,-0.070
8.897,-0.072
8.898,-0.075
8.899,-0.075
8.900,-0.072
8.901,-0.072
8.902,-0.072
8.903,-0.069
8.904,-0.067
8.905,-0.069
8.906,-0.072
8.907,-0.072
8.908,-0.075
8.909,-0.075
8.910,-0.073
8.911,-0.075
8.912,-0.078
8.913,-0.081
8.914,-0.084
8.915,-0.084
8.916,-0.078
8.917,-0.078
8.918,-0.078
8.919,-0.078
8.920,-0.077
8.921,-0.078
8.922,-0.078
8.923,-0.078
8.924,-0.077
8.925,-0.075
8.926,-0.075
8.927,-0.075
8.928,-0.078
8.929,-0.078
8.930,-0.078
8.931,-0.078
8.932,-0.074
8.933,-0.072
8.934,-0.072
8.935,-0.072
8.936,-0.075
8.937,-0.081
8.938,-0.081
8.939,-0.081
8.940,-0.081
8.941,-0.078
8.942,-0.080
8.943,-0.078
8.944,-0.078
8.945,-0.078
8.946,-0.079
8.947,-0.081
8.948,-0.081
8.949,-0.084
8.950,-0.083
8.951,-0.081
8.952,-0.084
8.953,-0.084
8.954,-0.082
8.955,-0.084
8.956,-0.086
8.957,-0.084
8.958,-0.083
8.959,-0.081
8.960,-0.080
8.961,-0.078
8.962,-0.074
8.963,-0.069
8.964,-0.066
8.965,-0.059
8.966,-0.057
8.967,-0.053
8.968,-0.050
8.969,-0.047
8.970,-0.041
8.971,-0.037
8.972,-0.031
8.973,-0.025
8.974,-0.020
8.975,-0.016
8.976,-0.012
8.977,-0.012
8.978,-0.008
8.979,-0.003
8.980,-0.003
8.981,0.000
8.982,0.001
8.983,0.003
8.984,0.009
8.985,0.009
8.986,0.019
8.987,0.022
8.988,0.016
8.989,0.012
8.990,0.012
8.991,0.016
8.992,0.020
8.993,0.022
8.994,0.021
8.995,0.022
8.996,0.021
8.997,0.022
8.998,0.028
8.999,0.031
9.000,0.041
9.001,0.047
9.002,0.054
9.003,0.059
9.004,0.064
9.005,0.066
9.006,0.073
9.007,0.075
9.008,0.074
9.009,0.069
9.010,0.068
9.011,0.069
9.012,0.073
9.013,0.075
9.014,0.078
9.015,0.081
9.016,0.074
9.017,0.066
9.018,0.063
9.019,0.063
9.020,0.058
9.021,0.050
9.022,0.050
9.023,0.044
9.024,0.041
9.025,0.037
9.026,0.033
9.027,0.031
9.028,0.031
9.029,0.031
9.030,0.027
9.031,0.022
9.032,0.022
9.033,0.019
9.034,0.009
9.035,0.000
9.036,-0.005
9.037,-0.009
9.038,-0.019
9.039,-0.025
9.040,-0.030
9.041,-0.031
9.042,-0.028
9.043,-0.031
9.044,-0.037
9.045,-0.044
9.046,-0.050
9.047,-0.056
9.048,-0.059
9.049,-0.069
9.050,-0.074
9.051,-0.075
9.052,-0.077
9.053,-0.078
9.054,-0.078
9.055,-0.081
9.056,-0.089
9.057,-0.094
9.058,-0.096
9.059,-0.097
9.060,-0.099
9.061,-0.097
9.062,-0.104
9.063,-0.112
9.064,-0.112
9.065,-0.109
9.066,-0.109
9.067,-0.109
9.068,-0.109
9.069,-0.109
9.070,-0.116
9.071,-0.119
9.072,-0.119
9.073,-0.122
9.074,-0.123
9.075,-0.125
9.076,-0.125
9.077,-0.125
9.078,-0.128
9.079,-0.125
9.080,-0.128
9.081,-0.128
9.082,-0.127
9.083,-0.125
9.084,-0.127
9.085,-0.125
9.086,-0.124
9.087,-0.122
9.088,-0.126
9.089,-0.128
9.090,-0.129
9.091,-0.131
9.092,-0.131
9.093,-0.128
9.094,-0.128
9.095,-0.128
9.096,-0.131
9.097,-0.137
9.098,-0.137
9.099,-0.137
9.100,-0.134
9.101,-0.128
9.102,-0.128
9.103,-0.122
9.104,-0.123
9.105,-0.122
9.106,-0.125
9.107,-0.125
9.108,-0.126
9.109,-0.125
9.110,-0.126
9.111,-0.125
9.112,-0.125
9.113,-0.125
9.114,-0.125
9.115,-0.125
9.116,-0.119
9.117,-0.116
9.118,-0.114
9.119,-0.116
9.120,-0.117
9.121,-0.125
9.122,-0.131
9.123,-0.137
9.124,-0.139
9.125,-0.141
9.126,-0.145
9.127,-0.144
9.128,-0.133
9.129,-0.122
9.130,-0.111
9.131,-0.094
9.132,-0.078
9.133,-0.059
9.134,-0.036
9.135,-0.003
9.136,0.028
9.137,0.059
9.138,0.096
9.139,0.137
9.140,0.192
9.141,0.256
9.142,0.316
9.143,0.381
9.144,0.459
9.145,0.547
9.146,0.633
9.147,0.725
9.148,0.811
9.149,0.894
9.150,0.978
9.151,1.062
9.152,1.139
9.153,1.213
9.154,1.274
9.155,1.319
9.156,1.353
9.157,1.359
9.158,1.349
9.159,1.300
9.160,1.241
9.161,1.153
9.162,1.059
9.163,0.950
9.164,0.825
9.165,0.688
9.166,0.556
9.167,0.416
9.168,0.292
9.169,0.191
9.170,0.100
9.171,0.022
9.172,-0.036
9.173,-0.075
9.174,-0.096
9.175,-0.100
9.176,-0.099
9.177,-0.088
9.178,-0.079
9.179,-0.072
9.180,-0.067
9.181,-0.063
9.182,-0.061
9.183,-0.059
9.184,-0.057
9.185,-0.056
9.186,-0.054
9.187,-0.056
9.188,-0.053
9.189,-0.053
9.190,-0.050
9.191,-0.053
9.192,-0.054
9.193,-0.056
9.194,-0.061
9.195,-0.066
9.196,-0.066
9.197,-0.069
9.198,-0.069
9.199,-0.069
9.200,-0.073
9.201,-0.075
9.202,-0.075
9.203,-0.078
9.204,-0.082
9.205,-0.084
9.206,-0.084
9.207,-0.088
9.208,-0.086
9.209,-0.084
9.210,-0.088
9.211,-0.091
9.212,-0.092
9.213,-0.097
9.214,-0.097
9.215,-0.103
9.216,-0.100
9.217,-0.100
9.218,-0.096
9.219,-0.094
9.220,-0.092
9.221,-0.091
9.222,-0.094
9.223,-0.094
9.224,-0.095
9.225,-0.097
9.226,-0.096
9.227,-0.094
9.228,-0.094
9.229,-0.094
9.230,-0.091
9.231,-0.088
9.232,-0.089
9.233,-0.088
9.234,-0.089
9.235,-0.088
9.236,-0.089
9.237,-0.088
9.238,-0.088
9.239,-0.088
9.240,-0.088
9.241,-0.088
9.242,-0.086
9.243,-0.081
9.244,-0.082
9.245,-0.088
9.246,-0.084
9.247,-0.084
9.248,-0.083
9.249,-0.081
9.250,-0.086
9.251,-0.091
9.252,-0.081
9.253,-0.078
9.254,-0.079
9.255,-0.081
9.256,-0.079
9.257,-0.078
9.258,-0.078
9.259,-0.078
9.260,-0.075
9.261,-0.075
9.262,-0.073
9.263,-0.075
9.264,-0.075
9.265,-0.072
9.266,-0.074
9.267,-0.075
9.268,-0.074
9.269,-0.069
9.270,-0.067
9.271,-0.066
9.272,-0.064
9.273,-0.059
9.274,-0.059
9.275,-0.063
9.276,-0.066
9.277,-0.069
9.278,-0.071
9.279,-0.069
9.280,-0.066
9.281,-0.066
9.282,-0.064
9.283,-0.059
9.284,-0.058
9.285,-0.053
9.286,-0.054
9.287,-0.056
9.288,-0.053
9.289,-0.056
9.290,-0.057
9.291,-0.056
9.292,-0.056
9.293,-0.056
9.294,-0.056
9.295,-0.056
9.296,-0.053
9.297,-0.053
9.298,-0.053
9.299,-0.050
9.300,-0.051
9.301,-0.050
9.302,-0.050
9.303,-0.050
9.304,-0.048
9.305,-0.050
9.306,-0.047
9.307,-0.044
9.308,-0.041
9.309,-0.037
9.310,-0.036
9.311,-0.034
9.312,-0.033
9.313,-0.031
9.314,-0.028
9.315,-0.025
9.316,-0.021
9.317,-0.019
9.318,-0.017
9.319,-0.019
9.320,-0.020
9.321,-0.019
9.322,-0.019
9.323,-0.016
9.324,-0.014
9.325,-0.016
9.326,-0.012
9.327,-0.012
9.328,-0.008
9.329,-0.006
9.330,-0.004
9.331,-0.003
9.332,0.001
9.333,0.006
9.334,0.005
9.335,0.006
9.336,0.006
9.337,0.006
9.338,0.008
9.339,0.009
9.340,0.006
9.341,0.006
9.342,0.002
9.343,0.000
9.344,0.001
9.345,0.000
9.346,0.000
9.347,0.000
9.348,0.006
9.349,0.009
9.350,0.020
9.351,0.031
9.352,0.030
9.353,0.031
9.354,0.039
9.355,0.041
9.356,0.044
9.357,0.044
9.358,0.048
9.359,0.053
9.360,0.057
9.361,0.059
9.362,0.066
9.363,0.072
9.364,0.071
9.365,0.072
9.366,0.075
9.367,0.075
9.368,0.075
9.369,0.075
9.370,0.078
9.371,0.084
9.372,0.088
9.373,0.088
9.374,0.088
9.375,0.084
9.376,0.086
9.377,0.088
9.378,0.089
9.379,0.088
9.380,0.092
9.381,0.097
9.382,0.098
9.383,0.103
9.384,0.106
9.385,0.106
9.386,0.108
9.387,0.106
9.388,0.108
9.389,0.112
9.390,0.119
9.391,0.122
9.392,0.125
9.393,0.122
9.394,0.125
9.395,0.128
9.396,0.133
9.397,0.137
9.398,0.139
9.399,0.134
9.400,0.136
9.401,0.134
9.402,0.139
9.403,0.141
9.404,0.144
9.405,0.144
9.406,0.143
9.407,0.144
9.408,0.144
9.409,0.147
9.410,0.147
9.411,0.147
9.412,0.146
9.413,0.147
9.414,0.153
9.415,0.156
9.416,0.157
9.417,0.159
9.418,0.158
9.419,0.159
9.420,0.158
9.421,0.156
9.422,0.161
9.423,0.166
9.424,0.169
9.425,0.169
9.426,0.168
9.427,0.166
9.428,0.164
9.429,0.166
9.430,0.169
9.431,0.172
9.432,0.175
9.433,0.175
9.434,0.174
9.435,0.175
9.436,0.174
9.437,0.172
9.438,0.178
9.439,0.181
9.440,0.182
9.441,0.181
9.442,0.180
9.443,0.181
9.444,0.182
9.445,0.181
9.446,0.178
9.447,0.175
9.448,0.176
9.449,0.178
9.450,0.178
9.451,0.178
9.452,0.175
9.453,0.175
9.454,0.170
9.455,0.172
9.456,0.169
9.457,0.169
9.458,0.164
