'Elapsed time','II'
'seconds','mV'
0.000,-0.130
0.001,-0.131
0.002,-0.133
0.003,-0.134
0.004,-0.131
0.005,-0.128
0.006,-0.125
0.007,-0.122
0.008,-0.122
0.009,-0.122
0.010,-0.118
0.011,-0.113
0.012,-0.114
0.013,-0.116
0.014,-0.116
0.015,-0.116
0.016,-0.116
0.017,-0.116
0.018,-0.116
0.019,-0.116
0.020,-0.113
0.021,-0.109
0.022,-0.109
0.023,-0.109
0.024,-0.111
0.025,-0.113
0.026,-0.109
0.027,-0.106
0.028,-0.106
0.029,-0.106
0.030,-0.106
0.031,-0.106
0.032,-0.108
0.033,-0.109
0.034,-0.109
0.035,-0.109
0.036,-0.106
0.037,-0.103
0.038,-0.104
0.039,-0.103
0.040,-0.106
0.041,-0.106
0.042,-0.104
0.043,-0.106
0.044,-0.100
0.045,-0.097
0.046,-0.095
0.047,-0.097
0.048,-0.093
0.049,-0.094
0.050,-0.093
0.051,-0.091
0.052,-0.091
0.053,-0.091
0.054,-0.091
0.055,-0.091
0.056,-0.094
0.057,-0.091
0.058,-0.087
0.059,-0.087
0.060,-0.086
0.061,-0.087
0.062,-0.089
0.063,-0.091
0.064,-0.084
0.065,-0.081
0.066,-0.077
0.067,-0.075
0.068,-0.072
0.069,-0.072
0.070,-0.073
0.071,-0.075
0.072,-0.073
0.073,-0.075
0.074,-0.075
0.075,-0.072
0.076,-0.064
0.077,-0.063
0.078,-0.059
0.079,-0.056
0.080,-0.058
0.081,-0.056
0.082,-0.052
0.083,-0.050
0.084,-0.051
0.085,-0.050
0.086,-0.050
0.087,-0.047
0.088,-0.043
0.089,-0.041
0.090,-0.039
0.091,-0.038
0.092,-0.038
0.093,-0.034
0.094,-0.033
0.095,-0.034
0.096,-0.034
0.097,-0.034
0.098,-0.031
0.099,-0.025
0.100,-0.024
0.101,-0.022
0.102,-0.019
0.103,-0.013
0.104,-0.009
0.105,-0.003
0.106,0.000
0.107,0.003
0.108,0.002
0.109,0.003
0.110,0.003
0.111,0.003
0.112,0.011
0.113,0.019
0.114,0.023
0.115,0.028
0.116,0.030
0.117,0.028
0.118,0.028
0.119,0.028
0.120,0.027
0.121,0.025
0.122,0.025
0.123,0.028
0.124,0.030
0.125,0.031
0.126,0.030
0.127,0.031
0.128,0.037
0.129,0.041
0.130,0.044
0.131,0.044
0.132,0.047
0.133,0.047
0.134,0.051
0.135,0.056
0.136,0.055
0.137,0.056
0.138,0.055
0.139,0.056
0.140,0.056
0.141,0.056
0.142,0.061
0.143,0.062
0.144,0.066
0.145,0.069
0.146,0.072
0.147,0.072
0.148,0.072
0.149,0.075
0.150,0.081
0.151,0.087
0.152,0.095
0.153,0.100
0.154,0.097
0.155,0.100
0.156,0.106
0.157,0.112
0.158,0.114
0.159,0.119
0.160,0.122
0.161,0.125
0.162,0.124
0.163,0.125
0.164,0.124
0.165,0.119
0.166,0.114
0.167,0.116
0.168,0.116
0.169,0.116
0.170,0.111
0.171,0.109
0.172,0.106
0.173,0.100
0.174,0.101
0.175,0.097
0.176,0.091
0.177,0.087
0.178,0.083
0.179,0.075
0.180,0.069
0.181,0.069
0.182,0.064
0.183,0.062
0.184,0.058
0.185,0.050
0.186,0.044
0.187,0.041
0.188,0.036
0.189,0.031
0.190,0.025
0.191,0.019
0.192,0.008
0.193,0.006
0.194,0.006
0.195,0.003
0.196,-0.001
0.197,-0.009
0.198,-0.013
0.199,-0.019
0.200,-0.025
0.201,-0.028
0.202,-0.034
0.203,-0.041
0.204,-0.044
0.205,-0.047
0.206,-0.052
0.207,-0.050
0.208,-0.056
0.209,-0.059
0.210,-0.061
0.211,-0.066
0.212,-0.068
0.213,-0.066
0.214,-0.067
0.215,-0.072
0.216,-0.076
0.217,-0.081
0.218,-0.078
0.219,-0.078
0.220,-0.080
0.221,-0.078
0.222,-0.081
0.223,-0.081
0.224,-0.083
0.225,-0.084
0.226,-0.081
0.227,-0.075
0.228,-0.078
0.229,-0.078
0.230,-0.081
0.231,-0.084
0.232,-0.083
0.233,-0.081
0.234,-0.084
0.235,-0.084
0.236,-0.083
0.237,-0.084
0.238,-0.086
0.239,-0.087
0.240,-0.091
0.241,-0.091
0.242,-0.084
0.243,-0.081
0.244,-0.080
0.245,-0.078
0.246,-0.079
0.247,-0.081
0.248,-0.078
0.249,-0.075
0.250,-0.075
0.251,-0.075
0.252,-0.073
0.253,-0.072
0.254,-0.075
0.255,-0.075
0.256,-0.074
0.257,-0.072
0.258,-0.071
0.259,-0.066
0.260,-0.067
0.261,-0.069
0.262,-0.070
0.263,-0.072
0.264,-0.076
0.265,-0.081
0.266,-0.078
0.267,-0.075
0.268,-0.076
0.269,-0.078
0.270,-0.075
0.271,-0.069
0.272,-0.069
0.273,-0.069
0.274,-0.069
0.275,-0.069
0.276,-0.075
0.277,-0.078
0.278,-0.077
0.279,-0.075
0.280,-0.075
0.281,-0.075
0.282,-0.074
0.283,-0.066
0.284,-0.068
0.285,-0.066
0.286,-0.067
0.287,-0.069
0.288,-0.073
0.289,-0.078
0.290,-0.079
0.291,-0.078
0.292,-0.072
0.293,-0.072
0.294,-0.076
0.295,-0.078
0.296,-0.077
0.297,-0.075
0.298,-0.072
0.299,-0.069
0.300,-0.073
0.301,-0.072
0.302,-0.072
0.303,-0.072
0.304,-0.073
0.305,-0.075
0.306,-0.075
0.307,-0.078
0.308,-0.079
0.309,-0.081
0.310,-0.078
0.311,-0.075
0.312,-0.072
0.313,-0.069
0.314,-0.072
0.315,-0.072
0.316,-0.076
0.317,-0.081
0.318,-0.080
0.319,-0.081
0.320,-0.077
0.321,-0.078
0.322,-0.079
0.323,-0.081
0.324,-0.083
0.325,-0.084
0.326,-0.086
0.327,-0.087
0.328,-0.086
0.329,-0.084
0.330,-0.083
0.331,-0.084
0.332,-0.084
0.333,-0.084
0.334,-0.087
0.335,-0.087
0.336,-0.091
0.337,-0.091
0.338,-0.089
0.339,-0.091
0.340,-0.094
0.341,-0.094
0.342,-0.094
0.343,-0.094
0.344,-0.095
0.345,-0.097
0.346,-0.098
0.347,-0.100
0.348,-0.096
0.349,-0.091
0.350,-0.087
0.351,-0.091
0.352,-0.094
0.353,-0.094
0.354,-0.094
0.355,-0.094
0.356,-0.095
0.357,-0.094
0.358,-0.091
0.359,-0.091
0.360,-0.089
0.361,-0.087
0.362,-0.084
0.363,-0.084
0.364,-0.080
0.365,-0.072
0.366,-0.064
0.367,-0.056
0.368,-0.051
0.369,-0.044
0.370,-0.034
0.371,-0.025
0.372,-0.014
0.373,-0.009
0.374,0.000
0.375,0.009
0.376,0.014
0.377,0.019
0.378,0.019
0.379,0.016
0.380,0.012
0.381,0.006
0.382,-0.001
0.383,-0.006
0.384,-0.008
0.385,-0.009
0.386,-0.008
0.387,-0.003
0.388,0.006
0.389,0.019
0.390,0.031
0.391,0.034
0.392,0.034
0.393,0.037
0.394,0.037
0.395,0.047
0.396,0.054
0.397,0.066
0.398,0.076
0.399,0.081
0.400,0.081
0.401,0.081
0.402,0.084
0.403,0.084
0.404,0.074
0.405,0.062
0.406,0.057
0.407,0.050
0.408,0.047
0.409,0.047
0.410,0.036
0.411,0.025
0.412,0.017
0.413,0.006
0.414,-0.006
0.415,-0.019
0.416,-0.025
0.417,-0.031
0.418,-0.041
0.419,-0.047
0.420,-0.053
0.421,-0.063
0.422,-0.063
0.423,-0.069
0.424,-0.078
0.425,-0.091
0.426,-0.102
0.427,-0.109
0.428,-0.119
0.429,-0.122
0.430,-0.121
0.431,-0.119
0.432,-0.119
0.433,-0.119
0.434,-0.119
0.435,-0.125
0.436,-0.131
0.437,-0.137
0.438,-0.137
0.439,-0.137
0.440,-0.139
0.441,-0.141
0.442,-0.139
0.443,-0.141
0.444,-0.142
0.445,-0.147
0.446,-0.144
0.447,-0.147
0.448,-0.148
0.449,-0.150
0.450,-0.151
0.451,-0.156
0.452,-0.159
0.453,-0.159
0.454,-0.163
0.455,-0.163
0.456,-0.166
0.457,-0.163
0.458,-0.161
0.459,-0.159
0.460,-0.163
0.461,-0.163
0.462,-0.166
0.463,-0.166
0.464,-0.164
0.465,-0.163
0.466,-0.159
0.467,-0.159
0.468,-0.159
0.469,-0.163
0.470,-0.164
0.471,-0.163
0.472,-0.159
0.473,-0.156
0.474,-0.159
0.475,-0.159
0.476,-0.156
0.477,-0.156
0.478,-0.153
0.479,-0.153
0.480,-0.151
0.481,-0.153
0.482,-0.153
0.483,-0.153
0.484,-0.154
0.485,-0.156
0.486,-0.156
0.487,-0.156
0.488,-0.155
0.489,-0.153
0.490,-0.152
0.491,-0.150
0.492,-0.153
0.493,-0.156
0.494,-0.158
0.495,-0.159
0.496,-0.164
0.497,-0.169
0.498,-0.174
0.499,-0.178
0.500,-0.186
0.501,-0.197
0.502,-0.204
0.503,-0.219
0.504,-0.231
0.505,-0.234
0.506,-0.234
0.507,-0.234
0.508,-0.234
0.509,-0.225
0.510,-0.206
0.511,-0.188
0.512,-0.172
0.513,-0.141
0.514,-0.108
0.515,-0.056
0.516,-0.004
0.517,0.062
0.518,0.136
0.519,0.222
0.520,0.309
0.521,0.400
0.522,0.500
0.523,0.625
0.524,0.773
0.525,0.922
0.526,1.069
0.527,1.194
0.528,1.299
0.529,1.400
0.530,1.500
0.531,1.597
0.532,1.683
0.533,1.756
0.534,1.829
0.535,1.906
0.536,1.981
0.537,2.003
0.538,2.000
0.539,1.925
0.540,1.828
0.541,1.703
0.542,1.586
0.543,1.356
0.544,1.180
0.545,1.019
0.546,0.869
0.547,0.719
0.548,0.553
0.549,0.416
0.550,0.294
0.551,0.200
0.552,0.126
0.553,0.078
0.554,0.041
0.555,0.012
0.556,-0.014
0.557,-0.031
0.558,-0.043
0.559,-0.053
0.560,-0.059
0.561,-0.063
0.562,-0.069
0.563,-0.078
0.564,-0.083
0.565,-0.094
0.566,-0.096
0.567,-0.097
0.568,-0.101
0.569,-0.109
0.570,-0.108
0.571,-0.109
0.572,-0.116
0.573,-0.119
0.574,-0.122
0.575,-0.125
0.576,-0.126
0.577,-0.131
0.578,-0.136
0.579,-0.134
0.580,-0.137
0.581,-0.141
0.582,-0.143
0.583,-0.141
0.584,-0.144
0.585,-0.144
0.586,-0.144
0.587,-0.144
0.588,-0.143
0.589,-0.144
0.590,-0.141
0.591,-0.144
0.592,-0.144
0.593,-0.141
0.594,-0.144
0.595,-0.144
0.596,-0.139
0.597,-0.141
0.598,-0.141
0.599,-0.141
0.600,-0.141
0.601,-0.141
0.602,-0.141
0.603,-0.144
0.604,-0.141
0.605,-0.144
0.606,-0.148
0.607,-0.150
0.608,-0.151
0.609,-0.150
0.610,-0.149
0.611,-0.144
0.612,-0.133
0.613,-0.125
0.614,-0.128
0.615,-0.128
0.616,-0.126
0.617,-0.125
0.618,-0.125
0.619,-0.128
0.620,-0.126
0.621,-0.128
0.622,-0.129
0.623,-0.128
0.624,-0.128
0.625,-0.125
0.626,-0.128
0.627,-0.128
0.628,-0.124
0.629,-0.122
0.630,-0.125
0.631,-0.122
0.632,-0.125
0.633,-0.125
0.634,-0.125
0.635,-0.125
0.636,-0.125
0.637,-0.125
0.638,-0.124
0.639,-0.122
0.640,-0.122
0.641,-0.122
0.642,-0.123
0.643,-0.122
0.644,-0.123
0.645,-0.122
0.646,-0.118
0.647,-0.113
0.648,-0.114
0.649,-0.113
0.650,-0.111
0.651,-0.113
0.652,-0.108
0.653,-0.106
0.654,-0.108
0.655,-0.109
0.656,-0.106
0.657,-0.106
0.658,-0.106
0.659,-0.106
0.660,-0.108
0.661,-0.106
0.662,-0.106
0.663,-0.106
0.664,-0.104
0.665,-0.106
0.666,-0.100
0.667,-0.100
0.668,-0.097
0.669,-0.094
0.670,-0.091
0.671,-0.091
0.672,-0.094
0.673,-0.097
0.674,-0.098
0.675,-0.100
0.676,-0.094
0.677,-0.091
0.678,-0.089
0.679,-0.087
0.680,-0.087
0.681,-0.087
0.682,-0.087
0.683,-0.084
0.684,-0.084
0.685,-0.084
0.686,-0.087
0.687,-0.087
0.688,-0.087
0.689,-0.084
0.690,-0.083
0.691,-0.081
0.692,-0.077
0.693,-0.078
0.694,-0.074
0.695,-0.072
0.696,-0.073
0.697,-0.072
0.698,-0.072
0.699,-0.069
0.700,-0.070
0.701,-0.069
0.702,-0.069
0.703,-0.069
0.704,-0.067
0.705,-0.066
0.706,-0.059
0.707,-0.050
0.708,-0.050
0.709,-0.047
0.710,-0.053
0.711,-0.053
0.712,-0.050
0.713,-0.050
0.714,-0.047
0.715,-0.047
0.716,-0.041
0.717,-0.034
0.718,-0.033
0.719,-0.031
0.720,-0.031
0.721,-0.028
0.722,-0.025
0.723,-0.019
0.724,-0.019
0.725,-0.016
0.726,-0.014
0.727,-0.016
0.728,-0.014
0.729,-0.013
0.730,-0.013
0.731,-0.013
0.732,-0.013
0.733,-0.013
0.734,-0.011
0.735,-0.009
0.736,-0.006
0.737,0.000
0.738,0.002
0.739,0.003
0.740,0.004
0.741,0.006
0.742,0.009
0.743,0.012
0.744,0.016
0.745,0.022
0.746,0.026
0.747,0.028
0.748,0.027
0.749,0.025
0.750,0.028
0.751,0.031
0.752,0.033
0.753,0.037
0.754,0.037
0.755,0.037
0.756,0.036
0.757,0.037
0.758,0.034
0.759,0.034
0.760,0.034
0.761,0.041
0.762,0.044
0.763,0.047
0.764,0.051
0.765,0.053
0.766,0.056
0.767,0.056
0.768,0.058
0.769,0.059
0.770,0.062
0.771,0.066
0.772,0.070
0.773,0.075
0.774,0.077
0.775,0.078
0.776,0.081
0.777,0.081
0.778,0.086
0.779,0.091
0.780,0.095
0.781,0.100
0.782,0.100
0.783,0.100
0.784,0.103
0.785,0.103
0.786,0.105
0.787,0.106
0.788,0.109
0.789,0.112
0.790,0.114
0.791,0.116
0.792,0.112
0.793,0.112
0.794,0.112
0.795,0.109
0.796,0.114
0.797,0.116
0.798,0.114
0.799,0.109
0.800,0.106
0.801,0.100
0.802,0.100
0.803,0.097
0.804,0.098
0.805,0.097
0.806,0.092
0.807,0.087
0.808,0.084
0.809,0.075
0.810,0.069
0.811,0.062
0.812,0.059
0.813,0.056
0.814,0.051
0.815,0.047
0.816,0.041
0.817,0.034
0.818,0.027
0.819,0.022
0.820,0.017
0.821,0.016
0.822,0.008
0.823,0.000
0.824,-0.005
0.825,-0.006
0.826,-0.013
0.827,-0.016
0.828,-0.022
0.829,-0.028
0.830,-0.036
0.831,-0.041
0.832,-0.043
0.833,-0.044
0.834,-0.043
0.835,-0.044
0.836,-0.046
0.837,-0.050
0.838,-0.050
0.839,-0.053
0.840,-0.054
0.841,-0.059
0.842,-0.059
0.843,-0.066
0.844,-0.069
0.845,-0.069
0.846,-0.068
0.847,-0.066
0.848,-0.068
0.849,-0.069
0.850,-0.070
0.851,-0.069
0.852,-0.069
0.853,-0.072
0.854,-0.076
0.855,-0.081
0.856,-0.081
0.857,-0.084
0.858,-0.080
0.859,-0.075
0.860,-0.076
0.861,-0.078
0.862,-0.078
0.863,-0.078
0.864,-0.079
0.865,-0.081
0.866,-0.084
0.867,-0.087
0.868,-0.086
0.869,-0.084
0.870,-0.080
0.871,-0.078
0.872,-0.078
0.873,-0.078
0.874,-0.078
0.875,-0.078
0.876,-0.079
0.877,-0.081
0.878,-0.077
0.879,-0.075
0.880,-0.076
0.881,-0.078
0.882,-0.076
0.883,-0.078
0.884,-0.077
0.885,-0.075
0.886,-0.079
0.887,-0.078
0.888,-0.075
0.889,-0.072
0.890,-0.075
0.891,-0.075
0.892,-0.074
0.893,-0.072
0.894,-0.069
0.895,-0.069
0.896,-0.070
0.897,-0.072
0.898,-0.073
0.899,-0.072
0.900,-0.073
0.901,-0.072
0.902,-0.069
0.903,-0.069
0.904,-0.067
0.905,-0.069
0.906,-0.071
0.907,-0.069
0.908,-0.069
0.909,-0.069
0.910,-0.070
0.911,-0.069
0.912,-0.066
0.913,-0.066
0.914,-0.066
0.915,-0.066
0.916,-0.067
0.917,-0.069
0.918,-0.068
0.919,-0.066
0.920,-0.061
0.921,-0.056
0.922,-0.056
0.923,-0.056
0.924,-0.056
0.925,-0.056
0.926,-0.059
0.927,-0.066
0.928,-0.067
0.929,-0.069
0.930,-0.068
0.931,-0.066
0.932,-0.069
0.933,-0.066
0.934,-0.066
0.935,-0.066
0.936,-0.066
0.937,-0.066
0.938,-0.064
0.939,-0.066
0.940,-0.067
0.941,-0.069
0.942,-0.069
0.943,-0.069
0.944,-0.068
0.945,-0.066
0.946,-0.070
0.947,-0.072
0.948,-0.073
0.949,-0.075
0.950,-0.074
0.951,-0.075
0.952,-0.075
0.953,-0.081
0.954,-0.081
0.955,-0.081
0.956,-0.081
0.957,-0.081
0.958,-0.080
0.959,-0.078
0.960,-0.079
0.961,-0.081
0.962,-0.080
0.963,-0.081
0.964,-0.081
0.965,-0.081
0.966,-0.084
0.967,-0.084
0.968,-0.086
0.969,-0.084
0.970,-0.081
0.971,-0.081
0.972,-0.084
0.973,-0.084
0.974,-0.086
0.975,-0.087
0.976,-0.086
0.977,-0.084
0.978,-0.084
0.979,-0.084
0.980,-0.086
0.981,-0.087
0.982,-0.084
0.983,-0.087
0.984,-0.091
0.985,-0.091
0.986,-0.089
0.987,-0.087
0.988,-0.091
0.989,-0.091
0.990,-0.087
0.991,-0.087
0.992,-0.081
0.993,-0.075
0.994,-0.072
0.995,-0.072
0.996,-0.072
0.997,-0.069
0.998,-0.063
0.999,-0.056
1.000,-0.046
1.001,-0.031
1.002,-0.021
1.003,-0.009
1.004,-0.001
1.005,0.000
1.006,0.005
1.007,0.009
1.008,0.016
1.009,0.022
1.010,0.023
1.011,0.022
1.012,0.017
1.013,0.009
1.014,0.003
1.015,0.000
1.016,-0.003
1.017,-0.006
1.018,-0.003
1.019,0.003
1.020,0.011
1.021,0.022
1.022,0.036
1.023,0.041
1.024,0.039
1.025,0.041
1.026,0.042
1.027,0.053
1.028,0.059
1.029,0.069
1.030,0.077
1.031,0.078
1.032,0.081
1.033,0.084
1.034,0.086
1.035,0.084
1.036,0.074
1.037,0.062
1.038,0.057
1.039,0.050
1.040,0.041
1.041,0.034
1.042,0.027
1.043,0.019
1.044,0.012
1.045,0.003
1.046,-0.006
1.047,-0.016
1.048,-0.022
1.049,-0.028
1.050,-0.038
1.051,-0.044
1.052,-0.047
1.053,-0.053
1.054,-0.056
1.055,-0.066
1.056,-0.072
1.057,-0.081
1.058,-0.095
1.059,-0.106
1.060,-0.116
1.061,-0.119
1.062,-0.116
1.063,-0.113
1.064,-0.111
1.065,-0.109
1.066,-0.108
1.067,-0.113
1.068,-0.117
1.069,-0.122
1.070,-0.124
1.071,-0.125
1.072,-0.126
1.073,-0.128
1.074,-0.129
1.075,-0.134
1.076,-0.133
1.077,-0.134
1.078,-0.131
1.079,-0.134
1.080,-0.136
1.081,-0.137
1.082,-0.134
1.083,-0.134
1.084,-0.141
1.085,-0.144
1.086,-0.147
1.087,-0.147
1.088,-0.154
1.089,-0.156
1.090,-0.150
1.091,-0.144
1.092,-0.145
1.093,-0.144
1.094,-0.147
1.095,-0.147
1.096,-0.148
1.097,-0.150
1.098,-0.147
1.099,-0.147
1.100,-0.146
1.101,-0.147
1.102,-0.148
1.103,-0.147
1.104,-0.143
1.105,-0.137
1.106,-0.139
1.107,-0.137
1.108,-0.141
1.109,-0.147
1.110,-0.147
1.111,-0.150
1.112,-0.148
1.113,-0.150
1.114,-0.144
1.115,-0.137
1.116,-0.139
1.117,-0.141
1.118,-0.142
1.119,-0.144
1.120,-0.144
1.121,-0.144
1.122,-0.143
1.123,-0.141
1.124,-0.141
1.125,-0.141
1.126,-0.144
1.127,-0.147
1.128,-0.150
1.129,-0.153
1.130,-0.156
1.131,-0.159
1.132,-0.167
1.133,-0.178
1.134,-0.186
1.135,-0.200
1.136,-0.211
1.137,-0.213
1.138,-0.211
1.139,-0.209
1.140,-0.211
1.141,-0.203
1.142,-0.191
1.143,-0.178
1.144,-0.159
1.145,-0.125
1.146,-0.096
1.147,-0.047
1.148,0.009
1.149,0.081
1.150,0.159
1.151,0.250
1.152,0.347
1.153,0.447
1.154,0.551
1.155,0.681
1.156,0.823
1.157,0.966
1.158,1.105
1.159,1.222
1.160,1.327
1.161,1.428
1.162,1.529
1.163,1.628
1.164,1.711
1.165,1.781
1.166,1.850
1.167,1.922
1.168,1.983
1.169,1.991
1.170,1.977
1.171,1.891
1.172,1.778
1.173,1.637
1.174,1.516
1.175,1.281
1.176,1.109
1.177,0.953
1.178,0.806
1.179,0.659
1.180,0.506
1.181,0.381
1.182,0.273
1.183,0.194
1.184,0.125
1.185,0.081
1.186,0.047
1.187,0.022
1.188,0.000
1.189,-0.013
1.190,-0.025
1.191,-0.038
1.192,-0.044
1.193,-0.047
1.194,-0.053
1.195,-0.063
1.196,-0.067
1.197,-0.078
1.198,-0.081
1.199,-0.084
1.200,-0.091
1.201,-0.100
1.202,-0.100
1.203,-0.103
1.204,-0.108
1.205,-0.109
1.206,-0.111
1.207,-0.113
1.208,-0.114
1.209,-0.119
1.210,-0.123
1.211,-0.122
1.212,-0.122
1.213,-0.122
1.214,-0.124
1.215,-0.122
1.216,-0.125
1.217,-0.125
1.218,-0.126
1.219,-0.128
1.220,-0.129
1.221,-0.134
1.222,-0.131
1.223,-0.134
1.224,-0.134
1.225,-0.131
1.226,-0.136
1.227,-0.137
1.228,-0.131
1.229,-0.131
1.230,-0.131
1.231,-0.131
1.232,-0.136
1.233,-0.141
1.234,-0.139
1.235,-0.141
1.236,-0.137
1.237,-0.141
1.238,-0.139
1.239,-0.134
1.240,-0.134
1.241,-0.131
1.242,-0.131
1.243,-0.128
1.244,-0.125
1.245,-0.125
1.246,-0.128
1.247,-0.128
1.248,-0.124
1.249,-0.119
1.250,-0.116
1.251,-0.116
1.252,-0.114
1.253,-0.116
1.254,-0.117
1.255,-0.116
1.256,-0.116
1.257,-0.113
1.258,-0.119
1.259,-0.122
1.260,-0.114
1.261,-0.109
1.262,-0.114
1.263,-0.113
1.264,-0.116
1.265,-0.116
1.266,-0.114
1.267,-0.113
1.268,-0.114
1.269,-0.116
1.270,-0.113
1.271,-0.109
1.272,-0.109
1.273,-0.109
1.274,-0.108
1.275,-0.103
1.276,-0.104
1.277,-0.103
1.278,-0.103
1.279,-0.103
1.280,-0.106
1.281,-0.106
1.282,-0.099
1.283,-0.094
1.284,-0.091
1.285,-0.091
1.286,-0.092
1.287,-0.094
1.288,-0.091
1.289,-0.091
1.290,-0.092
1.291,-0.094
1.292,-0.097
1.293,-0.097
1.294,-0.097
1.295,-0.097
1.296,-0.094
1.297,-0.094
1.298,-0.089
1.299,-0.091
1.300,-0.091
1.301,-0.091
1.302,-0.087
1.303,-0.087
1.304,-0.086
1.305,-0.084
1.306,-0.086
1.307,-0.087
1.308,-0.084
1.309,-0.084
1.310,-0.081
1.311,-0.078
1.312,-0.078
1.313,-0.078
1.314,-0.083
1.315,-0.084
1.316,-0.084
1.317,-0.084
1.318,-0.081
1.319,-0.075
1.320,-0.076
1.321,-0.075
1.322,-0.074
1.323,-0.072
1.324,-0.069
1.325,-0.072
1.326,-0.066
1.327,-0.063
1.328,-0.061
1.329,-0.056
1.330,-0.061
1.331,-0.063
1.332,-0.063
1.333,-0.059
1.334,-0.058
1.335,-0.056
1.336,-0.053
1.337,-0.050
1.338,-0.051
1.339,-0.050
1.340,-0.050
1.341,-0.047
1.342,-0.049
1.343,-0.044
1.344,-0.041
1.345,-0.041
1.346,-0.038
1.347,-0.038
1.348,-0.034
1.349,-0.031
1.350,-0.028
1.351,-0.025
1.352,-0.026
1.353,-0.025
1.354,-0.025
1.355,-0.022
1.356,-0.022
1.357,-0.019
1.358,-0.016
1.359,-0.016
1.360,-0.014
1.361,-0.013
1.362,-0.009
1.363,-0.006
1.364,-0.004
1.365,-0.003
1.366,-0.003
1.367,-0.003
1.368,-0.003
1.369,0.000
1.370,0.003
1.371,0.006
1.372,0.006
1.373,0.006
1.374,0.006
1.375,0.006
1.376,0.009
1.377,0.016
1.378,0.019
1.379,0.019
1.380,0.016
1.381,0.012
1.382,0.017
1.383,0.022
1.384,0.022
1.385,0.025
1.386,0.028
1.387,0.031
1.388,0.033
1.389,0.037
1.390,0.036
1.391,0.037
1.392,0.037
1.393,0.044
1.394,0.046
1.395,0.047
1.396,0.049
1.397,0.047
1.398,0.049
1.399,0.047
1.400,0.053
1.401,0.059
1.402,0.061
1.403,0.062
1.404,0.067
1.405,0.072
1.406,0.076
1.407,0.081
1.408,0.084
1.409,0.084
1.410,0.084
1.411,0.084
1.412,0.091
1.413,0.097
1.414,0.100
1.415,0.103
1.416,0.103
1.417,0.100
1.418,0.104
1.419,0.109
1.420,0.111
1.421,0.112
1.422,0.114
1.423,0.116
1.424,0.109
1.425,0.106
1.426,0.107
1.427,0.106
1.428,0.106
1.429,0.103
1.430,0.103
1.431,0.100
1.432,0.097
1.433,0.091
1.434,0.089
1.435,0.084
1.436,0.087
1.437,0.087
1.438,0.084
1.439,0.081
1.440,0.081
1.441,0.075
1.442,0.070
1.443,0.066
1.444,0.061
1.445,0.056
1.446,0.051
1.447,0.047
1.448,0.042
1.449,0.037
1.450,0.034
1.451,0.034
1.452,0.024
1.453,0.016
1.454,0.008
1.455,0.000
1.456,-0.009
1.457,-0.016
1.458,-0.023
1.459,-0.028
1.460,-0.028
1.461,-0.028
1.462,-0.034
1.463,-0.038
1.464,-0.047
1.465,-0.056
1.466,-0.058
1.467,-0.063
1.468,-0.063
1.469,-0.066
1.470,-0.064
1.471,-0.066
1.472,-0.064
1.473,-0.066
1.474,-0.064
1.475,-0.069
1.476,-0.072
1.477,-0.072
1.478,-0.072
1.479,-0.072
1.480,-0.076
1.481,-0.081
1.482,-0.083
1.483,-0.081
1.484,-0.080
1.485,-0.081
1.486,-0.081
1.487,-0.081
1.488,-0.080
1.489,-0.081
1.490,-0.087
1.491,-0.094
1.492,-0.097
1.493,-0.100
1.494,-0.100
1.495,-0.100
1.496,-0.097
1.497,-0.094
1.498,-0.094
1.499,-0.094
1.500,-0.094
1.501,-0.094
1.502,-0.091
1.503,-0.091
1.504,-0.086
1.505,-0.081
1.506,-0.081
1.507,-0.081
1.508,-0.083
1.509,-0.084
1.510,-0.084
1.511,-0.087
1.512,-0.087
1.513,-0.087
1.514,-0.084
1.515,-0.084
1.516,-0.083
1.517,-0.081
1.518,-0.081
1.519,-0.075
1.520,-0.074
1.521,-0.072
1.522,-0.076
1.523,-0.078
1.524,-0.078
1.525,-0.078
1.526,-0.074
1.527,-0.072
1.528,-0.072
1.529,-0.072
1.530,-0.078
1.531,-0.081
1.532,-0.083
1.533,-0.081
1.534,-0.081
1.535,-0.084
1.536,-0.083
1.537,-0.084
1.538,-0.086
1.539,-0.084
1.540,-0.086
1.541,-0.087
1.542,-0.087
1.543,-0.084
1.544,-0.083
1.545,-0.084
1.546,-0.083
1.547,-0.081
1.548,-0.080
1.549,-0.078
1.550,-0.078
1.551,-0.078
1.552,-0.078
1.553,-0.078
1.554,-0.079
1.555,-0.081
1.556,-0.081
1.557,-0.081
1.558,-0.078
1.559,-0.078
1.560,-0.079
1.561,-0.081
1.562,-0.086
1.563,-0.084
1.564,-0.084
1.565,-0.084
1.566,-0.083
1.567,-0.081
1.568,-0.086
1.569,-0.084
1.570,-0.086
1.571,-0.087
1.572,-0.089
1.573,-0.091
1.574,-0.086
1.575,-0.084
1.576,-0.084
1.577,-0.084
1.578,-0.089
1.579,-0.094
1.580,-0.094
1.581,-0.094
1.582,-0.097
1.583,-0.097
1.584,-0.098
1.585,-0.100
1.586,-0.097
1.587,-0.097
1.588,-0.094
1.589,-0.097
1.590,-0.098
1.591,-0.100
1.592,-0.101
1.593,-0.103
1.594,-0.103
1.595,-0.103
1.596,-0.103
1.597,-0.103
1.598,-0.102
1.599,-0.103
1.600,-0.103
1.601,-0.103
1.602,-0.105
1.603,-0.103
1.604,-0.106
1.605,-0.106
1.606,-0.105
1.607,-0.106
1.608,-0.109
1.609,-0.109
1.610,-0.108
1.611,-0.106
1.612,-0.108
1.613,-0.109
1.614,-0.113
1.615,-0.116
1.616,-0.116
1.617,-0.116
1.618,-0.111
1.619,-0.113
1.620,-0.114
1.621,-0.113
1.622,-0.114
1.623,-0.116
1.624,-0.117
1.625,-0.116
1.626,-0.113
1.627,-0.113
1.628,-0.111
1.629,-0.109
1.630,-0.103
1.631,-0.100
1.632,-0.097
1.633,-0.091
1.634,-0.083
1.635,-0.075
1.636,-0.067
1.637,-0.056
1.638,-0.047
1.639,-0.038
1.640,-0.029
1.641,-0.028
1.642,-0.022
1.643,-0.016
1.644,-0.014
1.645,-0.013
1.646,-0.011
1.647,-0.013
1.648,-0.011
1.649,-0.013
1.650,-0.019
1.651,-0.022
1.652,-0.022
1.653,-0.022
1.654,-0.020
1.655,-0.016
1.656,-0.011
1.657,-0.003
1.658,0.008
1.659,0.009
1.660,0.014
1.661,0.022
1.662,0.023
1.663,0.034
1.664,0.037
1.665,0.044
1.666,0.054
1.667,0.059
1.668,0.058
1.669,0.056
1.670,0.052
1.671,0.044
1.672,0.039
1.673,0.034
1.674,0.029
1.675,0.022
1.676,0.009
1.677,0.000
1.678,-0.005
1.679,-0.009
1.680,-0.014
1.681,-0.022
1.682,-0.030
1.683,-0.038
1.684,-0.047
1.685,-0.056
1.686,-0.066
1.687,-0.072
1.688,-0.076
1.689,-0.084
1.690,-0.091
1.691,-0.103
1.692,-0.109
1.693,-0.119
1.694,-0.130
1.695,-0.137
1.696,-0.143
1.697,-0.141
1.698,-0.141
1.699,-0.141
1.700,-0.141
1.701,-0.141
1.702,-0.142
1.703,-0.150
1.704,-0.150
1.705,-0.150
1.706,-0.153
1.707,-0.156
1.708,-0.156
1.709,-0.156
1.710,-0.155
1.711,-0.156
1.712,-0.161
1.713,-0.169
1.714,-0.166
1.715,-0.169
1.716,-0.166
1.717,-0.163
1.718,-0.163
1.719,-0.166
1.720,-0.170
1.721,-0.172
1.722,-0.174
1.723,-0.172
1.724,-0.174
1.725,-0.169
1.726,-0.169
1.727,-0.169
1.728,-0.169
1.729,-0.166
1.730,-0.169
1.731,-0.169
1.732,-0.170
1.733,-0.172
1.734,-0.169
1.735,-0.169
1.736,-0.168
1.737,-0.169
1.738,-0.169
1.739,-0.166
1.740,-0.167
1.741,-0.169
1.742,-0.168
1.743,-0.163
1.744,-0.163
1.745,-0.166
1.746,-0.166
1.747,-0.169
1.748,-0.164
1.749,-0.163
1.750,-0.163
1.751,-0.163
1.752,-0.163
1.753,-0.163
1.754,-0.163
1.755,-0.163
1.756,-0.163
1.757,-0.163
1.758,-0.163
1.759,-0.163
1.760,-0.166
1.761,-0.169
1.762,-0.178
1.763,-0.188
1.764,-0.191
1.765,-0.194
1.766,-0.199
1.767,-0.203
1.768,-0.211
1.769,-0.222
1.770,-0.228
1.771,-0.241
1.772,-0.250
1.773,-0.250
1.774,-0.246
1.775,-0.241
1.776,-0.228
1.777,-0.206
1.778,-0.194
1.779,-0.181
1.780,-0.163
1.781,-0.128
1.782,-0.096
1.783,-0.044
1.784,0.020
1.785,0.100
1.786,0.181
1.787,0.275
1.788,0.370
1.789,0.469
1.790,0.573
1.791,0.703
1.792,0.831
1.793,0.959
1.794,1.086
1.795,1.191
1.796,1.297
1.797,1.400
1.798,1.501
1.799,1.600
1.800,1.693
1.801,1.772
1.802,1.830
1.803,1.891
1.804,1.903
1.805,1.863
1.806,1.819
1.807,1.703
1.808,1.578
1.809,1.425
1.810,1.322
1.811,1.106
1.812,0.936
1.813,0.781
1.814,0.636
1.815,0.491
1.816,0.350
1.817,0.238
1.818,0.156
1.819,0.103
1.820,0.057
1.821,0.037
1.822,0.012
1.823,-0.003
1.824,-0.024
1.825,-0.034
1.826,-0.048
1.827,-0.063
1.828,-0.072
1.829,-0.078
1.830,-0.084
1.831,-0.094
1.832,-0.094
1.833,-0.100
1.834,-0.106
1.835,-0.113
1.836,-0.116
1.837,-0.122
1.838,-0.121
1.839,-0.122
1.840,-0.131
1.841,-0.137
1.842,-0.141
1.843,-0.144
1.844,-0.141
1.845,-0.141
1.846,-0.144
1.847,-0.141
1.848,-0.141
1.849,-0.141
1.850,-0.147
1.851,-0.150
1.852,-0.152
1.853,-0.150
1.854,-0.150
1.855,-0.150
1.856,-0.151
1.857,-0.156
1.858,-0.154
1.859,-0.159
1.860,-0.159
1.861,-0.156
1.862,-0.158
1.863,-0.156
1.864,-0.153
1.865,-0.156
1.866,-0.156
1.867,-0.156
1.868,-0.155
1.869,-0.153
1.870,-0.150
1.871,-0.150
1.872,-0.146
1.873,-0.147
1.874,-0.150
1.875,-0.150
1.876,-0.151
1.877,-0.150
1.878,-0.151
1.879,-0.150
1.880,-0.146
1.881,-0.144
1.882,-0.144
1.883,-0.141
1.884,-0.144
1.885,-0.147
1.886,-0.151
1.887,-0.159
1.888,-0.147
1.889,-0.137
1.890,-0.136
1.891,-0.131
1.892,-0.136
1.893,-0.137
1.894,-0.139
1.895,-0.137
1.896,-0.137
1.897,-0.141
1.898,-0.145
1.899,-0.144
1.900,-0.145
1.901,-0.144
1.902,-0.144
1.903,-0.144
1.904,-0.141
1.905,-0.137
1.906,-0.134
1.907,-0.131
1.908,-0.133
1.909,-0.134
1.910,-0.133
1.911,-0.128
1.912,-0.128
1.913,-0.125
1.914,-0.126
1.915,-0.128
1.916,-0.129
1.917,-0.128
1.918,-0.127
1.919,-0.128
1.920,-0.124
1.921,-0.122
1.922,-0.123
1.923,-0.125
1.924,-0.125
1.925,-0.128
1.926,-0.128
1.927,-0.128
1.928,-0.125
1.929,-0.119
1.930,-0.120
1.931,-0.122
1.932,-0.120
1.933,-0.122
1.934,-0.119
1.935,-0.122
1.936,-0.123
1.937,-0.125
1.938,-0.119
1.939,-0.116
1.940,-0.114
1.941,-0.113
1.942,-0.114
1.943,-0.116
1.944,-0.113
1.945,-0.113
1.946,-0.113
1.947,-0.113
1.948,-0.109
1.949,-0.106
1.950,-0.100
1.951,-0.091
1.952,-0.092
1.953,-0.094
1.954,-0.095
1.955,-0.094
1.956,-0.097
1.957,-0.097
1.958,-0.098
1.959,-0.100
1.960,-0.093
1.961,-0.091
1.962,-0.086
1.963,-0.084
1.964,-0.086
1.965,-0.084
1.966,-0.086
1.967,-0.084
1.968,-0.084
1.969,-0.081
1.970,-0.081
1.971,-0.081
1.972,-0.078
1.973,-0.075
1.974,-0.075
1.975,-0.072
1.976,-0.073
1.977,-0.072
1.978,-0.075
1.979,-0.072
1.980,-0.069
1.981,-0.069
1.982,-0.067
1.983,-0.069
1.984,-0.064
1.985,-0.059
1.986,-0.052
1.987,-0.044
1.988,-0.044
1.989,-0.041
1.990,-0.042
1.991,-0.041
1.992,-0.042
1.993,-0.041
1.994,-0.034
1.995,-0.031
1.996,-0.031
1.997,-0.031
1.998,-0.031
1.999,-0.031
2.000,-0.027
2.001,-0.022
2.002,-0.020
2.003,-0.019
2.004,-0.019
2.005,-0.016
2.006,-0.014
2.007,-0.013
2.008,-0.013
2.009,-0.013
2.010,-0.009
2.011,-0.006
2.012,-0.006
2.013,-0.003
2.014,-0.001
2.015,-0.003
2.016,-0.002
2.017,0.000
2.018,0.002
2.019,0.003
2.020,0.003
2.021,0.006
2.022,0.008
2.023,0.009
2.024,0.008
2.025,0.009
2.026,0.012
2.027,0.019
2.028,0.012
2.029,0.012
2.030,0.017
2.031,0.022
2.032,0.025
2.033,0.025
2.034,0.027
2.035,0.025
2.036,0.029
2.037,0.034
2.038,0.037
2.039,0.041
2.040,0.041
2.041,0.041
2.042,0.042
2.043,0.044
2.044,0.050
2.045,0.053
2.046,0.056
2.047,0.059
2.048,0.062
2.049,0.066
2.050,0.069
2.051,0.072
2.052,0.078
2.053,0.081
2.054,0.081
2.055,0.081
2.056,0.080
2.057,0.078
2.058,0.080
2.059,0.081
2.060,0.084
2.061,0.091
2.062,0.094
2.063,0.094
2.064,0.092
2.065,0.087
2.066,0.086
2.067,0.081
2.068,0.078
2.069,0.072
2.070,0.076
2.071,0.078
2.072,0.077
2.073,0.072
2.074,0.064
2.075,0.056
2.076,0.056
2.077,0.050
2.078,0.042
2.079,0.034
2.080,0.031
2.081,0.028
2.082,0.021
2.083,0.012
2.084,0.009
2.085,0.006
2.086,0.000
2.087,-0.003
2.088,-0.014
2.089,-0.022
2.090,-0.027
2.091,-0.031
2.092,-0.034
2.093,-0.034
2.094,-0.042
2.095,-0.047
2.096,-0.051
2.097,-0.056
2.098,-0.061
2.099,-0.063
2.100,-0.068
2.101,-0.072
2.102,-0.075
2.103,-0.081
2.104,-0.081
2.105,-0.084
2.106,-0.084
2.107,-0.087
2.108,-0.091
2.109,-0.097
2.110,-0.094
2.111,-0.097
2.112,-0.100
2.113,-0.100
2.114,-0.101
2.115,-0.103
2.116,-0.105
2.117,-0.106
2.118,-0.109
2.119,-0.109
2.120,-0.108
2.121,-0.109
2.122,-0.109
2.123,-0.109
2.124,-0.113
2.125,-0.119
2.126,-0.120
2.127,-0.122
2.128,-0.121
2.129,-0.119
2.130,-0.118
2.131,-0.116
2.132,-0.116
2.133,-0.116
2.134,-0.116
2.135,-0.116
2.136,-0.116
2.137,-0.116
2.138,-0.114
2.139,-0.116
2.140,-0.113
2.141,-0.109
2.142,-0.109
2.143,-0.109
2.144,-0.108
2.145,-0.106
2.146,-0.103
2.147,-0.103
2.148,-0.104
2.149,-0.106
2.150,-0.103
2.151,-0.103
2.152,-0.103
2.153,-0.103
2.154,-0.106
2.155,-0.103
2.156,-0.102
2.157,-0.100
2.158,-0.104
2.159,-0.106
2.160,-0.106
2.161,-0.106
2.162,-0.103
2.163,-0.103
2.164,-0.099
2.165,-0.094
2.166,-0.097
2.167,-0.097
2.168,-0.100
2.169,-0.100
2.170,-0.097
2.171,-0.097
2.172,-0.098
2.173,-0.103
2.174,-0.106
2.175,-0.106
2.176,-0.102
2.177,-0.097
2.178,-0.100
2.179,-0.100
2.180,-0.099
2.181,-0.100
2.182,-0.100
2.183,-0.100
2.184,-0.100
2.185,-0.100
2.186,-0.100
2.187,-0.100
2.188,-0.100
2.189,-0.100
2.190,-0.100
2.191,-0.100
2.192,-0.100
2.193,-0.100
2.194,-0.100
2.195,-0.100
2.196,-0.101
2.197,-0.103
2.198,-0.106
2.199,-0.103
2.200,-0.103
2.201,-0.103
2.202,-0.100
2.203,-0.097
2.204,-0.098
2.205,-0.103
2.206,-0.104
2.207,-0.106
2.208,-0.106
2.209,-0.106
2.210,-0.106
2.211,-0.106
2.212,-0.109
2.213,-0.109
2.214,-0.109
2.215,-0.109
2.216,-0.108
2.217,-0.109
2.218,-0.106
2.219,-0.109
2.220,-0.109
2.221,-0.109
2.222,-0.109
2.223,-0.109
2.224,-0.113
2.225,-0.116
2.226,-0.117
2.227,-0.119
2.228,-0.114
2.229,-0.113
2.230,-0.114
2.231,-0.116
2.232,-0.120
2.233,-0.122
2.234,-0.119
2.235,-0.113
2.236,-0.113
2.237,-0.116
2.238,-0.120
2.239,-0.122
2.240,-0.123
2.241,-0.125
2.242,-0.125
2.243,-0.125
2.244,-0.125
2.245,-0.125
2.246,-0.125
2.247,-0.125
2.248,-0.121
2.249,-0.122
2.250,-0.125
2.251,-0.125
2.252,-0.125
2.253,-0.125
2.254,-0.122
2.255,-0.116
2.256,-0.114
2.257,-0.116
2.258,-0.113
2.259,-0.109
2.260,-0.105
2.261,-0.103
2.262,-0.101
2.263,-0.097
2.264,-0.089
2.265,-0.081
2.266,-0.075
2.267,-0.066
2.268,-0.055
2.269,-0.044
2.270,-0.034
2.271,-0.031
2.272,-0.025
2.273,-0.019
2.274,-0.013
2.275,-0.006
2.276,-0.006
2.277,-0.009
2.278,-0.014
2.279,-0.022
2.280,-0.029
2.281,-0.034
2.282,-0.034
2.283,-0.034
2.284,-0.028
2.285,-0.019
2.286,-0.006
2.287,0.009
2.288,0.021
2.289,0.022
2.290,0.022
2.291,0.025
2.292,0.024
2.293,0.031
2.294,0.037
2.295,0.047
2.296,0.056
2.297,0.059
2.298,0.061
2.299,0.062
2.300,0.056
2.301,0.047
2.302,0.037
2.303,0.028
2.304,0.022
2.305,0.012
2.306,0.004
2.307,0.000
2.308,-0.003
2.309,-0.006
2.310,-0.011
2.311,-0.019
2.312,-0.027
2.313,-0.034
2.314,-0.044
2.315,-0.053
2.316,-0.066
2.317,-0.075
2.318,-0.078
2.319,-0.084
2.320,-0.086
2.321,-0.094
2.322,-0.101
2.323,-0.113
2.324,-0.124
2.325,-0.131
2.326,-0.139
2.327,-0.141
2.328,-0.141
2.329,-0.141
2.330,-0.141
2.331,-0.141
2.332,-0.137
2.333,-0.141
2.334,-0.147
2.335,-0.153
2.336,-0.156
2.337,-0.159
2.338,-0.161
2.339,-0.163
2.340,-0.161
2.341,-0.163
2.342,-0.163
2.343,-0.166
2.344,-0.163
2.345,-0.166
2.346,-0.166
2.347,-0.166
2.348,-0.166
2.349,-0.169
2.350,-0.171
2.351,-0.169
2.352,-0.171
2.353,-0.169
2.354,-0.172
2.355,-0.169
2.356,-0.170
2.357,-0.172
2.358,-0.171
2.359,-0.166
2.360,-0.168
2.361,-0.166
2.362,-0.167
2.363,-0.169
2.364,-0.167
2.365,-0.169
2.366,-0.168
2.367,-0.169
2.368,-0.169
2.369,-0.166
2.370,-0.166
2.371,-0.166
2.372,-0.169
2.373,-0.169
2.374,-0.166
2.375,-0.166
2.376,-0.163
2.377,-0.163
2.378,-0.161
2.379,-0.163
2.380,-0.163
2.381,-0.163
2.382,-0.163
2.383,-0.163
2.384,-0.159
2.385,-0.156
2.386,-0.155
2.387,-0.153
2.388,-0.156
2.389,-0.159
2.390,-0.164
2.391,-0.169
2.392,-0.175
2.393,-0.181
2.394,-0.189
2.395,-0.197
2.396,-0.200
2.397,-0.203
2.398,-0.206
2.399,-0.213
2.400,-0.218
2.401,-0.228
2.402,-0.244
2.403,-0.250
2.404,-0.250
2.405,-0.250
2.406,-0.242
2.407,-0.225
2.408,-0.206
2.409,-0.188
2.410,-0.163
2.411,-0.122
2.412,-0.091
2.413,-0.041
2.414,0.014
2.415,0.084
2.416,0.161
2.417,0.250
2.418,0.345
2.419,0.444
2.420,0.551
2.421,0.684
2.422,0.822
2.423,0.959
2.424,1.089
2.425,1.197
2.426,1.305
2.427,1.409
2.428,1.508
2.429,1.603
2.430,1.696
2.431,1.775
2.432,1.854
2.433,1.937
2.434,1.997
2.435,2.003
2.436,1.978
2.437,1.881
2.438,1.767
2.439,1.625
2.440,1.507
2.441,1.278
2.442,1.109
2.443,0.956
2.444,0.800
2.445,0.644
2.446,0.484
2.447,0.353
2.448,0.245
2.449,0.166
2.450,0.098
2.451,0.056
2.452,0.026
2.453,0.006
2.454,-0.014
2.455,-0.025
2.456,-0.038
2.457,-0.050
2.458,-0.058
2.459,-0.063
2.460,-0.066
2.461,-0.072
2.462,-0.074
2.463,-0.081
2.464,-0.089
2.465,-0.097
2.466,-0.101
2.467,-0.109
2.468,-0.111
2.469,-0.116
2.470,-0.119
2.471,-0.119
2.472,-0.121
2.473,-0.122
2.474,-0.122
2.475,-0.125
2.476,-0.128
2.477,-0.125
2.478,-0.125
2.479,-0.125
2.480,-0.133
2.481,-0.137
2.482,-0.144
2.483,-0.147
2.484,-0.146
2.485,-0.144
2.486,-0.139
2.487,-0.137
2.488,-0.134
2.489,-0.137
2.490,-0.137
2.491,-0.134
2.492,-0.139
2.493,-0.141
2.494,-0.137
2.495,-0.141
2.496,-0.142
2.497,-0.144
2.498,-0.144
2.499,-0.144
2.500,-0.137
2.501,-0.134
2.502,-0.133
2.503,-0.137
2.504,-0.141
2.505,-0.141
2.506,-0.144
2.507,-0.144
2.508,-0.143
2.509,-0.137
2.510,-0.136
2.511,-0.137
2.512,-0.141
2.513,-0.141
2.514,-0.141
2.515,-0.141
2.516,-0.139
2.517,-0.141
2.518,-0.139
2.519,-0.141
2.520,-0.142
2.521,-0.141
2.522,-0.137
2.523,-0.131
2.524,-0.133
2.525,-0.131
2.526,-0.129
2.527,-0.131
2.528,-0.134
2.529,-0.131
2.530,-0.128
2.531,-0.122
2.532,-0.122
2.533,-0.122
2.534,-0.122
2.535,-0.122
2.536,-0.122
2.537,-0.122
2.538,-0.123
2.539,-0.125
2.540,-0.128
2.541,-0.128
2.542,-0.124
2.543,-0.116
2.544,-0.114
2.545,-0.113
2.546,-0.116
2.547,-0.116
2.548,-0.117
2.549,-0.122
2.550,-0.116
2.551,-0.113
2.552,-0.111
2.553,-0.109
2.554,-0.108
2.555,-0.109
2.556,-0.109
2.557,-0.109
2.558,-0.109
2.559,-0.106
2.560,-0.103
2.561,-0.100
2.562,-0.098
2.563,-0.100
2.564,-0.097
2.565,-0.100
2.566,-0.100
2.567,-0.100
2.568,-0.096
2.569,-0.094
2.570,-0.093
2.571,-0.091
2.572,-0.091
2.573,-0.091
2.574,-0.089
2.575,-0.091
2.576,-0.091
2.577,-0.091
2.578,-0.087
2.579,-0.084
2.580,-0.083
2.581,-0.078
2.582,-0.078
2.583,-0.078
2.584,-0.081
2.585,-0.081
2.586,-0.083
2.587,-0.081
2.588,-0.080
2.589,-0.078
2.590,-0.075
2.591,-0.078
2.592,-0.076
2.593,-0.078
2.594,-0.075
2.595,-0.069
2.596,-0.069
2.597,-0.066
2.598,-0.066
2.599,-0.063
2.600,-0.061
2.601,-0.059
2.602,-0.059
2.603,-0.059
2.604,-0.058
2.605,-0.053
2.606,-0.054
2.607,-0.053
2.608,-0.056
2.609,-0.053
2.610,-0.049
2.611,-0.047
2.612,-0.047
2.613,-0.050
2.614,-0.047
2.615,-0.044
2.616,-0.041
2.617,-0.038
2.618,-0.034
2.619,-0.028
2.620,-0.027
2.621,-0.022
2.622,-0.023
2.623,-0.022
2.624,-0.020
2.625,-0.022
2.626,-0.020
2.627,-0.019
2.628,-0.019
2.629,-0.019
2.630,-0.019
2.631,-0.019
2.632,-0.011
2.633,-0.003
2.634,-0.003
2.635,0.000
2.636,0.002
2.637,0.003
2.638,0.006
2.639,0.009
2.640,0.011
2.641,0.012
2.642,0.012
2.643,0.016
2.644,0.017
2.645,0.016
2.646,0.019
2.647,0.022
2.648,0.024
2.649,0.025
2.650,0.024
2.651,0.025
2.652,0.027
2.653,0.028
2.654,0.028
2.655,0.031
2.656,0.034
2.657,0.041
2.658,0.037
2.659,0.041
2.660,0.042
2.661,0.044
2.662,0.047
2.663,0.047
2.664,0.047
2.665,0.044
2.666,0.047
2.667,0.050
2.668,0.054
2.669,0.059
2.670,0.062
2.671,0.066
2.672,0.070
2.673,0.075
2.674,0.077
2.675,0.075
2.676,0.078
2.677,0.081
2.678,0.083
2.679,0.084
2.680,0.084
2.681,0.084
2.682,0.089
2.683,0.091
2.684,0.100
2.685,0.109
2.686,0.108
2.687,0.106
2.688,0.109
2.689,0.112
2.690,0.109
2.691,0.109
2.692,0.109
2.693,0.106
2.694,0.106
2.695,0.103
2.696,0.104
2.697,0.103
2.698,0.100
2.699,0.094
2.700,0.094
2.701,0.091
2.702,0.087
2.703,0.081
2.704,0.076
2.705,0.072
2.706,0.073
2.707,0.069
2.708,0.064
2.709,0.059
2.710,0.056
2.711,0.053
2.712,0.050
2.713,0.047
2.714,0.041
2.715,0.034
2.716,0.027
2.717,0.022
2.718,0.016
2.719,0.012
2.720,0.011
2.721,0.009
2.722,0.000
2.723,-0.006
2.724,-0.014
2.725,-0.019
2.726,-0.022
2.727,-0.025
2.728,-0.030
2.729,-0.031
2.730,-0.039
2.731,-0.047
2.732,-0.047
2.733,-0.050
2.734,-0.053
2.735,-0.059
2.736,-0.059
2.737,-0.063
2.738,-0.061
2.739,-0.063
2.740,-0.066
2.741,-0.075
2.742,-0.079
2.743,-0.081
2.744,-0.077
2.745,-0.072
2.746,-0.072
2.747,-0.072
2.748,-0.073
2.749,-0.072
2.750,-0.071
2.751,-0.072
2.752,-0.072
2.753,-0.072
2.754,-0.071
2.755,-0.072
2.756,-0.072
2.757,-0.072
2.758,-0.072
2.759,-0.072
2.760,-0.075
2.761,-0.078
2.762,-0.078
2.763,-0.078
2.764,-0.079
2.765,-0.081
2.766,-0.081
2.767,-0.081
2.768,-0.078
2.769,-0.078
2.770,-0.075
2.771,-0.072
2.772,-0.075
2.773,-0.078
2.774,-0.079
2.775,-0.081
2.776,-0.077
2.777,-0.075
2.778,-0.072
2.779,-0.069
2.780,-0.066
2.781,-0.066
2.782,-0.066
2.783,-0.066
2.784,-0.070
2.785,-0.069
2.786,-0.069
2.787,-0.069
2.788,-0.072
2.789,-0.072
2.790,-0.073
2.791,-0.075
2.792,-0.073
2.793,-0.075
2.794,-0.076
2.795,-0.078
2.796,-0.078
2.797,-0.075
2.798,-0.075
2.799,-0.072
2.800,-0.071
2.801,-0.072
2.802,-0.069
2.803,-0.069
2.804,-0.071
2.805,-0.069
2.806,-0.069
2.807,-0.069
2.808,-0.070
2.809,-0.069
2.810,-0.066
2.811,-0.066
2.812,-0.066
2.813,-0.066
2.814,-0.069
2.815,-0.072
2.816,-0.072
2.817,-0.072
2.818,-0.073
2.819,-0.075
2.820,-0.079
2.821,-0.084
2.822,-0.083
2.823,-0.081
2.824,-0.077
2.825,-0.072
2.826,-0.071
2.827,-0.069
2.828,-0.073
2.829,-0.072
2.830,-0.073
2.831,-0.075
2.832,-0.078
2.833,-0.081
2.834,-0.081
2.835,-0.084
2.836,-0.084
2.837,-0.084
2.838,-0.084
2.839,-0.084
2.840,-0.084
2.841,-0.084
2.842,-0.087
2.843,-0.087
2.844,-0.089
2.845,-0.091
2.846,-0.089
2.847,-0.091
2.848,-0.086
2.849,-0.087
2.850,-0.087
2.851,-0.087
2.852,-0.087
2.853,-0.087
2.854,-0.089
2.855,-0.091
2.856,-0.091
2.857,-0.091
2.858,-0.091
2.859,-0.094
2.860,-0.093
2.861,-0.091
2.862,-0.094
2.863,-0.094
2.864,-0.095
2.865,-0.094
2.866,-0.091
2.867,-0.091
2.868,-0.094
2.869,-0.094
2.870,-0.095
2.871,-0.097
2.872,-0.098
2.873,-0.100
2.874,-0.100
2.875,-0.100
2.876,-0.097
2.877,-0.094
2.878,-0.091
2.879,-0.094
2.880,-0.100
2.881,-0.103
2.882,-0.103
2.883,-0.103
2.884,-0.100
2.885,-0.094
2.886,-0.089
2.887,-0.087
2.888,-0.087
2.889,-0.087
2.890,-0.086
2.891,-0.087
2.892,-0.084
2.893,-0.078
2.894,-0.069
2.895,-0.059
2.896,-0.050
2.897,-0.038
2.898,-0.025
2.899,-0.013
2.900,-0.003
2.901,0.000
2.902,0.006
2.903,0.012
2.904,0.011
2.905,0.009
2.906,0.006
2.907,0.000
2.908,0.000
2.909,-0.003
2.910,-0.006
2.911,-0.006
2.912,-0.003
2.913,0.000
2.914,0.003
2.915,0.009
2.916,0.017
2.917,0.028
2.918,0.036
2.919,0.034
2.920,0.036
2.921,0.041
2.922,0.044
2.923,0.056
2.924,0.061
2.925,0.069
2.926,0.075
2.927,0.075
2.928,0.074
2.929,0.072
2.930,0.069
2.931,0.062
2.932,0.056
2.933,0.050
2.934,0.042
2.935,0.031
2.936,0.026
2.937,0.025
2.938,0.014
2.939,0.003
2.940,-0.004
2.941,-0.016
2.942,-0.022
2.943,-0.028
2.944,-0.041
2.945,-0.053
2.946,-0.063
2.947,-0.069
2.948,-0.069
2.949,-0.072
2.950,-0.075
2.951,-0.084
2.952,-0.089
2.953,-0.097
2.954,-0.111
2.955,-0.122
2.956,-0.128
2.957,-0.128
2.958,-0.127
2.959,-0.125
2.960,-0.128
2.961,-0.131
2.962,-0.133
2.963,-0.141
2.964,-0.141
2.965,-0.141
2.966,-0.144
2.967,-0.147
2.968,-0.148
2.969,-0.150
2.970,-0.151
2.971,-0.156
2.972,-0.158
2.973,-0.163
2.974,-0.156
2.975,-0.156
2.976,-0.158
2.977,-0.159
2.978,-0.158
2.979,-0.159
2.980,-0.163
2.981,-0.163
2.982,-0.164
2.983,-0.163
2.984,-0.167
2.985,-0.166
2.986,-0.169
2.987,-0.172
2.988,-0.171
2.989,-0.166
2.990,-0.168
2.991,-0.166
2.992,-0.164
2.993,-0.163
2.994,-0.161
2.995,-0.163
2.996,-0.161
2.997,-0.163
2.998,-0.164
2.999,-0.163
3.000,-0.161
3.001,-0.159
3.002,-0.156
3.003,-0.150
3.004,-0.150
3.005,-0.153
3.006,-0.151
3.007,-0.153
3.008,-0.151
3.009,-0.153
3.010,-0.154
3.011,-0.156
3.012,-0.156
3.013,-0.156
3.014,-0.152
3.015,-0.147
3.016,-0.147
3.017,-0.147
3.018,-0.153
3.019,-0.159
3.020,-0.164
3.021,-0.169
3.022,-0.173
3.023,-0.178
3.024,-0.178
3.025,-0.178
3.026,-0.186
3.027,-0.194
3.028,-0.201
3.029,-0.213
3.030,-0.216
3.031,-0.225
3.032,-0.234
3.033,-0.234
3.034,-0.234
3.035,-0.234
3.036,-0.222
3.037,-0.200
3.038,-0.180
3.039,-0.159
3.040,-0.134
3.041,-0.094
3.042,-0.056
3.043,0.000
3.044,0.067
3.045,0.150
3.046,0.236
3.047,0.334
3.048,0.434
3.049,0.537
3.050,0.654
3.051,0.797
3.052,0.934
3.053,1.072
3.054,1.196
3.055,1.297
3.056,1.394
3.057,1.488
3.058,1.574
3.059,1.656
3.060,1.750
3.061,1.831
3.062,1.906
3.063,1.984
3.064,2.030
3.065,2.022
3.066,1.991
3.067,1.887
3.068,1.752
3.069,1.587
3.070,1.466
3.071,1.231
3.072,1.059
3.073,0.903
3.074,0.759
3.075,0.616
3.076,0.464
3.077,0.341
3.078,0.232
3.079,0.153
3.080,0.087
3.081,0.047
3.082,0.019
3.083,0.000
3.084,-0.023
3.085,-0.038
3.086,-0.050
3.087,-0.063
3.088,-0.070
3.089,-0.075
3.090,-0.080
3.091,-0.087
3.092,-0.091
3.093,-0.100
3.094,-0.100
3.095,-0.100
3.096,-0.102
3.097,-0.106
3.098,-0.108
3.099,-0.113
3.100,-0.118
3.101,-0.119
3.102,-0.125
3.103,-0.131
3.104,-0.131
3.105,-0.134
3.106,-0.136
3.107,-0.131
3.108,-0.131
3.109,-0.131
3.110,-0.134
3.111,-0.134
3.112,-0.139
3.113,-0.141
3.114,-0.141
3.115,-0.141
3.116,-0.141
3.117,-0.144
3.118,-0.142
3.119,-0.147
3.120,-0.148
3.121,-0.147
3.122,-0.150
3.123,-0.150
3.124,-0.146
3.125,-0.147
3.126,-0.150
3.127,-0.153
3.128,-0.153
3.129,-0.153
3.130,-0.150
3.131,-0.150
3.132,-0.143
3.133,-0.141
3.134,-0.144
3.135,-0.144
3.136,-0.144
3.137,-0.141
3.138,-0.144
3.139,-0.144
3.140,-0.142
3.141,-0.144
3.142,-0.146
3.143,-0.144
3.144,-0.142
3.145,-0.141
3.146,-0.139
3.147,-0.141
3.148,-0.134
3.149,-0.131
3.150,-0.133
3.151,-0.131
3.152,-0.136
3.153,-0.137
3.154,-0.139
3.155,-0.137
3.156,-0.134
3.157,-0.134
3.158,-0.136
3.159,-0.131
3.160,-0.133
3.161,-0.131
3.162,-0.130
3.163,-0.128
3.164,-0.128
3.165,-0.128
3.166,-0.131
3.167,-0.134
3.168,-0.134
3.169,-0.134
3.170,-0.131
3.171,-0.125
3.172,-0.126
3.173,-0.125
3.174,-0.126
3.175,-0.128
3.176,-0.129
3.177,-0.128
3.178,-0.129
3.179,-0.134
3.180,-0.131
3.181,-0.131
3.182,-0.131
3.183,-0.131
3.184,-0.124
3.185,-0.119
3.186,-0.119
3.187,-0.119
3.188,-0.120
3.189,-0.119
3.190,-0.120
3.191,-0.122
3.192,-0.120
3.193,-0.122
3.194,-0.118
3.195,-0.119
3.196,-0.119
3.197,-0.119
3.198,-0.116
3.199,-0.116
3.200,-0.116
3.201,-0.116
3.202,-0.116
3.203,-0.116
3.204,-0.111
3.205,-0.109
3.206,-0.108
3.207,-0.106
3.208,-0.108
3.209,-0.109
3.210,-0.111
3.211,-0.109
3.212,-0.106
3.213,-0.103
3.214,-0.100
3.215,-0.094
3.216,-0.097
3.217,-0.097
3.218,-0.096
3.219,-0.094
3.220,-0.089
3.221,-0.091
3.222,-0.089
3.223,-0.091
3.224,-0.089
3.225,-0.084
3.226,-0.086
3.227,-0.084
3.228,-0.086
3.229,-0.084
3.230,-0.086
3.231,-0.087
3.232,-0.087
3.233,-0.087
3.234,-0.083
3.235,-0.075
3.236,-0.074
3.237,-0.069
3.238,-0.073
3.239,-0.072
3.240,-0.069
3.241,-0.069
3.242,-0.063
3.243,-0.059
3.244,-0.056
3.245,-0.053
3.246,-0.051
3.247,-0.050
3.248,-0.051
3.249,-0.050
3.250,-0.051
3.251,-0.050
3.252,-0.049
3.253,-0.044
3.254,-0.039
3.255,-0.038
3.256,-0.036
3.257,-0.034
3.258,-0.034
3.259,-0.034
3.260,-0.030
3.261,-0.025
3.262,-0.023
3.263,-0.022
3.264,-0.021
3.265,-0.016
3.266,-0.014
3.267,-0.013
3.268,-0.013
3.269,-0.013
3.270,-0.011
3.271,-0.009
3.272,-0.011
3.273,-0.009
3.274,-0.008
3.275,-0.009
3.276,-0.006
3.277,-0.003
3.278,-0.001
3.279,0.000
3.280,0.000
3.281,0.003
3.282,0.006
3.283,0.009
3.284,0.008
3.285,0.009
3.286,0.009
3.287,0.012
3.288,0.011
3.289,0.016
3.290,0.019
3.291,0.022
3.292,0.025
3.293,0.025
3.294,0.028
3.295,0.028
3.296,0.030
3.297,0.031
3.298,0.034
3.299,0.037
3.300,0.042
3.301,0.047
3.302,0.047
3.303,0.047
3.304,0.054
3.305,0.059
3.306,0.061
3.307,0.062
3.308,0.066
3.309,0.069
3.310,0.072
3.311,0.075
3.312,0.079
3.313,0.081
3.314,0.083
3.315,0.084
3.316,0.084
3.317,0.084
3.318,0.086
3.319,0.087
3.320,0.086
3.321,0.087
3.322,0.087
3.323,0.084
3.324,0.086
3.325,0.084
3.326,0.084
3.327,0.081
3.328,0.078
3.329,0.072
3.330,0.073
3.331,0.072
3.332,0.071
3.333,0.066
3.334,0.059
3.335,0.053
3.336,0.052
3.337,0.044
3.338,0.037
3.339,0.031
3.340,0.027
3.341,0.022
3.342,0.017
3.343,0.012
3.344,0.011
3.345,0.009
3.346,0.000
3.347,-0.006
3.348,-0.009
3.349,-0.009
3.350,-0.014
3.351,-0.019
3.352,-0.026
3.353,-0.031
3.354,-0.039
3.355,-0.044
3.356,-0.046
3.357,-0.047
3.358,-0.058
3.359,-0.066
3.360,-0.072
3.361,-0.078
3.362,-0.078
3.363,-0.081
3.364,-0.083
3.365,-0.087
3.366,-0.087
3.367,-0.091
3.368,-0.089
3.369,-0.091
3.370,-0.091
3.371,-0.097
3.372,-0.101
3.373,-0.103
3.374,-0.100
3.375,-0.097
3.376,-0.100
3.377,-0.103
3.378,-0.106
3.379,-0.106
3.380,-0.105
3.381,-0.106
3.382,-0.106
3.383,-0.106
3.384,-0.106
3.385,-0.109
3.386,-0.108
3.387,-0.106
3.388,-0.106
3.389,-0.106
3.390,-0.106
3.391,-0.106
3.392,-0.108
3.393,-0.109
3.394,-0.109
3.395,-0.109
3.396,-0.111
3.397,-0.113
3.398,-0.109
3.399,-0.109
3.400,-0.109
3.401,-0.109
3.402,-0.109
3.403,-0.109
3.404,-0.109
3.405,-0.109
3.406,-0.108
3.407,-0.109
3.408,-0.108
3.409,-0.106
3.410,-0.104
3.411,-0.106
3.412,-0.106
3.413,-0.106
3.414,-0.109
3.415,-0.106
3.416,-0.103
3.417,-0.100
3.418,-0.100
3.419,-0.097
3.420,-0.097
3.421,-0.097
3.422,-0.097
3.423,-0.100
3.424,-0.101
3.425,-0.103
3.426,-0.103
3.427,-0.100
3.428,-0.100
3.429,-0.097
3.430,-0.093
3.431,-0.091
3.432,-0.089
3.433,-0.091
3.434,-0.094
3.435,-0.094
3.436,-0.094
3.437,-0.094
3.438,-0.097
3.439,-0.097
3.440,-0.097
3.441,-0.100
3.442,-0.100
3.443,-0.100
3.444,-0.099
3.445,-0.097
3.446,-0.097
3.447,-0.097
3.448,-0.097
3.449,-0.097
3.450,-0.097
3.451,-0.097
3.452,-0.096
3.453,-0.094
3.454,-0.098
3.455,-0.097
3.456,-0.100
3.457,-0.103
3.458,-0.102
3.459,-0.100
3.460,-0.099
3.461,-0.100
3.462,-0.100
3.463,-0.100
3.464,-0.101
3.465,-0.103
3.466,-0.103
3.467,-0.103
3.468,-0.106
3.469,-0.106
3.470,-0.106
3.471,-0.106
3.472,-0.106
3.473,-0.109
3.474,-0.106
3.475,-0.109
3.476,-0.106
3.477,-0.103
3.478,-0.103
3.479,-0.103
3.480,-0.104
3.481,-0.106
3.482,-0.106
3.483,-0.106
3.484,-0.105
3.485,-0.106
3.486,-0.106
3.487,-0.106
3.488,-0.111
3.489,-0.113
3.490,-0.114
3.491,-0.113
3.492,-0.109
3.493,-0.109
3.494,-0.111
3.495,-0.109
3.496,-0.114
3.497,-0.119
3.498,-0.119
3.499,-0.119
3.500,-0.118
3.501,-0.116
3.502,-0.119
3.503,-0.122
3.504,-0.116
3.505,-0.116
3.506,-0.119
3.507,-0.119
3.508,-0.119
3.509,-0.119
3.510,-0.119
3.511,-0.116
3.512,-0.114
3.513,-0.116
3.514,-0.109
3.515,-0.103
3.516,-0.099
3.517,-0.097
3.518,-0.095
3.519,-0.091
3.520,-0.083
3.521,-0.075
3.522,-0.064
3.523,-0.050
3.524,-0.042
3.525,-0.034
3.526,-0.025
3.527,-0.022
3.528,-0.017
3.529,-0.013
3.530,-0.011
3.531,-0.009
3.532,-0.006
3.533,-0.006
3.534,-0.009
3.535,-0.016
3.536,-0.022
3.537,-0.025
3.538,-0.025
3.539,-0.025
3.540,-0.022
3.541,-0.016
3.542,-0.005
3.543,0.009
3.544,0.017
3.545,0.016
3.546,0.017
3.547,0.022
3.548,0.022
3.549,0.031
3.550,0.036
3.551,0.044
3.552,0.052
3.553,0.053
3.554,0.054
3.555,0.056
3.556,0.056
3.557,0.053
3.558,0.044
3.559,0.034
3.560,0.029
3.561,0.022
3.562,0.009
3.563,0.000
3.564,-0.008
3.565,-0.016
3.566,-0.019
3.567,-0.025
3.568,-0.036
3.569,-0.047
3.570,-0.056
3.571,-0.066
3.572,-0.075
3.573,-0.081
3.574,-0.084
3.575,-0.091
3.576,-0.097
3.577,-0.109
3.578,-0.114
3.579,-0.122
3.580,-0.134
3.581,-0.144
3.582,-0.149
3.583,-0.147
3.584,-0.147
3.585,-0.147
3.586,-0.147
3.587,-0.147
3.588,-0.146
3.589,-0.150
3.590,-0.153
3.591,-0.156
3.592,-0.159
3.593,-0.163
3.594,-0.164
3.595,-0.166
3.596,-0.164
3.597,-0.166
3.598,-0.164
3.599,-0.166
3.600,-0.163
3.601,-0.166
3.602,-0.169
3.603,-0.172
3.604,-0.171
3.605,-0.172
3.606,-0.176
3.607,-0.178
3.608,-0.181
3.609,-0.181
3.610,-0.184
3.611,-0.181
3.612,-0.175
3.613,-0.169
3.614,-0.169
3.615,-0.166
3.616,-0.169
3.617,-0.169
3.618,-0.170
3.619,-0.172
3.620,-0.172
3.621,-0.175
3.622,-0.174
3.623,-0.175
3.624,-0.174
3.625,-0.169
3.626,-0.170
3.627,-0.172
3.628,-0.173
3.629,-0.172
3.630,-0.169
3.631,-0.169
3.632,-0.167
3.633,-0.169
3.634,-0.167
3.635,-0.169
3.636,-0.166
3.637,-0.163
3.638,-0.163
3.639,-0.163
3.640,-0.164
3.641,-0.166
3.642,-0.166
3.643,-0.166
3.644,-0.166
3.645,-0.166
3.646,-0.170
3.647,-0.175
3.648,-0.179
3.649,-0.184
3.650,-0.184
3.651,-0.184
3.652,-0.191
3.653,-0.197
3.654,-0.203
3.655,-0.213
3.656,-0.219
3.657,-0.231
3.658,-0.239
3.659,-0.238
3.660,-0.231
3.661,-0.225
3.662,-0.221
3.663,-0.206
3.664,-0.189
3.665,-0.172
3.666,-0.150
3.667,-0.113
3.668,-0.080
3.669,-0.028
3.670,0.037
3.671,0.119
3.672,0.198
3.673,0.291
3.674,0.394
3.675,0.500
3.676,0.619
3.677,0.762
3.678,0.906
3.679,1.050
3.680,1.180
3.681,1.287
3.682,1.392
3.683,1.494
3.684,1.583
3.685,1.669
3.686,1.755
3.687,1.828
3.688,1.892
3.689,1.959
3.690,2.000
3.691,1.987
3.692,1.953
3.693,1.847
3.694,1.722
3.695,1.569
3.696,1.453
3.697,1.225
3.698,1.047
3.699,0.884
3.700,0.739
3.701,0.594
3.702,0.439
3.703,0.312
3.704,0.212
3.705,0.141
3.706,0.078
3.707,0.041
3.708,0.011
3.709,-0.009
3.710,-0.027
3.711,-0.034
3.712,-0.044
3.713,-0.053
3.714,-0.066
3.715,-0.075
3.716,-0.080
3.717,-0.087
3.718,-0.091
3.719,-0.100
3.720,-0.102
3.721,-0.103
3.722,-0.108
3.723,-0.116
3.724,-0.116
3.725,-0.119
3.726,-0.122
3.727,-0.122
3.728,-0.126
3.729,-0.131
3.730,-0.131
3.731,-0.134
3.732,-0.137
3.733,-0.134
3.734,-0.137
3.735,-0.141
3.736,-0.143
3.737,-0.141
3.738,-0.145
3.739,-0.147
3.740,-0.148
3.741,-0.150
3.742,-0.149
3.743,-0.150
3.744,-0.146
3.745,-0.147
3.746,-0.147
3.747,-0.144
3.748,-0.147
3.749,-0.147
3.750,-0.144
3.751,-0.147
3.752,-0.147
3.753,-0.147
3.754,-0.148
3.755,-0.150
3.756,-0.148
3.757,-0.150
3.758,-0.146
3.759,-0.147
3.760,-0.150
3.761,-0.150
3.762,-0.149
3.763,-0.144
3.764,-0.145
3.765,-0.144
3.766,-0.141
3.767,-0.141
3.768,-0.141
3.769,-0.137
3.770,-0.137
3.771,-0.137
3.772,-0.139
3.773,-0.144
3.774,-0.141
3.775,-0.141
3.776,-0.137
3.777,-0.131
3.778,-0.131
3.779,-0.128
3.780,-0.131
3.781,-0.131
3.782,-0.128
3.783,-0.128
3.784,-0.131
3.785,-0.128
3.786,-0.128
3.787,-0.125
3.788,-0.126
3.789,-0.128
3.790,-0.128
3.791,-0.128
3.792,-0.128
3.793,-0.128
3.794,-0.125
3.795,-0.122
3.796,-0.122
3.797,-0.119
3.798,-0.116
3.799,-0.109
3.800,-0.109
3.801,-0.109
3.802,-0.113
3.803,-0.113
3.804,-0.111
3.805,-0.113
3.806,-0.111
3.807,-0.113
3.808,-0.113
3.809,-0.113
3.810,-0.111
3.811,-0.113
3.812,-0.113
3.813,-0.113
3.814,-0.111
3.815,-0.106
3.816,-0.103
3.817,-0.100
3.818,-0.098
3.819,-0.100
3.820,-0.094
3.821,-0.094
3.822,-0.094
3.823,-0.094
3.824,-0.094
3.825,-0.097
3.826,-0.100
3.827,-0.103
3.828,-0.104
3.829,-0.106
3.830,-0.104
3.831,-0.106
3.832,-0.102
3.833,-0.097
3.834,-0.091
3.835,-0.084
3.836,-0.086
3.837,-0.084
3.838,-0.084
3.839,-0.084
3.840,-0.084
3.841,-0.081
3.842,-0.083
3.843,-0.081
3.844,-0.083
3.845,-0.084
3.846,-0.081
3.847,-0.084
3.848,-0.081
3.849,-0.081
3.850,-0.081
3.851,-0.078
3.852,-0.079
3.853,-0.078
3.854,-0.078
3.855,-0.075
3.856,-0.072
3.857,-0.069
3.858,-0.066
3.859,-0.063
3.860,-0.064
3.861,-0.063
3.862,-0.061
3.863,-0.056
3.864,-0.058
3.865,-0.053
3.866,-0.047
3.867,-0.044
3.868,-0.044
3.869,-0.047
3.870,-0.045
3.871,-0.044
3.872,-0.038
3.873,-0.031
3.874,-0.033
3.875,-0.031
3.876,-0.031
3.877,-0.028
3.878,-0.028
3.879,-0.025
3.880,-0.021
3.881,-0.019
3.882,-0.017
3.883,-0.016
3.884,-0.013
3.885,-0.009
3.886,-0.006
3.887,-0.003
3.888,-0.001
3.889,0.000
3.890,-0.001
3.891,0.000
3.892,0.004
3.893,0.009
3.894,0.008
3.895,0.006
3.896,0.006
3.897,0.006
3.898,0.005
3.899,0.006
3.900,0.016
3.901,0.022
3.902,0.025
3.903,0.028
3.904,0.028
3.905,0.028
3.906,0.027
3.907,0.028
3.908,0.028
3.909,0.028
3.910,0.029
3.911,0.034
3.912,0.037
3.913,0.044
3.914,0.041
3.915,0.044
3.916,0.044
3.917,0.044
3.918,0.051
3.919,0.056
3.920,0.061
3.921,0.062
3.922,0.062
3.923,0.062
3.924,0.064
3.925,0.066
3.926,0.069
3.927,0.072
3.928,0.076
3.929,0.081
3.930,0.083
3.931,0.081
3.932,0.083
3.933,0.084
3.934,0.086
3.935,0.087
3.936,0.094
3.937,0.100
3.938,0.104
3.939,0.106
3.940,0.106
3.941,0.106
3.942,0.109
3.943,0.112
3.944,0.116
3.945,0.119
3.946,0.114
3.947,0.112
3.948,0.105
3.949,0.094
3.950,0.095
3.951,0.094
3.952,0.097
3.953,0.097
3.954,0.094
3.955,0.087
3.956,0.084
3.957,0.078
3.958,0.078
3.959,0.075
3.960,0.073
3.961,0.072
3.962,0.071
3.963,0.062
3.964,0.056
3.965,0.050
3.966,0.048
3.967,0.047
3.968,0.039
3.969,0.031
3.970,0.026
3.971,0.022
3.972,0.016
3.973,0.012
3.974,0.005
3.975,0.000
3.976,-0.003
3.977,-0.006
3.978,-0.017
3.979,-0.025
3.980,-0.028
3.981,-0.028
3.982,-0.030
3.983,-0.031
3.984,-0.038
3.985,-0.041
3.986,-0.046
3.987,-0.050
3.988,-0.049
3.989,-0.050
3.990,-0.053
3.991,-0.059
3.992,-0.061
3.993,-0.066
3.994,-0.064
3.995,-0.066
3.996,-0.066
3.997,-0.072
3.998,-0.078
3.999,-0.081
4.000,-0.083
4.001,-0.084
4.002,-0.086
4.003,-0.087
4.004,-0.089
4.005,-0.087
4.006,-0.086
4.007,-0.087
4.008,-0.089
4.009,-0.091
4.010,-0.087
4.011,-0.087
4.012,-0.087
4.013,-0.087
4.014,-0.087
4.015,-0.087
4.016,-0.087
4.017,-0.087
4.018,-0.087
4.019,-0.087
4.020,-0.089
4.021,-0.091
4.022,-0.092
4.023,-0.094
4.024,-0.091
4.025,-0.091
4.026,-0.087
4.027,-0.084
4.028,-0.084
4.029,-0.084
4.030,-0.086
4.031,-0.087
4.032,-0.080
4.033,-0.075
4.034,-0.075
4.035,-0.075
4.036,-0.073
4.037,-0.075
4.038,-0.074
4.039,-0.072
4.040,-0.075
4.041,-0.072
4.042,-0.072
4.043,-0.072
4.044,-0.074
4.045,-0.072
4.046,-0.073
4.047,-0.075
4.048,-0.073
4.049,-0.075
4.050,-0.075
4.051,-0.075
4.052,-0.074
4.053,-0.069
4.054,-0.070
4.055,-0.069
4.056,-0.068
4.057,-0.069
4.058,-0.067
4.059,-0.069
4.060,-0.072
4.061,-0.072
4.062,-0.071
4.063,-0.069
4.064,-0.069
4.065,-0.066
4.066,-0.064
4.067,-0.066
4.068,-0.066
4.069,-0.066
4.070,-0.067
4.071,-0.069
4.072,-0.069
4.073,-0.069
4.074,-0.068
4.075,-0.066
4.076,-0.069
4.077,-0.066
4.078,-0.066
4.079,-0.066
4.080,-0.069
4.081,-0.072
4.082,-0.071
4.083,-0.072
4.084,-0.069
4.085,-0.066
4.086,-0.066
4.087,-0.066
4.088,-0.069
4.089,-0.072
4.090,-0.075
4.091,-0.075
4.092,-0.074
4.093,-0.072
4.094,-0.071
4.095,-0.072
4.096,-0.069
4.097,-0.072
4.098,-0.072
4.099,-0.072
4.100,-0.072
4.101,-0.072
4.102,-0.072
4.103,-0.072
4.104,-0.073
4.105,-0.075
4.106,-0.074
4.107,-0.075
4.108,-0.074
4.109,-0.072
4.110,-0.079
4.111,-0.084
4.112,-0.087
4.113,-0.087
4.114,-0.086
4.115,-0.087
4.116,-0.091
4.117,-0.091
4.118,-0.091
4.119,-0.091
4.120,-0.091
4.121,-0.091
4.122,-0.091
4.123,-0.091
4.124,-0.091
4.125,-0.091
4.126,-0.086
4.127,-0.087
4.128,-0.089
4.129,-0.087
4.130,-0.086
4.131,-0.084
4.132,-0.086
4.133,-0.084
4.134,-0.083
4.135,-0.084
4.136,-0.083
4.137,-0.081
4.138,-0.074
4.139,-0.069
4.140,-0.066
4.141,-0.059
4.142,-0.054
4.143,-0.050
4.144,-0.041
4.145,-0.028
4.146,-0.020
4.147,-0.013
4.148,-0.002
4.149,0.003
4.150,0.009
4.151,0.016
4.152,0.019
4.153,0.022
4.154,0.021
4.155,0.016
4.156,0.014
4.157,0.009
4.158,0.002
4.159,-0.003
4.160,-0.002
4.161,0.000
4.162,0.006
4.163,0.016
4.164,0.025
4.165,0.037
4.166,0.049
4.167,0.050
4.168,0.049
4.169,0.050
4.170,0.050
4.171,0.059
4.172,0.066
4.173,0.075
4.174,0.083
4.175,0.084
4.176,0.084
4.177,0.084
4.178,0.084
4.179,0.081
4.180,0.075
4.181,0.069
4.182,0.062
4.183,0.053
4.184,0.045
4.185,0.041
4.186,0.034
4.187,0.028
4.188,0.021
4.189,0.009
4.190,0.001
4.191,-0.006
4.192,-0.020
4.193,-0.034
4.194,-0.043
4.195,-0.047
4.196,-0.050
4.197,-0.056
4.198,-0.063
4.199,-0.075
4.200,-0.083
4.201,-0.094
4.202,-0.102
4.203,-0.106
4.204,-0.113
4.205,-0.113
4.206,-0.113
4.207,-0.113
4.208,-0.113
4.209,-0.113
4.210,-0.114
4.211,-0.122
4.212,-0.124
4.213,-0.125
4.214,-0.128
4.215,-0.131
4.216,-0.131
4.217,-0.131
4.218,-0.134
4.219,-0.141
4.220,-0.139
4.221,-0.141
4.222,-0.137
4.223,-0.141
4.224,-0.136
4.225,-0.131
4.226,-0.130
4.227,-0.131
4.228,-0.137
4.229,-0.141
4.230,-0.147
4.231,-0.150
4.232,-0.153
4.233,-0.150
4.234,-0.149
4.235,-0.147
4.236,-0.148
4.237,-0.147
4.238,-0.150
4.239,-0.150
4.240,-0.150
4.241,-0.150
4.242,-0.147
4.243,-0.147
4.244,-0.146
4.245,-0.147
4.246,-0.148
4.247,-0.147
4.248,-0.147
4.249,-0.147
4.250,-0.147
4.251,-0.144
4.252,-0.143
4.253,-0.144
4.254,-0.144
4.255,-0.147
4.256,-0.139
4.257,-0.134
4.258,-0.134
4.259,-0.134
4.260,-0.136
4.261,-0.137
4.262,-0.139
4.263,-0.141
4.264,-0.141
4.265,-0.141
4.266,-0.141
4.267,-0.141
4.268,-0.141
4.269,-0.141
4.270,-0.141
4.271,-0.141
4.272,-0.145
4.273,-0.150
4.274,-0.156
4.275,-0.163
4.276,-0.164
4.277,-0.169
4.278,-0.178
4.279,-0.194
4.280,-0.206
4.281,-0.209
4.282,-0.211
4.283,-0.213
4.284,-0.216
4.285,-0.209
4.286,-0.194
4.287,-0.178
4.288,-0.163
4.289,-0.131
4.290,-0.105
4.291,-0.059
4.292,-0.006
4.293,0.062
4.294,0.141
4.295,0.231
4.296,0.322
4.297,0.416
4.298,0.513
4.299,0.634
4.300,0.781
4.301,0.928
4.302,1.072
4.303,1.194
4.304,1.304
4.305,1.412
4.306,1.517
4.307,1.619
4.308,1.705
4.309,1.778
4.310,1.848
4.311,1.922
4.312,1.992
4.313,2.009
4.314,2.006
4.315,1.931
4.316,1.834
4.317,1.709
4.318,1.591
4.319,1.359
4.320,1.191
4.321,1.037
4.322,0.881
4.323,0.725
4.324,0.558
4.325,0.419
4.326,0.297
4.327,0.203
4.328,0.131
4.329,0.084
4.330,0.053
4.331,0.031
4.332,0.009
4.333,-0.003
4.334,-0.016
4.335,-0.028
4.336,-0.042
4.337,-0.053
4.338,-0.058
4.339,-0.066
4.340,-0.066
4.341,-0.072
4.342,-0.078
4.343,-0.084
4.344,-0.087
4.345,-0.094
4.346,-0.094
4.347,-0.097
4.348,-0.103
4.349,-0.106
4.350,-0.106
4.351,-0.106
4.352,-0.105
4.353,-0.106
4.354,-0.111
4.355,-0.109
4.356,-0.117
4.357,-0.125
4.358,-0.128
4.359,-0.128
4.360,-0.130
4.361,-0.128
4.362,-0.128
4.363,-0.128
4.364,-0.128
4.365,-0.131
4.366,-0.127
4.367,-0.128
4.368,-0.129
4.369,-0.128
4.370,-0.131
4.371,-0.131
4.372,-0.127
4.373,-0.128
4.374,-0.129
4.375,-0.131
4.376,-0.131
4.377,-0.131
4.378,-0.128
4.379,-0.128
4.380,-0.124
4.381,-0.125
4.382,-0.128
4.383,-0.128
4.384,-0.129
4.385,-0.128
4.386,-0.128
4.387,-0.125
4.388,-0.119
4.389,-0.116
4.390,-0.122
4.391,-0.125
4.392,-0.125
4.393,-0.125
4.394,-0.119
4.395,-0.116
4.396,-0.113
4.397,-0.113
4.398,-0.116
4.399,-0.116
4.400,-0.119
4.401,-0.119
4.402,-0.122
4.403,-0.122
4.404,-0.119
4.405,-0.119
4.406,-0.119
4.407,-0.113
4.408,-0.114
4.409,-0.113
4.410,-0.111
4.411,-0.109
4.412,-0.109
4.413,-0.109
4.414,-0.106
4.415,-0.103
4.416,-0.103
4.417,-0.103
4.418,-0.106
4.419,-0.106
4.420,-0.103
4.421,-0.097
4.422,-0.096
4.423,-0.094
4.424,-0.095
4.425,-0.094
4.426,-0.095
4.427,-0.100
4.428,-0.100
4.429,-0.103
4.430,-0.102
4.431,-0.100
4.432,-0.096
4.433,-0.094
4.434,-0.094
4.435,-0.094
4.436,-0.095
4.437,-0.094
4.438,-0.095
4.439,-0.097
4.440,-0.093
4.441,-0.091
4.442,-0.086
4.443,-0.087
4.444,-0.087
4.445,-0.087
4.446,-0.084
4.447,-0.084
4.448,-0.083
4.449,-0.081
4.450,-0.083
4.451,-0.084
4.452,-0.080
4.453,-0.078
4.454,-0.076
4.455,-0.075
4.456,-0.074
4.457,-0.072
4.458,-0.075
4.459,-0.075
4.460,-0.075
4.461,-0.075
4.462,-0.075
4.463,-0.072
4.464,-0.073
4.465,-0.072
4.466,-0.071
4.467,-0.069
4.468,-0.063
4.469,-0.063
4.470,-0.061
4.471,-0.063
4.472,-0.064
4.473,-0.063
4.474,-0.059
4.475,-0.053
4.476,-0.053
4.477,-0.050
4.478,-0.050
4.479,-0.050
4.480,-0.044
4.481,-0.038
4.482,-0.039
4.483,-0.038
4.484,-0.041
4.485,-0.041
4.486,-0.045
4.487,-0.044
4.488,-0.038
4.489,-0.034
4.490,-0.031
4.491,-0.031
4.492,-0.027
4.493,-0.022
4.494,-0.020
4.495,-0.019
4.496,-0.017
4.497,-0.013
4.498,-0.014
4.499,-0.013
4.500,-0.014
4.501,-0.013
4.502,-0.011
4.503,-0.013
4.504,-0.008
4.505,-0.003
4.506,-0.003
4.507,-0.003
4.508,0.001
4.509,0.006
4.510,0.008
4.511,0.009
4.512,0.008
4.513,0.009
4.514,0.012
4.515,0.016
4.516,0.020
4.517,0.025
4.518,0.028
4.519,0.031
4.520,0.028
4.521,0.028
4.522,0.030
4.523,0.028
4.524,0.028
4.525,0.028
4.526,0.034
4.527,0.041
4.528,0.039
4.529,0.041
4.530,0.044
4.531,0.047
4.532,0.046
4.533,0.047
4.534,0.047
4.535,0.050
4.536,0.050
4.537,0.056
4.538,0.056
4.539,0.056
4.540,0.059
4.541,0.059
4.542,0.062
4.543,0.062
4.544,0.064
4.545,0.066
4.546,0.069
4.547,0.072
4.548,0.079
4.549,0.087
4.550,0.092
4.551,0.097
4.552,0.097
4.553,0.094
4.554,0.096
4.555,0.097
4.556,0.099
4.557,0.100
4.558,0.103
4.559,0.106
4.560,0.111
4.561,0.112
4.562,0.114
4.563,0.116
4.564,0.119
4.565,0.122
4.566,0.126
4.567,0.131
4.568,0.129
4.569,0.131
4.570,0.128
4.571,0.122
4.572,0.122
4.573,0.119
4.574,0.122
4.575,0.122
4.576,0.120
4.577,0.116
4.578,0.112
4.579,0.106
4.580,0.100
4.581,0.091
4.582,0.087
4.583,0.084
4.584,0.087
4.585,0.084
4.586,0.081
4.587,0.078
4.588,0.072
4.589,0.066
4.590,0.061
4.591,0.056
4.592,0.049
4.593,0.041
4.594,0.033
4.595,0.028
4.596,0.023
4.597,0.022
4.598,0.019
4.599,0.016
4.600,0.011
4.601,0.009
4.602,0.003
4.603,0.000
4.604,-0.006
4.605,-0.013
4.606,-0.019
4.607,-0.022
4.608,-0.025
4.609,-0.028
4.610,-0.027
4.611,-0.028
4.612,-0.036
4.613,-0.047
4.614,-0.048
4.615,-0.053
4.616,-0.054
4.617,-0.059
4.618,-0.059
4.619,-0.066
4.620,-0.069
4.621,-0.069
4.622,-0.069
4.623,-0.069
4.624,-0.071
4.625,-0.072
4.626,-0.073
4.627,-0.072
4.628,-0.071
4.629,-0.072
4.630,-0.072
4.631,-0.072
4.632,-0.072
4.633,-0.075
4.634,-0.075
4.635,-0.075
4.636,-0.072
4.637,-0.069
4.638,-0.073
4.639,-0.078
4.640,-0.078
4.641,-0.078
4.642,-0.078
4.643,-0.078
4.644,-0.078
4.645,-0.078
4.646,-0.074
4.647,-0.072
4.648,-0.072
4.649,-0.072
4.650,-0.071
4.651,-0.069
4.652,-0.070
4.653,-0.072
4.654,-0.070
4.655,-0.072
4.656,-0.072
4.657,-0.072
4.658,-0.069
4.659,-0.069
4.660,-0.068
4.661,-0.066
4.662,-0.069
4.663,-0.066
4.664,-0.066
4.665,-0.066
4.666,-0.069
4.667,-0.069
4.668,-0.069
4.669,-0.069
4.670,-0.066
4.671,-0.066
4.672,-0.066
4.673,-0.066
4.674,-0.067
4.675,-0.066
4.676,-0.063
4.677,-0.056
4.678,-0.056
4.679,-0.059
4.680,-0.059
4.681,-0.063
4.682,-0.066
4.683,-0.066
4.684,-0.066
4.685,-0.066
4.686,-0.066
4.687,-0.063
4.688,-0.059
4.689,-0.059
4.690,-0.059
4.691,-0.059
4.692,-0.061
4.693,-0.063
4.694,-0.066
4.695,-0.069
4.696,-0.070
4.697,-0.072
4.698,-0.069
4.699,-0.069
4.700,-0.066
4.701,-0.066
4.702,-0.066
4.703,-0.066
4.704,-0.066
4.705,-0.066
4.706,-0.069
4.707,-0.069
4.708,-0.068
4.709,-0.066
4.710,-0.066
4.711,-0.066
4.712,-0.066
4.713,-0.069
4.714,-0.069
4.715,-0.069
4.716,-0.069
4.717,-0.069
4.718,-0.072
4.719,-0.069
4.720,-0.072
4.721,-0.072
4.722,-0.073
4.723,-0.075
4.724,-0.074
4.725,-0.072
4.726,-0.072
4.727,-0.072
4.728,-0.073
4.729,-0.075
4.730,-0.078
4.731,-0.078
4.732,-0.074
4.733,-0.072
4.734,-0.073
4.735,-0.075
4.736,-0.072
4.737,-0.072
4.738,-0.076
4.739,-0.081
4.740,-0.083
4.741,-0.084
4.742,-0.086
4.743,-0.087
4.744,-0.089
4.745,-0.091
4.746,-0.089
4.747,-0.087
4.748,-0.089
4.749,-0.087
4.750,-0.089
4.751,-0.091
4.752,-0.092
4.753,-0.094
4.754,-0.093
4.755,-0.091
4.756,-0.089
4.757,-0.087
4.758,-0.086
4.759,-0.081
4.760,-0.078
4.761,-0.075
4.762,-0.075
4.763,-0.072
4.764,-0.066
4.765,-0.059
4.766,-0.054
4.767,-0.047
4.768,-0.033
4.769,-0.022
4.770,-0.013
4.771,-0.003
4.772,-0.003
4.773,0.000
4.774,0.003
4.775,0.003
4.776,0.006
4.777,0.006
4.778,0.003
4.779,0.000
4.780,-0.009
4.781,-0.019
4.782,-0.022
4.783,-0.022
4.784,-0.017
4.785,-0.009
4.786,-0.003
4.787,0.006
4.788,0.017
4.789,0.028
4.790,0.034
4.791,0.037
4.792,0.044
4.793,0.047
4.794,0.057
4.795,0.066
4.796,0.072
4.797,0.078
4.798,0.083
4.799,0.084
4.800,0.084
4.801,0.084
4.802,0.080
4.803,0.069
4.804,0.059
4.805,0.053
4.806,0.042
4.807,0.031
4.808,0.025
4.809,0.019
4.810,0.014
4.811,0.009
4.812,0.001
4.813,-0.006
4.814,-0.017
4.815,-0.028
4.816,-0.038
4.817,-0.047
4.818,-0.052
4.819,-0.053
4.820,-0.056
4.821,-0.056
4.822,-0.069
4.823,-0.078
4.824,-0.089
4.825,-0.103
4.826,-0.106
4.827,-0.106
4.828,-0.108
4.829,-0.109
4.830,-0.109
4.831,-0.109
4.832,-0.111
4.833,-0.113
4.834,-0.119
4.835,-0.122
4.836,-0.125
4.837,-0.128
4.838,-0.131
4.839,-0.131
4.840,-0.131
4.841,-0.131
4.842,-0.134
4.843,-0.134
4.844,-0.137
4.845,-0.134
4.846,-0.139
4.847,-0.141
4.848,-0.144
4.849,-0.147
4.850,-0.149
4.851,-0.150
4.852,-0.149
4.853,-0.150
4.854,-0.147
4.855,-0.147
4.856,-0.145
4.857,-0.147
4.858,-0.147
4.859,-0.147
4.860,-0.144
4.861,-0.147
4.862,-0.150
4.863,-0.153
4.864,-0.156
4.865,-0.156
4.866,-0.153
4.867,-0.150
4.868,-0.153
4.869,-0.153
4.870,-0.151
4.871,-0.153
4.872,-0.150
4.873,-0.147
4.874,-0.143
4.875,-0.141
4.876,-0.145
4.877,-0.144
4.878,-0.145
4.879,-0.144
4.880,-0.144
4.881,-0.144
4.882,-0.144
4.883,-0.144
4.884,-0.144
4.885,-0.144
4.886,-0.145
4.887,-0.147
4.888,-0.147
4.889,-0.147
4.890,-0.144
4.891,-0.144
4.892,-0.146
4.893,-0.147
4.894,-0.151
4.895,-0.156
4.896,-0.159
4.897,-0.166
4.898,-0.172
4.899,-0.175
4.900,-0.183
4.901,-0.191
4.902,-0.202
4.903,-0.213
4.904,-0.217
4.905,-0.219
4.906,-0.220
4.907,-0.222
4.908,-0.214
4.909,-0.197
4.910,-0.186
4.911,-0.175
4.912,-0.136
4.913,-0.109
4.914,-0.070
4.915,-0.019
4.916,0.049
4.917,0.122
4.918,0.209
4.919,0.303
4.920,0.399
4.921,0.497
4.922,0.623
4.923,0.766
4.924,0.902
4.925,1.037
4.926,1.156
4.927,1.266
4.928,1.376
4.929,1.481
4.930,1.582
4.931,1.681
4.932,1.764
4.933,1.834
4.934,1.902
4.935,1.966
4.936,1.956
4.937,1.931
4.938,1.858
4.939,1.753
4.940,1.637
4.941,1.500
4.942,1.253
4.943,1.119
4.944,0.958
4.945,0.800
4.946,0.661
4.947,0.491
4.948,0.361
4.949,0.250
4.950,0.173
4.951,0.112
4.952,0.069
4.953,0.041
4.954,0.022
4.955,0.006
4.956,-0.008
4.957,-0.022
4.958,-0.042
4.959,-0.056
4.960,-0.058
4.961,-0.063
4.962,-0.072
4.963,-0.075
4.964,-0.081
4.965,-0.081
4.966,-0.086
4.967,-0.091
4.968,-0.097
4.969,-0.097
4.970,-0.100
4.971,-0.106
4.972,-0.109
4.973,-0.113
4.974,-0.119
4.975,-0.122
4.976,-0.125
4.977,-0.128
4.978,-0.124
4.979,-0.125
4.980,-0.127
4.981,-0.128
4.982,-0.128
4.983,-0.131
4.984,-0.134
4.985,-0.137
4.986,-0.137
4.987,-0.137
4.988,-0.139
4.989,-0.134
4.990,-0.137
4.991,-0.137
4.992,-0.136
4.993,-0.141
4.994,-0.141
4.995,-0.137
4.996,-0.142
4.997,-0.144
4.998,-0.144
4.999,-0.144
5.000,-0.143
5.001,-0.137
5.002,-0.137
5.003,-0.134
5.004,-0.136
5.005,-0.137
5.006,-0.136
5.007,-0.134
5.008,-0.133
5.009,-0.134
5.010,-0.133
5.011,-0.131
5.012,-0.130
5.013,-0.131
5.014,-0.133
5.015,-0.131
5.016,-0.127
5.017,-0.125
5.018,-0.128
5.019,-0.125
5.020,-0.126
5.021,-0.128
5.022,-0.125
5.023,-0.125
5.024,-0.116
5.025,-0.113
5.026,-0.113
5.027,-0.109
5.028,-0.109
5.029,-0.113
5.030,-0.114
5.031,-0.119
5.032,-0.114
5.033,-0.113
5.034,-0.114
5.035,-0.116
5.036,-0.117
5.037,-0.119
5.038,-0.116
5.039,-0.113
5.040,-0.113
5.041,-0.113
5.042,-0.109
5.043,-0.109
5.044,-0.108
5.045,-0.109
5.046,-0.108
5.047,-0.106
5.048,-0.103
5.049,-0.103
5.050,-0.108
5.051,-0.106
5.052,-0.108
5.053,-0.109
5.054,-0.109
5.055,-0.106
5.056,-0.108
5.057,-0.109
5.058,-0.108
5.059,-0.106
5.060,-0.102
5.061,-0.100
5.062,-0.101
5.063,-0.100
5.064,-0.099
5.065,-0.094
5.066,-0.096
5.067,-0.094
5.068,-0.094
5.069,-0.091
5.070,-0.089
5.071,-0.087
5.072,-0.087
5.073,-0.087
5.074,-0.091
5.075,-0.091
5.076,-0.092
5.077,-0.091
5.078,-0.086
5.079,-0.084
5.080,-0.086
5.081,-0.087
5.082,-0.083
5.083,-0.081
5.084,-0.083
5.085,-0.084
5.086,-0.083
5.087,-0.084
5.088,-0.077
5.089,-0.072
5.090,-0.071
5.091,-0.066
5.092,-0.069
5.093,-0.066
5.094,-0.067
5.095,-0.069
5.096,-0.067
5.097,-0.069
5.098,-0.067
5.099,-0.069
5.100,-0.067
5.101,-0.069
5.102,-0.070
5.103,-0.069
5.104,-0.067
5.105,-0.069
5.106,-0.066
5.107,-0.066
5.108,-0.059
5.109,-0.059
5.110,-0.058
5.111,-0.056
5.112,-0.058
5.113,-0.056
5.114,-0.056
5.115,-0.053
5.116,-0.046
5.117,-0.038
5.118,-0.033
5.119,-0.031
5.120,-0.031
5.121,-0.034
5.122,-0.031
5.123,-0.031
5.124,-0.024
5.125,-0.016
5.126,-0.019
5.127,-0.019
5.128,-0.014
5.129,-0.013
5.130,-0.014
5.131,-0.013
5.132,-0.006
5.133,0.000
5.134,0.003
5.135,0.003
5.136,0.003
5.137,0.003
5.138,0.005
5.139,0.003
5.140,0.004
5.141,0.009
5.142,0.012
5.143,0.012
5.144,0.016
5.145,0.019
5.146,0.019
5.147,0.019
5.148,0.017
5.149,0.019
5.150,0.021
5.151,0.019
5.152,0.022
5.153,0.025
5.154,0.031
5.155,0.034
5.156,0.036
5.157,0.034
5.158,0.034
5.159,0.028
5.160,0.028
5.161,0.028
5.162,0.034
5.163,0.041
5.164,0.042
5.165,0.047
5.166,0.048
5.167,0.053
5.168,0.055
5.169,0.056
5.170,0.058
5.171,0.059
5.172,0.062
5.173,0.066
5.174,0.072
5.175,0.078
5.176,0.078
5.177,0.081
5.178,0.081
5.179,0.081
5.180,0.087
5.181,0.094
5.182,0.097
5.183,0.100
5.184,0.100
5.185,0.103
5.186,0.103
5.187,0.100
5.188,0.097
5.189,0.097
5.190,0.101
5.191,0.100
5.192,0.101
5.193,0.103
5.194,0.101
5.195,0.103
5.196,0.096
5.197,0.091
5.198,0.091
5.199,0.091
5.200,0.086
5.201,0.087
5.202,0.084
5.203,0.084
5.204,0.083
5.205,0.078
5.206,0.069
5.207,0.066
5.208,0.061
5.209,0.056
5.210,0.050
5.211,0.047
5.212,0.045
5.213,0.041
5.214,0.034
5.215,0.028
5.216,0.021
5.217,0.012
5.218,0.009
5.219,0.003
5.220,-0.001
5.221,-0.009
5.222,-0.017
5.223,-0.025
5.224,-0.028
5.225,-0.034
5.226,-0.034
5.227,-0.034
5.228,-0.038
5.229,-0.044
5.230,-0.044
5.231,-0.047
5.232,-0.054
5.233,-0.056
5.234,-0.063
5.235,-0.069
5.236,-0.072
5.237,-0.069
5.238,-0.075
5.239,-0.078
5.240,-0.081
5.241,-0.081
5.242,-0.087
5.243,-0.091
5.244,-0.092
5.245,-0.094
5.246,-0.089
5.247,-0.087
5.248,-0.089
5.249,-0.087
5.250,-0.086
5.251,-0.087
5.252,-0.094
5.253,-0.097
5.254,-0.096
5.255,-0.094
5.256,-0.100
5.257,-0.103
5.258,-0.103
5.259,-0.103
5.260,-0.104
5.261,-0.106
5.262,-0.106
5.263,-0.106
5.264,-0.105
5.265,-0.103
5.266,-0.103
5.267,-0.103
5.268,-0.104
5.269,-0.103
5.270,-0.103
5.271,-0.103
5.272,-0.103
5.273,-0.103
5.274,-0.102
5.275,-0.100
5.276,-0.100
5.277,-0.097
5.278,-0.097
5.279,-0.097
5.280,-0.098
5.281,-0.097
5.282,-0.094
5.283,-0.091
5.284,-0.087
5.285,-0.087
5.286,-0.086
5.287,-0.087
5.288,-0.089
5.289,-0.094
5.290,-0.094
5.291,-0.094
5.292,-0.094
5.293,-0.091
5.294,-0.092
5.295,-0.094
5.296,-0.095
5.297,-0.097
5.298,-0.091
5.299,-0.087
5.300,-0.081
5.301,-0.078
5.302,-0.081
5.303,-0.078
5.304,-0.078
5.305,-0.081
5.306,-0.083
5.307,-0.084
5.308,-0.083
5.309,-0.081
5.310,-0.077
5.311,-0.075
5.312,-0.077
5.313,-0.075
5.314,-0.074
5.315,-0.072
5.316,-0.073
5.317,-0.075
5.318,-0.076
5.319,-0.078
5.320,-0.078
5.321,-0.078
5.322,-0.079
5.323,-0.081
5.324,-0.086
5.325,-0.084
5.326,-0.086
5.327,-0.087
5.328,-0.089
5.329,-0.091
5.330,-0.089
5.331,-0.091
5.332,-0.087
5.333,-0.084
5.334,-0.086
5.335,-0.087
5.336,-0.083
5.337,-0.078
5.338,-0.081
5.339,-0.081
5.340,-0.083
5.341,-0.084
5.342,-0.086
5.343,-0.091
5.344,-0.086
5.345,-0.087
5.346,-0.091
5.347,-0.094
5.348,-0.097
5.349,-0.100
5.350,-0.100
5.351,-0.100
5.352,-0.099
5.353,-0.097
5.354,-0.097
5.355,-0.100
5.356,-0.099
5.357,-0.097
5.358,-0.097
5.359,-0.094
5.360,-0.095
5.361,-0.094
5.362,-0.093
5.363,-0.094
5.364,-0.098
5.365,-0.100
5.366,-0.101
5.367,-0.103
5.368,-0.104
5.369,-0.106
5.370,-0.105
5.371,-0.103
5.372,-0.104
5.373,-0.106
5.374,-0.102
5.375,-0.103
5.376,-0.106
5.377,-0.106
5.378,-0.108
5.379,-0.109
5.380,-0.108
5.381,-0.103
5.382,-0.099
5.383,-0.097
5.384,-0.094
5.385,-0.091
5.386,-0.084
5.387,-0.081
5.388,-0.081
5.389,-0.078
5.390,-0.075
5.391,-0.072
5.392,-0.061
5.393,-0.047
5.394,-0.036
5.395,-0.025
5.396,-0.019
5.397,-0.019
5.398,-0.011
5.399,-0.003
5.400,0.000
5.401,0.003
5.402,0.004
5.403,0.003
5.404,-0.001
5.405,-0.009
5.406,-0.016
5.407,-0.019
5.408,-0.019
5.409,-0.019
5.410,-0.016
5.411,-0.009
5.412,-0.001
5.413,0.009
5.414,0.022
5.415,0.025
5.416,0.031
5.417,0.041
5.418,0.037
5.419,0.044
5.420,0.050
5.421,0.059
5.422,0.066
5.423,0.066
5.424,0.067
5.425,0.069
5.426,0.068
5.427,0.062
5.428,0.053
5.429,0.044
5.430,0.039
5.431,0.031
5.432,0.022
5.433,0.016
5.434,0.009
5.435,0.003
5.436,-0.003
5.437,-0.013
5.438,-0.021
5.439,-0.028
5.440,-0.039
5.441,-0.050
5.442,-0.058
5.443,-0.063
5.444,-0.067
5.445,-0.075
5.446,-0.079
5.447,-0.091
5.448,-0.098
5.449,-0.109
5.450,-0.121
5.451,-0.128
5.452,-0.136
5.453,-0.137
5.454,-0.134
5.455,-0.131
5.456,-0.131
5.457,-0.131
5.458,-0.133
5.459,-0.141
5.460,-0.141
5.461,-0.141
5.462,-0.144
5.463,-0.147
5.464,-0.147
5.465,-0.147
5.466,-0.148
5.467,-0.153
5.468,-0.153
5.469,-0.156
5.470,-0.153
5.471,-0.156
5.472,-0.159
5.473,-0.163
5.474,-0.161
5.475,-0.163
5.476,-0.164
5.477,-0.163
5.478,-0.166
5.479,-0.166
5.480,-0.170
5.481,-0.169
5.482,-0.168
5.483,-0.166
5.484,-0.169
5.485,-0.169
5.486,-0.175
5.487,-0.178
5.488,-0.179
5.489,-0.181
5.490,-0.178
5.491,-0.178
5.492,-0.177
5.493,-0.178
5.494,-0.174
5.495,-0.166
5.496,-0.166
5.497,-0.166
5.498,-0.169
5.499,-0.169
5.500,-0.168
5.501,-0.169
5.502,-0.166
5.503,-0.166
5.504,-0.161
5.505,-0.159
5.506,-0.161
5.507,-0.163
5.508,-0.163
5.509,-0.163
5.510,-0.161
5.511,-0.159
5.512,-0.159
5.513,-0.159
5.514,-0.159
5.515,-0.159
5.516,-0.164
5.517,-0.169
5.518,-0.173
5.519,-0.178
5.520,-0.183
5.521,-0.188
5.522,-0.193
5.523,-0.197
5.524,-0.201
5.525,-0.209
5.526,-0.216
5.527,-0.228
5.528,-0.241
5.529,-0.244
5.530,-0.247
5.531,-0.250
5.532,-0.247
5.533,-0.234
5.534,-0.211
5.535,-0.188
5.536,-0.169
5.537,-0.134
5.538,-0.108
5.539,-0.063
5.540,-0.008
5.541,0.062
5.542,0.139
5.543,0.228
5.544,0.325
5.545,0.425
5.546,0.531
5.547,0.662
5.548,0.800
5.549,0.937
5.550,1.069
5.551,1.178
5.552,1.287
5.553,1.394
5.554,1.497
5.555,1.597
5.556,1.689
5.557,1.769
5.558,1.842
5.559,1.919
5.560,1.987
5.561,2.003
5.562,1.984
5.563,1.894
5.564,1.781
5.565,1.641
5.566,1.528
5.567,1.303
5.568,1.131
5.569,0.975
5.570,0.812
5.571,0.650
5.572,0.491
5.573,0.359
5.574,0.247
5.575,0.162
5.576,0.097
5.577,0.056
5.578,0.028
5.579,0.009
5.580,-0.011
5.581,-0.022
5.582,-0.038
5.583,-0.053
5.584,-0.063
5.585,-0.069
5.586,-0.074
5.587,-0.081
5.588,-0.084
5.589,-0.094
5.590,-0.098
5.591,-0.103
5.592,-0.103
5.593,-0.106
5.594,-0.105
5.595,-0.106
5.596,-0.114
5.597,-0.119
5.598,-0.121
5.599,-0.122
5.600,-0.122
5.601,-0.125
5.602,-0.128
5.603,-0.125
5.604,-0.128
5.605,-0.131
5.606,-0.137
5.607,-0.141
5.608,-0.144
5.609,-0.144
5.610,-0.144
5.611,-0.144
5.612,-0.143
5.613,-0.144
5.614,-0.139
5.615,-0.141
5.616,-0.144
5.617,-0.144
5.618,-0.147
5.619,-0.147
5.620,-0.144
5.621,-0.147
5.622,-0.147
5.623,-0.147
5.624,-0.146
5.625,-0.144
5.626,-0.144
5.627,-0.147
5.628,-0.144
5.629,-0.147
5.630,-0.150
5.631,-0.150
5.632,-0.149
5.633,-0.144
5.634,-0.145
5.635,-0.144
5.636,-0.142
5.637,-0.144
5.638,-0.147
5.639,-0.147
5.640,-0.144
5.641,-0.141
5.642,-0.139
5.643,-0.141
5.644,-0.139
5.645,-0.141
5.646,-0.141
5.647,-0.137
5.648,-0.134
5.649,-0.128
5.650,-0.131
5.651,-0.131
5.652,-0.129
5.653,-0.131
5.654,-0.133
5.655,-0.128
5.656,-0.125
5.657,-0.119
5.658,-0.118
5.659,-0.116
5.660,-0.117
5.661,-0.119
5.662,-0.122
5.663,-0.125
5.664,-0.124
5.665,-0.122
5.666,-0.123
5.667,-0.122
5.668,-0.123
5.669,-0.122
5.670,-0.122
5.671,-0.122
5.672,-0.123
5.673,-0.122
5.674,-0.121
5.675,-0.122
5.676,-0.114
5.677,-0.109
5.678,-0.109
5.679,-0.109
5.680,-0.108
5.681,-0.109
5.682,-0.109
5.683,-0.109
5.684,-0.109
5.685,-0.106
5.686,-0.106
5.687,-0.106
5.688,-0.104
5.689,-0.106
5.690,-0.102
5.691,-0.103
5.692,-0.106
5.693,-0.109
5.694,-0.109
5.695,-0.113
5.696,-0.111
5.697,-0.109
5.698,-0.108
5.699,-0.106
5.700,-0.103
5.701,-0.103
5.702,-0.103
5.703,-0.103
5.704,-0.100
5.705,-0.097
5.706,-0.096
5.707,-0.091
5.708,-0.091
5.709,-0.091
5.710,-0.094
5.711,-0.094
5.712,-0.093
5.713,-0.087
5.714,-0.087
5.715,-0.087
5.716,-0.084
5.717,-0.087
5.718,-0.086
5.719,-0.087
5.720,-0.083
5.721,-0.075
5.722,-0.074
5.723,-0.069
5.724,-0.070
5.725,-0.069
5.726,-0.070
5.727,-0.072
5.728,-0.072
5.729,-0.072
5.730,-0.071
5.731,-0.066
5.732,-0.063
5.733,-0.056
5.734,-0.061
5.735,-0.059
5.736,-0.053
5.737,-0.050
5.738,-0.047
5.739,-0.047
5.740,-0.044
5.741,-0.041
5.742,-0.041
5.743,-0.041
5.744,-0.042
5.745,-0.041
5.746,-0.039
5.747,-0.034
5.748,-0.031
5.749,-0.025
5.750,-0.023
5.751,-0.025
5.752,-0.022
5.753,-0.019
5.754,-0.019
5.755,-0.019
5.756,-0.014
5.757,-0.009
5.758,-0.006
5.759,-0.003
5.760,-0.004
5.761,-0.003
5.762,-0.003
5.763,-0.003
5.764,0.001
5.765,0.006
5.766,0.006
5.767,0.006
5.768,0.005
5.769,0.006
5.770,0.012
5.771,0.016
5.772,0.016
5.773,0.016
5.774,0.016
5.775,0.016
5.776,0.019
5.777,0.025
5.778,0.028
5.779,0.031
5.780,0.034
5.781,0.041
5.782,0.039
5.783,0.041
5.784,0.036
5.785,0.037
5.786,0.039
5.787,0.041
5.788,0.044
5.789,0.044
5.790,0.046
5.791,0.044
5.792,0.048
5.793,0.053
5.794,0.061
5.795,0.069
5.796,0.072
5.797,0.075
5.798,0.075
5.799,0.075
5.800,0.079
5.801,0.081
5.802,0.086
5.803,0.091
5.804,0.094
5.805,0.097
5.806,0.096
5.807,0.094
5.808,0.096
5.809,0.094
5.810,0.097
5.811,0.100
5.812,0.101
5.813,0.103
5.814,0.105
5.815,0.106
5.816,0.103
5.817,0.103
5.818,0.104
5.819,0.103
5.820,0.103
5.821,0.100
5.822,0.097
5.823,0.091
5.824,0.089
5.825,0.084
5.826,0.080
5.827,0.072
5.828,0.072
5.829,0.069
5.830,0.067
5.831,0.066
5.832,0.066
5.833,0.059
5.834,0.053
5.835,0.047
5.836,0.045
5.837,0.044
5.838,0.037
5.839,0.031
5.840,0.022
5.841,0.012
5.842,0.007
5.843,0.006
5.844,0.003
5.845,0.003
5.846,0.000
5.847,-0.003
5.848,-0.008
5.849,-0.009
5.850,-0.019
5.851,-0.025
5.852,-0.034
5.853,-0.044
5.854,-0.047
5.855,-0.047
5.856,-0.056
5.857,-0.066
5.858,-0.064
5.859,-0.066
5.860,-0.068
5.861,-0.072
5.862,-0.072
5.863,-0.075
5.864,-0.074
5.865,-0.075
5.866,-0.076
5.867,-0.084
5.868,-0.089
5.869,-0.091
5.870,-0.089
5.871,-0.087
5.872,-0.089
5.873,-0.091
5.874,-0.094
5.875,-0.094
5.876,-0.093
5.877,-0.094
5.878,-0.095
5.879,-0.097
5.880,-0.094
5.881,-0.094
5.882,-0.093
5.883,-0.091
5.884,-0.091
5.885,-0.091
5.886,-0.091
5.887,-0.091
5.888,-0.092
5.889,-0.094
5.890,-0.095
5.891,-0.097
5.892,-0.097
5.893,-0.097
5.894,-0.097
5.895,-0.100
5.896,-0.100
5.897,-0.100
5.898,-0.097
5.899,-0.094
5.900,-0.093
5.901,-0.091
5.902,-0.087
5.903,-0.087
5.904,-0.084
5.905,-0.081
5.906,-0.079
5.907,-0.081
5.908,-0.083
5.909,-0.084
5.910,-0.089
5.911,-0.087
5.912,-0.086
5.913,-0.084
5.914,-0.087
5.915,-0.087
5.916,-0.087
5.917,-0.087
5.918,-0.086
5.919,-0.087
5.920,-0.087
5.921,-0.087
5.922,-0.089
5.923,-0.087
5.924,-0.089
5.925,-0.087
5.926,-0.086
5.927,-0.087
5.928,-0.084
5.929,-0.084
5.930,-0.084
5.931,-0.081
5.932,-0.081
5.933,-0.081
5.934,-0.083
5.935,-0.081
5.936,-0.081
5.937,-0.084
5.938,-0.084
5.939,-0.084
5.940,-0.084
5.941,-0.084
5.942,-0.084
5.943,-0.084
5.944,-0.086
5.945,-0.087
5.946,-0.087
5.947,-0.087
5.948,-0.087
5.949,-0.087
5.950,-0.091
5.951,-0.094
5.952,-0.094
5.953,-0.097
5.954,-0.091
5.955,-0.087
5.956,-0.087
5.957,-0.087
5.958,-0.087
5.959,-0.087
5.960,-0.091
5.961,-0.091
5.962,-0.092
5.963,-0.094
5.964,-0.094
5.965,-0.094
5.966,-0.093
5.967,-0.094
5.968,-0.093
5.969,-0.091
5.970,-0.089
5.971,-0.087
5.972,-0.095
5.973,-0.097
5.974,-0.100
5.975,-0.100
5.976,-0.100
5.977,-0.100
5.978,-0.097
5.979,-0.094
5.980,-0.097
5.981,-0.100
5.982,-0.099
5.983,-0.097
5.984,-0.103
5.985,-0.106
5.986,-0.109
5.987,-0.116
5.988,-0.113
5.989,-0.109
5.990,-0.106
5.991,-0.106
5.992,-0.108
5.993,-0.109
5.994,-0.108
5.995,-0.106
5.996,-0.106
5.997,-0.106
5.998,-0.106
5.999,-0.106
6.000,-0.106
6.001,-0.106
6.002,-0.108
6.003,-0.106
6.004,-0.108
6.005,-0.109
6.006,-0.109
6.007,-0.109
6.008,-0.109
6.009,-0.109
6.010,-0.108
6.011,-0.106
6.012,-0.106
6.013,-0.103
6.014,-0.099
6.015,-0.094
6.016,-0.094
6.017,-0.091
6.018,-0.084
6.019,-0.078
6.020,-0.075
6.021,-0.069
6.022,-0.058
6.023,-0.050
6.024,-0.041
6.025,-0.031
6.026,-0.024
6.027,-0.013
6.028,-0.005
6.029,0.000
6.030,0.004
6.031,0.006
6.032,0.004
6.033,0.003
6.034,-0.004
6.035,-0.013
6.036,-0.016
6.037,-0.016
6.038,-0.019
6.039,-0.019
6.040,-0.017
6.041,-0.013
6.042,0.001
6.043,0.016
6.044,0.019
6.045,0.019
6.046,0.021
6.047,0.019
6.048,0.027
6.049,0.031
6.050,0.047
6.051,0.062
6.052,0.067
6.053,0.069
6.054,0.070
6.055,0.072
6.056,0.070
6.057,0.062
6.058,0.052
6.059,0.044
6.060,0.036
6.061,0.028
6.062,0.023
6.063,0.019
6.064,0.014
6.065,0.009
6.066,-0.001
6.067,-0.013
6.068,-0.023
6.069,-0.034
6.070,-0.041
6.071,-0.047
6.072,-0.056
6.073,-0.063
6.074,-0.072
6.075,-0.078
6.076,-0.084
6.077,-0.087
6.078,-0.094
6.079,-0.103
6.080,-0.119
6.081,-0.131
6.082,-0.134
6.083,-0.137
6.084,-0.137
6.085,-0.137
6.086,-0.136
6.087,-0.134
6.088,-0.141
6.089,-0.144
6.090,-0.144
6.091,-0.144
6.092,-0.148
6.093,-0.150
6.094,-0.149
6.095,-0.147
6.096,-0.149
6.097,-0.147
6.098,-0.154
6.099,-0.156
6.100,-0.159
6.101,-0.159
6.102,-0.158
6.103,-0.156
6.104,-0.159
6.105,-0.163
6.106,-0.161
6.107,-0.163
6.108,-0.161
6.109,-0.163
6.110,-0.161
6.111,-0.163
6.112,-0.163
6.113,-0.163
6.114,-0.159
6.115,-0.163
6.116,-0.163
6.117,-0.163
6.118,-0.166
6.119,-0.166
6.120,-0.164
6.121,-0.163
6.122,-0.166
6.123,-0.166
6.124,-0.164
6.125,-0.166
6.126,-0.166
6.127,-0.166
6.128,-0.163
6.129,-0.163
6.130,-0.166
6.131,-0.163
6.132,-0.164
6.133,-0.163
6.134,-0.163
6.135,-0.163
6.136,-0.163
6.137,-0.163
6.138,-0.164
6.139,-0.166
6.140,-0.163
6.141,-0.159
6.142,-0.159
6.143,-0.159
6.144,-0.158
6.145,-0.159
6.146,-0.159
6.147,-0.159
6.148,-0.161
6.149,-0.163
6.150,-0.169
6.151,-0.178
6.152,-0.184
6.153,-0.188
6.154,-0.189
6.155,-0.191
6.156,-0.203
6.157,-0.216
6.158,-0.222
6.159,-0.225
6.160,-0.231
6.161,-0.238
6.162,-0.234
6.163,-0.222
6.164,-0.207
6.165,-0.194
6.166,-0.166
6.167,-0.150
6.168,-0.117
6.169,-0.072
6.170,-0.013
6.171,0.053
6.172,0.136
6.173,0.225
6.174,0.312
6.175,0.403
6.176,0.511
6.177,0.634
6.178,0.781
6.179,0.928
6.180,1.061
6.181,1.184
6.182,1.291
6.183,1.391
6.184,1.489
6.185,1.584
6.186,1.673
6.187,1.750
6.188,1.850
6.189,1.947
6.190,2.020
6.191,2.078
6.192,2.054
6.193,2.000
6.194,1.920
6.195,1.819
6.196,1.553
6.197,1.400
6.198,1.234
6.199,1.072
6.200,0.924
6.201,0.744
6.202,0.583
6.203,0.441
6.204,0.316
6.205,0.206
6.206,0.128
6.207,0.066
6.208,0.031
6.209,0.000
6.210,-0.019
6.211,-0.038
6.212,-0.051
6.213,-0.059
6.214,-0.063
6.215,-0.069
6.216,-0.078
6.217,-0.081
6.218,-0.091
6.219,-0.094
6.220,-0.097
6.221,-0.100
6.222,-0.108
6.223,-0.109
6.224,-0.114
6.225,-0.122
6.226,-0.125
6.227,-0.128
6.228,-0.134
6.229,-0.137
6.230,-0.139
6.231,-0.141
6.232,-0.137
6.233,-0.141
6.234,-0.143
6.235,-0.144
6.236,-0.144
6.237,-0.147
6.238,-0.151
6.239,-0.156
6.240,-0.153
6.241,-0.150
6.242,-0.152
6.243,-0.147
6.244,-0.150
6.245,-0.150
6.246,-0.148
6.247,-0.153
6.248,-0.153
6.249,-0.150
6.250,-0.150
6.251,-0.147
6.252,-0.147
6.253,-0.147
6.254,-0.148
6.255,-0.147
6.256,-0.148
6.257,-0.147
6.258,-0.150
6.259,-0.153
6.260,-0.153
6.261,-0.153
6.262,-0.147
6.263,-0.144
6.264,-0.142
6.265,-0.141
6.266,-0.141
6.267,-0.144
6.268,-0.147
6.269,-0.147
6.270,-0.145
6.271,-0.147
6.272,-0.151
6.273,-0.150
6.274,-0.147
6.275,-0.144
6.276,-0.139
6.277,-0.137
6.278,-0.136
6.279,-0.141
6.280,-0.142
6.281,-0.141
6.282,-0.141
6.283,-0.144
6.284,-0.142
6.285,-0.144
6.286,-0.139
6.287,-0.137
6.288,-0.137
6.289,-0.137
6.290,-0.139
6.291,-0.141
6.292,-0.142
6.293,-0.144
6.294,-0.144
6.295,-0.144
6.296,-0.142
6.297,-0.144
6.298,-0.136
6.299,-0.131
6.300,-0.130
6.301,-0.128
6.302,-0.124
6.303,-0.122
6.304,-0.126
6.305,-0.125
6.306,-0.124
6.307,-0.122
6.308,-0.123
6.309,-0.122
6.310,-0.118
6.311,-0.113
6.312,-0.114
6.313,-0.116
6.314,-0.114
6.315,-0.116
6.316,-0.114
6.317,-0.109
6.318,-0.111
6.319,-0.109
6.320,-0.113
6.321,-0.113
6.322,-0.113
6.323,-0.109
6.324,-0.109
6.325,-0.109
6.326,-0.109
6.327,-0.109
6.328,-0.111
6.329,-0.109
6.330,-0.109
6.331,-0.106
6.332,-0.099
6.333,-0.094
6.334,-0.093
6.335,-0.091
6.336,-0.087
6.337,-0.087
6.338,-0.089
6.339,-0.091
6.340,-0.089
6.341,-0.091
6.342,-0.087
6.343,-0.087
6.344,-0.089
6.345,-0.087
6.346,-0.091
6.347,-0.087
6.348,-0.084
6.349,-0.081
6.350,-0.079
6.351,-0.081
6.352,-0.078
6.353,-0.078
6.354,-0.076
6.355,-0.078
6.356,-0.078
6.357,-0.075
6.358,-0.071
6.359,-0.069
6.360,-0.066
6.361,-0.066
6.362,-0.061
6.363,-0.063
6.364,-0.063
6.365,-0.063
6.366,-0.061
6.367,-0.056
6.368,-0.056
6.369,-0.053
6.370,-0.053
6.371,-0.053
6.372,-0.049
6.373,-0.047
6.374,-0.043
6.375,-0.041
6.376,-0.036
6.377,-0.034
6.378,-0.033
6.379,-0.031
6.380,-0.034
6.381,-0.034
6.382,-0.030
6.383,-0.028
6.384,-0.025
6.385,-0.019
6.386,-0.013
6.387,-0.006
6.388,-0.003
6.389,-0.003
6.390,-0.001
6.391,0.000
6.392,0.003
6.393,0.003
6.394,0.002
6.395,0.003
6.396,0.007
6.397,0.009
6.398,0.009
6.399,0.009
6.400,0.009
6.401,0.009
6.402,0.008
6.403,0.009
6.404,0.016
6.405,0.019
6.406,0.025
6.407,0.031
6.408,0.037
6.409,0.041
6.410,0.042
6.411,0.041
6.412,0.044
6.413,0.041
6.414,0.042
6.415,0.044
6.416,0.047
6.417,0.050
6.418,0.049
6.419,0.050
6.420,0.054
6.421,0.062
6.422,0.062
6.423,0.062
6.424,0.064
6.425,0.066
6.426,0.069
6.427,0.072
6.428,0.076
6.429,0.081
6.430,0.084
6.431,0.091
6.432,0.092
6.433,0.094
6.434,0.096
6.435,0.097
6.436,0.099
6.437,0.100
6.438,0.100
6.439,0.103
6.440,0.106
6.441,0.106
6.442,0.107
6.443,0.112
6.444,0.116
6.445,0.112
6.446,0.114
6.447,0.116
6.448,0.114
6.449,0.116
6.450,0.112
6.451,0.112
6.452,0.108
6.453,0.103
6.454,0.098
6.455,0.100
6.456,0.094
6.457,0.091
6.458,0.092
6.459,0.091
6.460,0.083
6.461,0.081
6.462,0.074
6.463,0.066
6.464,0.061
6.465,0.059
6.466,0.055
6.467,0.047
6.468,0.042
6.469,0.037
6.470,0.034
6.471,0.031
6.472,0.025
6.473,0.016
6.474,0.011
6.475,0.003
6.476,-0.003
6.477,-0.009
6.478,-0.011
6.479,-0.016
6.480,-0.020
6.481,-0.025
6.482,-0.029
6.483,-0.038
6.484,-0.039
6.485,-0.044
6.486,-0.050
6.487,-0.050
6.488,-0.056
6.489,-0.063
6.490,-0.069
6.491,-0.069
6.492,-0.071
6.493,-0.069
6.494,-0.073
6.495,-0.075
6.496,-0.081
6.497,-0.084
6.498,-0.084
6.499,-0.084
6.500,-0.084
6.501,-0.087
6.502,-0.091
6.503,-0.091
6.504,-0.087
6.505,-0.087
6.506,-0.091
6.507,-0.091
6.508,-0.091
6.509,-0.091
6.510,-0.094
6.511,-0.094
6.512,-0.095
6.513,-0.097
6.514,-0.098
6.515,-0.100
6.516,-0.096
6.517,-0.091
6.518,-0.091
6.519,-0.091
6.520,-0.089
6.521,-0.087
6.522,-0.089
6.523,-0.087
6.524,-0.087
6.525,-0.087
6.526,-0.087
6.527,-0.087
6.528,-0.089
6.529,-0.091
6.530,-0.089
6.531,-0.084
6.532,-0.086
6.533,-0.087
6.534,-0.091
6.535,-0.091
6.536,-0.091
6.537,-0.091
6.538,-0.089
6.539,-0.091
6.540,-0.087
6.541,-0.087
6.542,-0.084
6.543,-0.084
6.544,-0.086
6.545,-0.087
6.546,-0.089
6.547,-0.087
6.548,-0.084
6.549,-0.081
6.550,-0.083
6.551,-0.084
6.552,-0.083
6.553,-0.084
6.554,-0.083
6.555,-0.084
6.556,-0.087
6.557,-0.084
6.558,-0.084
6.559,-0.087
6.560,-0.087
6.561,-0.087
6.562,-0.087
6.563,-0.087
6.564,-0.081
6.565,-0.078
6.566,-0.081
6.567,-0.081
6.568,-0.084
6.569,-0.087
6.570,-0.084
6.571,-0.081
6.572,-0.081
6.573,-0.081
6.574,-0.083
6.575,-0.084
6.576,-0.083
6.577,-0.081
6.578,-0.078
6.579,-0.075
6.580,-0.079
6.581,-0.081
6.582,-0.086
6.583,-0.091
6.584,-0.094
6.585,-0.091
6.586,-0.089
6.587,-0.087
6.588,-0.087
6.589,-0.087
6.590,-0.086
6.591,-0.087
6.592,-0.087
6.593,-0.087
6.594,-0.087
6.595,-0.087
6.596,-0.086
6.597,-0.084
6.598,-0.087
6.599,-0.087
6.600,-0.089
6.601,-0.091
6.602,-0.091
6.603,-0.094
6.604,-0.089
6.605,-0.091
6.606,-0.092
6.607,-0.094
6.608,-0.093
6.609,-0.091
6.610,-0.091
6.611,-0.091
6.612,-0.092
6.613,-0.094
6.614,-0.095
6.615,-0.100
6.616,-0.099
6.617,-0.097
6.618,-0.097
6.619,-0.094
6.620,-0.095
6.621,-0.094
6.622,-0.095
6.623,-0.100
6.624,-0.103
6.625,-0.103
6.626,-0.100
6.627,-0.097
6.628,-0.096
6.629,-0.094
6.630,-0.094
6.631,-0.094
6.632,-0.094
6.633,-0.094
6.634,-0.089
6.635,-0.091
6.636,-0.094
6.637,-0.094
6.638,-0.097
6.639,-0.100
6.640,-0.103
6.641,-0.103
6.642,-0.100
6.643,-0.100
6.644,-0.096
6.645,-0.091
6.646,-0.087
6.647,-0.087
6.648,-0.084
6.649,-0.078
6.650,-0.075
6.651,-0.072
6.652,-0.069
6.653,-0.063
6.654,-0.050
6.655,-0.038
6.656,-0.022
6.657,-0.013
6.658,-0.008
6.659,-0.003
6.660,0.000
6.661,0.003
6.662,0.009
6.663,0.012
6.664,0.012
6.665,0.009
6.666,0.003
6.667,0.000
6.668,-0.003
6.669,-0.006
6.670,-0.008
6.671,-0.006
6.672,-0.003
6.673,0.003
6.674,0.020
6.675,0.028
6.676,0.027
6.677,0.028
6.678,0.027
6.679,0.034
6.680,0.042
6.681,0.053
6.682,0.067
6.683,0.075
6.684,0.076
6.685,0.078
6.686,0.083
6.687,0.084
6.688,0.078
6.689,0.072
6.690,0.067
6.691,0.059
6.692,0.047
6.693,0.037
6.694,0.030
6.695,0.022
6.696,0.017
6.697,0.009
6.698,0.001
6.699,-0.006
6.700,-0.017
6.701,-0.028
6.702,-0.038
6.703,-0.044
6.704,-0.048
6.705,-0.056
6.706,-0.056
6.707,-0.063
6.708,-0.069
6.709,-0.078
6.710,-0.091
6.711,-0.100
6.712,-0.111
6.713,-0.116
6.714,-0.117
6.715,-0.119
6.716,-0.118
6.717,-0.116
6.718,-0.116
6.719,-0.122
6.720,-0.125
6.721,-0.128
6.722,-0.133
6.723,-0.137
6.724,-0.139
6.725,-0.141
6.726,-0.139
6.727,-0.141
6.728,-0.139
6.729,-0.141
6.730,-0.137
6.731,-0.141
6.732,-0.147
6.733,-0.153
6.734,-0.152
6.735,-0.153
6.736,-0.155
6.737,-0.153
6.738,-0.158
6.739,-0.159
6.740,-0.163
6.741,-0.159
6.742,-0.159
6.743,-0.159
6.744,-0.163
6.745,-0.163
6.746,-0.166
6.747,-0.166
6.748,-0.163
6.749,-0.159
6.750,-0.155
6.751,-0.153
6.752,-0.152
6.753,-0.153
6.754,-0.158
6.755,-0.159
6.756,-0.161
6.757,-0.163
6.758,-0.158
6.759,-0.150
6.760,-0.149
6.761,-0.150
6.762,-0.148
6.763,-0.150
6.764,-0.147
6.765,-0.147
6.766,-0.147
6.767,-0.147
6.768,-0.147
6.769,-0.147
6.770,-0.147
6.771,-0.147
6.772,-0.147
6.773,-0.147
6.774,-0.147
6.775,-0.147
6.776,-0.147
6.777,-0.147
6.778,-0.149
6.779,-0.150
6.780,-0.153
6.781,-0.156
6.782,-0.158
6.783,-0.159
6.784,-0.163
6.785,-0.169
6.786,-0.175
6.787,-0.188
6.788,-0.207
6.789,-0.219
6.790,-0.219
6.791,-0.219
6.792,-0.228
6.793,-0.228
6.794,-0.217
6.795,-0.206
6.796,-0.192
6.797,-0.163
6.798,-0.145
6.799,-0.109
6.800,-0.067
6.801,-0.009
6.802,0.055
6.803,0.131
6.804,0.219
6.805,0.309
6.806,0.389
6.807,0.494
6.808,0.630
6.809,0.766
6.810,0.926
6.811,1.066
6.812,1.182
6.813,1.297
6.814,1.398
6.815,1.497
6.816,1.600
6.817,1.691
6.818,1.763
6.819,1.837
6.820,1.953
6.821,2.016
6.822,2.076
6.823,2.066
6.824,2.000
6.825,1.906
6.826,1.809
6.827,1.600
6.828,1.416
6.829,1.247
6.830,1.091
6.831,0.934
6.832,0.758
6.833,0.609
6.834,0.456
6.835,0.331
6.836,0.228
6.837,0.150
6.838,0.097
6.839,0.053
6.840,0.025
6.841,0.006
6.842,-0.009
6.843,-0.025
6.844,-0.038
6.845,-0.047
6.846,-0.053
6.847,-0.063
6.848,-0.067
6.849,-0.078
6.850,-0.083
6.851,-0.087
6.852,-0.091
6.853,-0.097
6.854,-0.097
6.855,-0.100
6.856,-0.108
6.857,-0.113
6.858,-0.116
6.859,-0.119
6.860,-0.119
6.861,-0.122
6.862,-0.125
6.863,-0.122
6.864,-0.122
6.865,-0.122
6.866,-0.125
6.867,-0.125
6.868,-0.127
6.869,-0.125
6.870,-0.125
6.871,-0.125
6.872,-0.129
6.873,-0.137
6.874,-0.133
6.875,-0.134
6.876,-0.131
6.877,-0.125
6.878,-0.128
6.879,-0.128
6.880,-0.125
6.881,-0.128
6.882,-0.128
6.883,-0.128
6.884,-0.128
6.885,-0.128
6.886,-0.126
6.887,-0.128
6.888,-0.125
6.889,-0.128
6.890,-0.131
6.891,-0.131
6.892,-0.131
6.893,-0.128
6.894,-0.131
6.895,-0.131
6.896,-0.127
6.897,-0.125
6.898,-0.127
6.899,-0.125
6.900,-0.122
6.901,-0.119
6.902,-0.118
6.903,-0.119
6.904,-0.117
6.905,-0.119
6.906,-0.122
6.907,-0.122
6.908,-0.121
6.909,-0.116
6.910,-0.114
6.911,-0.109
6.912,-0.108
6.913,-0.109
6.914,-0.113
6.915,-0.109
6.916,-0.111
6.917,-0.109
6.918,-0.111
6.919,-0.113
6.920,-0.109
6.921,-0.106
6.922,-0.106
6.923,-0.106
6.924,-0.106
6.925,-0.106
6.926,-0.108
6.927,-0.106
6.928,-0.109
6.929,-0.109
6.930,-0.103
6.931,-0.097
6.932,-0.098
6.933,-0.097
6.934,-0.096
6.935,-0.097
6.936,-0.097
6.937,-0.100
6.938,-0.099
6.939,-0.097
6.940,-0.093
6.941,-0.091
6.942,-0.089
6.943,-0.087
6.944,-0.089
6.945,-0.087
6.946,-0.087
6.947,-0.087
6.948,-0.084
6.949,-0.084
6.950,-0.081
6.951,-0.084
6.952,-0.084
6.953,-0.084
6.954,-0.081
6.955,-0.081
6.956,-0.080
6.957,-0.078
6.958,-0.078
6.959,-0.078
6.960,-0.076
6.961,-0.078
6.962,-0.078
6.963,-0.078
6.964,-0.078
6.965,-0.078
6.966,-0.077
6.967,-0.072
6.968,-0.069
6.969,-0.066
6.970,-0.067
6.971,-0.066
6.972,-0.067
6.973,-0.066
6.974,-0.067
6.975,-0.069
6.976,-0.064
6.977,-0.066
6.978,-0.064
6.979,-0.066
6.980,-0.063
6.981,-0.056
6.982,-0.058
6.983,-0.056
6.984,-0.056
6.985,-0.053
6.986,-0.050
6.987,-0.047
6.988,-0.044
6.989,-0.041
6.990,-0.042
6.991,-0.041
6.992,-0.041
6.993,-0.038
6.994,-0.042
6.995,-0.041
6.996,-0.038
6.997,-0.038
6.998,-0.034
6.999,-0.034
7.000,-0.033
7.001,-0.031
7.002,-0.029
7.003,-0.028
7.004,-0.024
7.005,-0.016
7.006,-0.017
7.007,-0.016
7.008,-0.019
7.009,-0.019
7.010,-0.013
7.011,-0.009
7.012,-0.006
7.013,-0.003
7.014,-0.003
7.015,-0.003
7.016,-0.003
7.017,-0.003
7.018,0.001
7.019,0.006
7.020,0.005
7.021,0.006
7.022,0.008
7.023,0.009
7.024,0.012
7.025,0.016
7.026,0.020
7.027,0.025
7.028,0.024
7.029,0.025
7.030,0.029
7.031,0.031
7.032,0.036
7.033,0.041
7.034,0.047
7.035,0.053
7.036,0.049
7.037,0.047
7.038,0.047
7.039,0.047
7.040,0.048
7.041,0.053
7.042,0.054
7.043,0.059
7.044,0.055
7.045,0.056
7.046,0.061
7.047,0.066
7.048,0.073
7.049,0.078
7.050,0.080
7.051,0.078
7.052,0.078
7.053,0.078
7.054,0.081
7.055,0.084
7.056,0.087
7.057,0.091
7.058,0.092
7.059,0.094
7.060,0.098
7.061,0.100
7.062,0.102
7.063,0.103
7.064,0.107
7.065,0.112
7.066,0.116
7.067,0.119
7.068,0.122
7.069,0.122
7.070,0.125
7.071,0.128
7.072,0.129
7.073,0.131
7.074,0.133
7.075,0.134
7.076,0.131
7.077,0.131
7.078,0.132
7.079,0.131
7.080,0.131
7.081,0.128
7.082,0.129
7.083,0.128
7.084,0.124
7.085,0.116
7.086,0.112
7.087,0.106
7.088,0.106
7.089,0.103
7.090,0.097
7.091,0.091
7.092,0.094
7.093,0.091
7.094,0.083
7.095,0.075
7.096,0.072
7.097,0.069
7.098,0.064
7.099,0.059
7.100,0.054
7.101,0.050
7.102,0.041
7.103,0.034
7.104,0.027
7.105,0.022
7.106,0.014
7.107,0.006
7.108,0.003
7.109,0.003
7.110,-0.003
7.111,-0.006
7.112,-0.008
7.113,-0.009
7.114,-0.017
7.115,-0.022
7.116,-0.027
7.117,-0.031
7.118,-0.031
7.119,-0.034
7.120,-0.038
7.121,-0.044
7.122,-0.044
7.123,-0.047
7.124,-0.050
7.125,-0.056
7.126,-0.055
7.127,-0.059
7.128,-0.063
7.129,-0.063
7.130,-0.061
7.131,-0.059
7.132,-0.058
7.133,-0.056
7.134,-0.063
7.135,-0.066
7.136,-0.066
7.137,-0.069
7.138,-0.070
7.139,-0.072
7.140,-0.072
7.141,-0.075
7.142,-0.075
7.143,-0.075
7.144,-0.074
7.145,-0.072
7.146,-0.073
7.147,-0.075
7.148,-0.075
7.149,-0.075
7.150,-0.074
7.151,-0.072
7.152,-0.072
7.153,-0.072
7.154,-0.069
7.155,-0.069
7.156,-0.070
7.157,-0.072
7.158,-0.072
7.159,-0.072
7.160,-0.071
7.161,-0.069
7.162,-0.067
7.163,-0.069
7.164,-0.070
7.165,-0.072
7.166,-0.069
7.167,-0.069
7.168,-0.068
7.169,-0.066
7.170,-0.066
7.171,-0.059
7.172,-0.058
7.173,-0.056
7.174,-0.061
7.175,-0.063
7.176,-0.063
7.177,-0.063
7.178,-0.061
7.179,-0.063
7.180,-0.059
7.181,-0.056
7.182,-0.058
7.183,-0.056
7.184,-0.058
7.185,-0.056
7.186,-0.056
7.187,-0.059
7.188,-0.058
7.189,-0.059
7.190,-0.061
7.191,-0.059
7.192,-0.058
7.193,-0.056
7.194,-0.058
7.195,-0.056
7.196,-0.058
7.197,-0.063
7.198,-0.063
7.199,-0.063
7.200,-0.059
7.201,-0.056
7.202,-0.058
7.203,-0.059
7.204,-0.061
7.205,-0.063
7.206,-0.059
7.207,-0.056
7.208,-0.056
7.209,-0.056
7.210,-0.058
7.211,-0.063
7.212,-0.062
7.213,-0.063
7.214,-0.061
7.215,-0.059
7.216,-0.061
7.217,-0.056
7.218,-0.058
7.219,-0.059
7.220,-0.063
7.221,-0.066
7.222,-0.066
7.223,-0.069
7.224,-0.069
7.225,-0.069
7.226,-0.069
7.227,-0.069
7.228,-0.068
7.229,-0.066
7.230,-0.068
7.231,-0.066
7.232,-0.066
7.233,-0.066
7.234,-0.066
7.235,-0.069
7.236,-0.066
7.237,-0.069
7.238,-0.068
7.239,-0.066
7.240,-0.066
7.241,-0.066
7.242,-0.067
7.243,-0.069
7.244,-0.069
7.245,-0.069
7.246,-0.068
7.247,-0.069
7.248,-0.069
7.249,-0.069
7.250,-0.071
7.251,-0.069
7.252,-0.070
7.253,-0.069
7.254,-0.068
7.255,-0.069
7.256,-0.072
7.257,-0.072
7.258,-0.073
7.259,-0.075
7.260,-0.078
7.261,-0.081
7.262,-0.081
7.263,-0.081
7.264,-0.083
7.265,-0.084
7.266,-0.078
7.267,-0.078
7.268,-0.081
7.269,-0.081
7.270,-0.083
7.271,-0.084
7.272,-0.087
7.273,-0.087
7.274,-0.086
7.275,-0.087
7.276,-0.084
7.277,-0.081
7.278,-0.078
7.279,-0.078
7.280,-0.078
7.281,-0.075
7.282,-0.073
7.283,-0.072
7.284,-0.067
7.285,-0.059
7.286,-0.046
7.287,-0.031
7.288,-0.013
7.289,0.000
7.290,0.003
7.291,0.006
7.292,0.008
7.293,0.009
7.294,0.012
7.295,0.012
7.296,0.012
7.297,0.009
7.298,0.003
7.299,0.000
7.300,-0.004
7.301,-0.009
7.302,-0.011
7.303,-0.009
7.304,-0.003
7.305,0.006
7.306,0.025
7.307,0.034
7.308,0.037
7.309,0.044
7.310,0.037
7.311,0.041
7.312,0.042
7.313,0.047
7.314,0.061
7.315,0.069
7.316,0.072
7.317,0.075
7.318,0.083
7.319,0.087
7.320,0.084
7.321,0.081
7.322,0.076
7.323,0.069
7.324,0.059
7.325,0.053
7.326,0.047
7.327,0.041
7.328,0.031
7.329,0.019
7.330,0.011
7.331,0.003
7.332,-0.006
7.333,-0.016
7.334,-0.028
7.335,-0.038
7.336,-0.042
7.337,-0.050
7.338,-0.053
7.339,-0.063
7.340,-0.066
7.341,-0.072
7.342,-0.083
7.343,-0.091
7.344,-0.103
7.345,-0.109
7.346,-0.114
7.347,-0.119
7.348,-0.119
7.349,-0.119
7.350,-0.113
7.351,-0.113
7.352,-0.116
7.353,-0.119
7.354,-0.123
7.355,-0.128
7.356,-0.134
7.357,-0.141
7.358,-0.139
7.359,-0.141
7.360,-0.139
7.361,-0.141
7.362,-0.137
7.363,-0.141
7.364,-0.139
7.365,-0.137
7.366,-0.136
7.367,-0.137
7.368,-0.141
7.369,-0.141
7.370,-0.144
7.371,-0.144
7.372,-0.151
7.373,-0.153
7.374,-0.152
7.375,-0.150
7.376,-0.150
7.377,-0.147
7.378,-0.149
7.379,-0.147
7.380,-0.150
7.381,-0.153
7.382,-0.150
7.383,-0.150
7.384,-0.149
7.385,-0.150
7.386,-0.153
7.387,-0.153
7.388,-0.152
7.389,-0.150
7.390,-0.151
7.391,-0.150
7.392,-0.149
7.393,-0.150
7.394,-0.150
7.395,-0.153
7.396,-0.147
7.397,-0.144
7.398,-0.144
7.399,-0.144
7.400,-0.141
7.401,-0.137
7.402,-0.139
7.403,-0.141
7.404,-0.144
7.405,-0.147
7.406,-0.147
7.407,-0.147
7.408,-0.147
7.409,-0.147
7.410,-0.149
7.411,-0.150
7.412,-0.150
7.413,-0.150
7.414,-0.153
7.415,-0.156
7.416,-0.156
7.417,-0.159
7.418,-0.163
7.419,-0.172
7.420,-0.191
7.421,-0.200
7.422,-0.201
7.423,-0.203
7.424,-0.213
7.425,-0.213
7.426,-0.197
7.427,-0.181
7.428,-0.175
7.429,-0.153
7.430,-0.136
7.431,-0.100
7.432,-0.063
7.433,-0.009
7.434,0.053
7.435,0.128
7.436,0.219
7.437,0.312
7.438,0.389
7.439,0.491
7.440,0.634
7.441,0.778
7.442,0.934
7.443,1.069
7.444,1.184
7.445,1.297
7.446,1.401
7.447,1.503
7.448,1.603
7.449,1.691
7.450,1.758
7.451,1.828
7.452,1.933
7.453,1.984
7.454,2.036
7.455,2.016
7.456,1.945
7.457,1.847
7.458,1.756
7.459,1.553
7.460,1.371
7.461,1.203
7.462,1.047
7.463,0.891
7.464,0.711
7.465,0.559
7.466,0.417
7.467,0.303
7.468,0.206
7.469,0.134
7.470,0.091
7.471,0.056
7.472,0.027
7.473,0.006
7.474,-0.008
7.475,-0.022
7.476,-0.033
7.477,-0.041
7.478,-0.048
7.479,-0.059
7.480,-0.061
7.481,-0.069
7.482,-0.076
7.483,-0.084
7.484,-0.089
7.485,-0.097
7.486,-0.097
7.487,-0.100
7.488,-0.106
7.489,-0.109
7.490,-0.111
7.491,-0.113
7.492,-0.111
7.493,-0.113
7.494,-0.117
7.495,-0.116
7.496,-0.118
7.497,-0.119
7.498,-0.123
7.499,-0.125
7.500,-0.128
7.501,-0.128
7.502,-0.128
7.503,-0.128
7.504,-0.128
7.505,-0.131
7.506,-0.129
7.507,-0.134
7.508,-0.131
7.509,-0.125
7.510,-0.128
7.511,-0.128
7.512,-0.125
7.513,-0.128
7.514,-0.129
7.515,-0.131
7.516,-0.130
7.517,-0.128
7.518,-0.126
7.519,-0.128
7.520,-0.122
7.521,-0.122
7.522,-0.124
7.523,-0.122
7.524,-0.125
7.525,-0.125
7.526,-0.128
7.527,-0.128
7.528,-0.122
7.529,-0.119
7.530,-0.121
7.531,-0.119
7.532,-0.114
7.533,-0.109
7.534,-0.109
7.535,-0.113
7.536,-0.113
7.537,-0.116
7.538,-0.120
7.539,-0.122
7.540,-0.119
7.541,-0.113
7.542,-0.116
7.543,-0.116
7.544,-0.113
7.545,-0.113
7.546,-0.113
7.547,-0.106
7.548,-0.108
7.549,-0.106
7.550,-0.108
7.551,-0.109
7.552,-0.109
7.553,-0.109
7.554,-0.109
7.555,-0.109
7.556,-0.108
7.557,-0.106
7.558,-0.109
7.559,-0.109
7.560,-0.111
7.561,-0.109
7.562,-0.109
7.563,-0.109
7.564,-0.108
7.565,-0.103
7.566,-0.103
7.567,-0.106
7.568,-0.103
7.569,-0.103
7.570,-0.104
7.571,-0.106
7.572,-0.104
7.573,-0.106
7.574,-0.102
7.575,-0.097
7.576,-0.097
7.577,-0.094
7.578,-0.094
7.579,-0.094
7.580,-0.089
7.581,-0.087
7.582,-0.084
7.583,-0.087
7.584,-0.089
7.585,-0.091
7.586,-0.089
7.587,-0.091
7.588,-0.089
7.589,-0.087
7.590,-0.087
7.591,-0.087
7.592,-0.083
7.593,-0.081
7.594,-0.081
7.595,-0.081
7.596,-0.081
7.597,-0.081
7.598,-0.083
7.599,-0.081
7.600,-0.080
7.601,-0.078
7.602,-0.075
7.603,-0.069
7.604,-0.072
7.605,-0.072
7.606,-0.068
7.607,-0.063
7.608,-0.056
7.609,-0.056
7.610,-0.058
7.611,-0.063
7.612,-0.066
7.613,-0.066
7.614,-0.064
7.615,-0.059
7.616,-0.056
7.617,-0.050
7.618,-0.051
7.619,-0.053
7.620,-0.053
7.621,-0.053
7.622,-0.053
7.623,-0.050
7.624,-0.047
7.625,-0.041
7.626,-0.048
7.627,-0.050
7.628,-0.048
7.629,-0.050
7.630,-0.043
7.631,-0.038
7.632,-0.036
7.633,-0.034
7.634,-0.031
7.635,-0.028
7.636,-0.029
7.637,-0.028
7.638,-0.029
7.639,-0.028
7.640,-0.027
7.641,-0.022
7.642,-0.014
7.643,-0.009
7.644,-0.009
7.645,-0.009
7.646,-0.009
7.647,-0.009
7.648,-0.005
7.649,0.000
7.650,0.004
7.651,0.009
7.652,0.008
7.653,0.009
7.654,0.009
7.655,0.009
7.656,0.012
7.657,0.016
7.658,0.020
7.659,0.025
7.660,0.024
7.661,0.025
7.662,0.029
7.663,0.031
7.664,0.030
7.665,0.028
7.666,0.033
7.667,0.037
7.668,0.037
7.669,0.041
7.670,0.041
7.671,0.041
7.672,0.037
7.673,0.037
7.674,0.037
7.675,0.041
7.676,0.037
7.677,0.041
7.678,0.042
7.679,0.044
7.680,0.050
7.681,0.053
7.682,0.057
7.683,0.059
7.684,0.062
7.685,0.066
7.686,0.064
7.687,0.062
7.688,0.067
7.689,0.072
7.690,0.078
7.691,0.084
7.692,0.086
7.693,0.084
7.694,0.086
7.695,0.087
7.696,0.086
7.697,0.084
7.698,0.092
7.699,0.100
7.700,0.107
7.701,0.112
7.702,0.116
7.703,0.119
7.704,0.119
7.705,0.119
7.706,0.121
7.707,0.122
7.708,0.119
7.709,0.119
7.710,0.119
7.711,0.116
7.712,0.117
7.713,0.116
7.714,0.117
7.715,0.116
7.716,0.112
7.717,0.106
7.718,0.105
7.719,0.100
7.720,0.100
7.721,0.097
7.722,0.087
7.723,0.078
7.724,0.075
7.725,0.066
7.726,0.066
7.727,0.066
7.728,0.059
7.729,0.053
7.730,0.047
7.731,0.041
7.732,0.034
7.733,0.028
7.734,0.019
7.735,0.012
7.736,0.011
7.737,0.012
7.738,0.007
7.739,0.003
7.740,-0.008
7.741,-0.016
7.742,-0.021
7.743,-0.022
7.744,-0.024
7.745,-0.025
7.746,-0.030
7.747,-0.031
7.748,-0.038
7.749,-0.044
7.750,-0.048
7.751,-0.056
7.752,-0.058
7.753,-0.063
7.754,-0.064
7.755,-0.069
7.756,-0.069
7.757,-0.072
7.758,-0.068
7.759,-0.069
7.760,-0.073
7.761,-0.075
7.762,-0.078
7.763,-0.081
7.764,-0.084
7.765,-0.087
7.766,-0.089
7.767,-0.087
7.768,-0.086
7.769,-0.087
7.770,-0.086
7.771,-0.084
7.772,-0.083
7.773,-0.084
7.774,-0.086
7.775,-0.087
7.776,-0.087
7.777,-0.087
7.778,-0.092
7.779,-0.097
7.780,-0.097
7.781,-0.097
7.782,-0.094
7.783,-0.091
7.784,-0.089
7.785,-0.087
7.786,-0.086
7.787,-0.087
7.788,-0.089
7.789,-0.091
7.790,-0.092
7.791,-0.094
7.792,-0.095
7.793,-0.097
7.794,-0.095
7.795,-0.097
7.796,-0.097
7.797,-0.097
7.798,-0.095
7.799,-0.097
7.800,-0.094
7.801,-0.091
7.802,-0.094
7.803,-0.091
7.804,-0.089
7.805,-0.087
7.806,-0.091
7.807,-0.091
7.808,-0.091
7.809,-0.091
7.810,-0.087
7.811,-0.087
7.812,-0.087
7.813,-0.087
7.814,-0.087
7.815,-0.084
7.816,-0.086
7.817,-0.084
7.818,-0.081
7.819,-0.081
7.820,-0.079
7.821,-0.081
7.822,-0.086
7.823,-0.087
7.824,-0.086
7.825,-0.084
7.826,-0.086
7.827,-0.084
7.828,-0.084
7.829,-0.087
7.830,-0.087
7.831,-0.087
7.832,-0.087
7.833,-0.087
7.834,-0.084
7.835,-0.081
7.836,-0.080
7.837,-0.078
7.838,-0.078
7.839,-0.078
7.840,-0.079
7.841,-0.081
7.842,-0.081
7.843,-0.081
7.844,-0.087
7.845,-0.087
7.846,-0.084
7.847,-0.081
7.848,-0.080
7.849,-0.078
7.850,-0.079
7.851,-0.084
7.852,-0.087
7.853,-0.091
7.854,-0.091
7.855,-0.091
7.856,-0.089
7.857,-0.087
7.858,-0.091
7.859,-0.091
7.860,-0.089
7.861,-0.087
7.862,-0.086
7.863,-0.087
7.864,-0.084
7.865,-0.087
7.866,-0.087
7.867,-0.087
7.868,-0.089
7.869,-0.091
7.870,-0.086
7.871,-0.081
7.872,-0.081
7.873,-0.081
7.874,-0.083
7.875,-0.087
7.876,-0.087
7.877,-0.087
7.878,-0.094
7.879,-0.097
7.880,-0.097
7.881,-0.094
7.882,-0.093
7.883,-0.094
7.884,-0.098
7.885,-0.100
7.886,-0.099
7.887,-0.097
7.888,-0.097
7.889,-0.097
7.890,-0.098
7.891,-0.100
7.892,-0.100
7.893,-0.100
7.894,-0.096
7.895,-0.097
7.896,-0.100
7.897,-0.100
7.898,-0.100
7.899,-0.100
7.900,-0.104
7.901,-0.106
7.902,-0.104
7.903,-0.106
7.904,-0.100
7.905,-0.094
7.906,-0.089
7.907,-0.087
7.908,-0.091
7.909,-0.091
7.910,-0.087
7.911,-0.084
7.912,-0.075
7.913,-0.063
7.914,-0.047
7.915,-0.031
7.916,-0.021
7.917,-0.016
7.918,-0.013
7.919,-0.009
7.920,-0.005
7.921,0.000
7.922,0.001
7.923,0.000
7.924,-0.002
7.925,-0.006
7.926,-0.014
7.927,-0.019
7.928,-0.022
7.929,-0.025
7.930,-0.021
7.931,-0.013
7.932,-0.008
7.933,0.000
7.934,0.016
7.935,0.022
7.936,0.021
7.937,0.022
7.938,0.021
7.939,0.028
7.940,0.036
7.941,0.047
7.942,0.057
7.943,0.062
7.944,0.064
7.945,0.066
7.946,0.069
7.947,0.069
7.948,0.062
7.949,0.056
7.950,0.051
7.951,0.044
7.952,0.031
7.953,0.022
7.954,0.012
7.955,0.003
7.956,0.000
7.957,-0.006
7.958,-0.013
7.959,-0.019
7.960,-0.029
7.961,-0.041
7.962,-0.051
7.963,-0.059
7.964,-0.061
7.965,-0.066
7.966,-0.070
7.967,-0.081
7.968,-0.087
7.969,-0.097
7.970,-0.111
7.971,-0.122
7.972,-0.134
7.973,-0.141
7.974,-0.139
7.975,-0.137
7.976,-0.139
7.977,-0.141
7.978,-0.137
7.979,-0.141
7.980,-0.141
7.981,-0.141
7.982,-0.143
7.983,-0.144
7.984,-0.145
7.985,-0.147
7.986,-0.150
7.987,-0.156
7.988,-0.156
7.989,-0.159
7.990,-0.152
7.991,-0.150
7.992,-0.150
7.993,-0.150
7.994,-0.147
7.995,-0.147
7.996,-0.158
7.997,-0.166
7.998,-0.170
7.999,-0.172
8.000,-0.176
8.001,-0.175
8.002,-0.169
8.003,-0.163
8.004,-0.161
8.005,-0.156
8.006,-0.159
8.007,-0.159
8.008,-0.161
8.009,-0.163
8.010,-0.163
8.011,-0.166
8.012,-0.164
8.013,-0.166
8.014,-0.167
8.015,-0.166
8.016,-0.167
8.017,-0.169
8.018,-0.170
8.019,-0.169
8.020,-0.164
8.021,-0.163
8.022,-0.158
8.023,-0.156
8.024,-0.154
8.025,-0.156
8.026,-0.158
8.027,-0.159
8.028,-0.161
8.029,-0.163
8.030,-0.163
8.031,-0.163
8.032,-0.163
8.033,-0.163
8.034,-0.163
8.035,-0.163
8.036,-0.164
8.037,-0.166
8.038,-0.169
8.039,-0.172
8.040,-0.174
8.041,-0.175
8.042,-0.180
8.043,-0.184
8.044,-0.191
8.045,-0.200
8.046,-0.206
8.047,-0.219
8.048,-0.233
8.049,-0.238
8.050,-0.238
8.051,-0.238
8.052,-0.241
8.053,-0.234
8.054,-0.214
8.055,-0.194
8.056,-0.183
8.057,-0.156
8.058,-0.139
8.059,-0.103
8.060,-0.059
8.061,0.000
8.062,0.079
8.063,0.172
8.064,0.262
8.065,0.356
8.066,0.441
8.067,0.550
8.068,0.686
8.069,0.822
8.070,0.962
8.071,1.081
8.072,1.191
8.073,1.297
8.074,1.409
8.075,1.519
8.076,1.617
8.077,1.703
8.078,1.775
8.079,1.850
8.080,1.923
8.081,1.944
8.082,1.941
8.083,1.866
8.084,1.772
8.085,1.650
8.086,1.538
8.087,1.312
8.088,1.146
8.089,0.994
8.090,0.839
8.091,0.684
8.092,0.520
8.093,0.384
8.094,0.262
8.095,0.169
8.096,0.104
8.097,0.066
8.098,0.034
8.099,0.012
8.100,-0.005
8.101,-0.013
8.102,-0.026
8.103,-0.041
8.104,-0.053
8.105,-0.063
8.106,-0.066
8.107,-0.072
8.108,-0.074
8.109,-0.081
8.110,-0.092
8.111,-0.103
8.112,-0.105
8.113,-0.109
8.114,-0.109
8.115,-0.113
8.116,-0.119
8.117,-0.122
8.118,-0.125
8.119,-0.128
8.120,-0.131
8.121,-0.137
8.122,-0.141
8.123,-0.137
8.124,-0.137
8.125,-0.137
8.126,-0.142
8.127,-0.144
8.128,-0.147
8.129,-0.147
8.130,-0.146
8.131,-0.144
8.132,-0.144
8.133,-0.147
8.134,-0.144
8.135,-0.147
8.136,-0.147
8.137,-0.144
8.138,-0.147
8.139,-0.147
8.140,-0.144
8.141,-0.147
8.142,-0.150
8.143,-0.153
8.144,-0.152
8.145,-0.150
8.146,-0.146
8.147,-0.144
8.148,-0.139
8.149,-0.141
8.150,-0.144
8.151,-0.144
8.152,-0.145
8.153,-0.144
8.154,-0.145
8.155,-0.144
8.156,-0.141
8.157,-0.141
8.158,-0.144
8.159,-0.144
8.160,-0.142
8.161,-0.141
8.162,-0.141
8.163,-0.144
8.164,-0.139
8.165,-0.137
8.166,-0.136
8.167,-0.131
8.168,-0.133
8.169,-0.131
8.170,-0.134
8.171,-0.134
8.172,-0.130
8.173,-0.128
8.174,-0.130
8.175,-0.125
8.176,-0.126
8.177,-0.125
8.178,-0.122
8.179,-0.119
8.180,-0.118
8.181,-0.116
8.182,-0.117
8.183,-0.119
8.184,-0.122
8.185,-0.125
8.186,-0.128
8.187,-0.128
8.188,-0.129
8.189,-0.128
8.190,-0.127
8.191,-0.125
8.192,-0.126
8.193,-0.125
8.194,-0.121
8.195,-0.119
8.196,-0.116
8.197,-0.116
8.198,-0.116
8.199,-0.116
8.200,-0.111
8.201,-0.109
8.202,-0.109
8.203,-0.109
8.204,-0.113
8.205,-0.113
8.206,-0.113
8.207,-0.113
8.208,-0.109
8.209,-0.109
8.210,-0.106
8.211,-0.109
8.212,-0.108
8.213,-0.106
8.214,-0.103
8.215,-0.103
8.216,-0.099
8.217,-0.094
8.218,-0.094
8.219,-0.094
8.220,-0.092
8.221,-0.094
8.222,-0.094
8.223,-0.094
8.224,-0.091
8.225,-0.087
8.226,-0.087
8.227,-0.084
8.228,-0.084
8.229,-0.084
8.230,-0.087
8.231,-0.087
8.232,-0.083
8.233,-0.075
8.234,-0.076
8.235,-0.078
8.236,-0.075
8.237,-0.078
8.238,-0.076
8.239,-0.078
8.240,-0.077
8.241,-0.072
8.242,-0.072
8.243,-0.069
8.244,-0.070
8.245,-0.069
8.246,-0.069
8.247,-0.069
8.248,-0.064
8.249,-0.059
8.250,-0.061
8.251,-0.059
8.252,-0.059
8.253,-0.056
8.254,-0.056
8.255,-0.050
8.256,-0.048
8.257,-0.050
8.258,-0.048
8.259,-0.050
8.260,-0.047
8.261,-0.044
8.262,-0.039
8.263,-0.034
8.264,-0.033
8.265,-0.028
8.266,-0.025
8.267,-0.019
8.268,-0.025
8.269,-0.028
8.270,-0.028
8.271,-0.031
8.272,-0.024
8.273,-0.016
8.274,-0.014
8.275,-0.013
8.276,-0.008
8.277,-0.003
8.278,0.000
8.279,0.003
8.280,0.000
8.281,0.000
8.282,0.002
8.283,0.003
8.284,0.004
8.285,0.006
8.286,0.009
8.287,0.012
8.288,0.014
8.289,0.019
8.290,0.019
8.291,0.016
8.292,0.016
8.293,0.016
8.294,0.020
8.295,0.025
8.296,0.028
8.297,0.034
8.298,0.036
8.299,0.037
8.300,0.036
8.301,0.037
8.302,0.039
8.303,0.044
8.304,0.039
8.305,0.041
8.306,0.042
8.307,0.044
8.308,0.050
8.309,0.053
8.310,0.053
8.311,0.050
8.312,0.052
8.313,0.053
8.314,0.057
8.315,0.062
8.316,0.064
8.317,0.066
8.318,0.070
8.319,0.075
8.320,0.078
8.321,0.078
8.322,0.080
8.323,0.081
8.324,0.086
8.325,0.091
8.326,0.092
8.327,0.094
8.328,0.096
8.329,0.094
8.330,0.101
8.331,0.109
8.332,0.108
8.333,0.106
8.334,0.109
8.335,0.112
8.336,0.111
8.337,0.112
8.338,0.114
8.339,0.112
8.340,0.112
8.341,0.109
8.342,0.108
8.343,0.103
8.344,0.101
8.345,0.097
8.346,0.098
8.347,0.097
8.348,0.094
8.349,0.087
8.350,0.080
8.351,0.072
8.352,0.075
8.353,0.072
8.354,0.069
8.355,0.066
8.356,0.061
8.357,0.056
8.358,0.049
8.359,0.041
8.360,0.034
8.361,0.028
8.362,0.022
8.363,0.019
8.364,0.014
8.365,0.012
8.366,0.005
8.367,-0.003
8.368,-0.011
8.369,-0.016
8.370,-0.023
8.371,-0.028
8.372,-0.030
8.373,-0.031
8.374,-0.039
8.375,-0.044
8.376,-0.046
8.377,-0.047
8.378,-0.050
8.379,-0.056
8.380,-0.059
8.381,-0.066
8.382,-0.067
8.383,-0.072
8.384,-0.073
8.385,-0.078
8.386,-0.078
8.387,-0.084
8.388,-0.087
8.389,-0.087
8.390,-0.086
8.391,-0.084
8.392,-0.087
8.393,-0.091
8.394,-0.092
8.395,-0.091
8.396,-0.089
8.397,-0.091
8.398,-0.092
8.399,-0.094
8.400,-0.093
8.401,-0.094
8.402,-0.095
8.403,-0.097
8.404,-0.097
8.405,-0.097
8.406,-0.097
8.407,-0.097
8.408,-0.097
8.409,-0.097
8.410,-0.098
8.411,-0.100
8.412,-0.100
8.413,-0.100
8.414,-0.098
8.415,-0.100
8.416,-0.101
8.417,-0.103
8.418,-0.102
8.419,-0.100
8.420,-0.099
8.421,-0.097
8.422,-0.095
8.423,-0.097
8.424,-0.097
8.425,-0.097
8.426,-0.094
8.427,-0.094
8.428,-0.094
8.429,-0.094
8.430,-0.100
8.431,-0.100
8.432,-0.099
8.433,-0.097
8.434,-0.100
8.435,-0.100
8.436,-0.100
8.437,-0.100
8.438,-0.098
8.439,-0.100
8.440,-0.097
8.441,-0.094
8.442,-0.093
8.443,-0.087
8.444,-0.089
8.445,-0.087
8.446,-0.081
8.447,-0.078
8.448,-0.074
8.449,-0.072
8.450,-0.076
8.451,-0.078
8.452,-0.081
8.453,-0.084
8.454,-0.087
8.455,-0.087
8.456,-0.086
8.457,-0.087
8.458,-0.087
8.459,-0.087
8.460,-0.084
8.461,-0.081
8.462,-0.077
8.463,-0.072
8.464,-0.072
8.465,-0.072
8.466,-0.073
8.467,-0.075
8.468,-0.078
8.469,-0.084
8.470,-0.081
8.471,-0.081
8.472,-0.080
8.473,-0.078
8.474,-0.078
8.475,-0.078
8.476,-0.083
8.477,-0.084
8.478,-0.084
8.479,-0.084
8.480,-0.086
8.481,-0.087
8.482,-0.086
8.483,-0.087
8.484,-0.087
8.485,-0.087
8.486,-0.091
8.487,-0.094
8.488,-0.097
8.489,-0.094
8.490,-0.096
8.491,-0.094
8.492,-0.094
8.493,-0.094
8.494,-0.094
8.495,-0.094
8.496,-0.094
8.497,-0.094
8.498,-0.093
8.499,-0.091
8.500,-0.094
8.501,-0.094
8.502,-0.093
8.503,-0.094
8.504,-0.094
8.505,-0.094
8.506,-0.094
8.507,-0.097
8.508,-0.096
8.509,-0.094
8.510,-0.095
8.511,-0.097
8.512,-0.096
8.513,-0.094
8.514,-0.095
8.515,-0.097
8.516,-0.098
8.517,-0.100
8.518,-0.101
8.519,-0.100
8.520,-0.102
8.521,-0.103
8.522,-0.106
8.523,-0.109
8.524,-0.111
8.525,-0.113
8.526,-0.108
8.527,-0.103
8.528,-0.102
8.529,-0.097
8.530,-0.095
8.531,-0.094
8.532,-0.094
8.533,-0.091
8.534,-0.084
8.535,-0.078
8.536,-0.078
8.537,-0.075
8.538,-0.064
8.539,-0.056
8.540,-0.047
8.541,-0.038
8.542,-0.034
8.543,-0.028
8.544,-0.021
8.545,-0.016
8.546,-0.005
8.547,0.003
8.548,0.004
8.549,0.006
8.550,-0.001
8.551,-0.009
8.552,-0.014
8.553,-0.016
8.554,-0.020
8.555,-0.022
8.556,-0.023
8.557,-0.022
8.558,-0.008
8.559,0.006
8.560,0.014
8.561,0.019
8.562,0.021
8.563,0.019
8.564,0.027
8.565,0.031
8.566,0.047
8.567,0.062
8.568,0.070
8.569,0.075
8.570,0.075
8.571,0.075
8.572,0.076
8.573,0.072
8.574,0.061
8.575,0.053
8.576,0.045
8.577,0.037
8.578,0.030
8.579,0.022
8.580,0.017
8.581,0.012
8.582,0.006
8.583,0.000
8.584,-0.008
8.585,-0.016
8.586,-0.026
8.587,-0.038
8.588,-0.045
8.589,-0.050
8.590,-0.059
8.591,-0.066
8.592,-0.075
8.593,-0.081
8.594,-0.089
8.595,-0.100
8.596,-0.114
8.597,-0.125
8.598,-0.128
8.599,-0.131
8.600,-0.131
8.601,-0.131
8.602,-0.127
8.603,-0.122
8.604,-0.128
8.605,-0.131
8.606,-0.136
8.607,-0.141
8.608,-0.145
8.609,-0.147
8.610,-0.147
8.611,-0.147
8.612,-0.149
8.613,-0.147
8.614,-0.151
8.615,-0.150
8.616,-0.153
8.617,-0.153
8.618,-0.154
8.619,-0.156
8.620,-0.156
8.621,-0.156
8.622,-0.155
8.623,-0.156
8.624,-0.159
8.625,-0.166
8.626,-0.167
8.627,-0.172
8.628,-0.172
8.629,-0.172
8.630,-0.166
8.631,-0.166
8.632,-0.166
8.633,-0.166
8.634,-0.163
8.635,-0.156
8.636,-0.158
8.637,-0.159
8.638,-0.164
8.639,-0.166
8.640,-0.164
8.641,-0.166
8.642,-0.166
8.643,-0.166
8.644,-0.164
8.645,-0.166
8.646,-0.170
8.647,-0.169
8.648,-0.168
8.649,-0.163
8.650,-0.163
8.651,-0.163
8.652,-0.163
8.653,-0.163
8.654,-0.159
8.655,-0.156
8.656,-0.158
8.657,-0.159
8.658,-0.159
8.659,-0.159
8.660,-0.159
8.661,-0.163
8.662,-0.163
8.663,-0.163
8.664,-0.166
8.665,-0.169
8.666,-0.172
8.667,-0.178
8.668,-0.188
8.669,-0.194
8.670,-0.196
8.671,-0.197
8.672,-0.209
8.673,-0.222
8.674,-0.233
8.675,-0.241
8.676,-0.245
8.677,-0.250
8.678,-0.251
8.679,-0.244
8.680,-0.222
8.681,-0.200
8.682,-0.179
8.683,-0.172
8.684,-0.148
8.685,-0.113
8.686,-0.064
8.687,-0.009
8.688,0.066
8.689,0.147
8.690,0.234
8.691,0.325
8.692,0.417
8.693,0.525
8.694,0.672
8.695,0.819
8.696,0.953
8.697,1.078
8.698,1.183
8.699,1.281
8.700,1.392
8.701,1.500
8.702,1.598
8.703,1.684
8.704,1.779
8.705,1.872
8.706,1.959
8.707,2.031
8.708,2.019
8.709,1.975
8.710,1.903
8.711,1.809
8.712,1.553
8.713,1.409
8.714,1.242
8.715,1.078
8.716,0.927
8.717,0.744
8.718,0.581
8.719,0.437
8.720,0.312
8.721,0.203
8.722,0.133
8.723,0.078
8.724,0.044
8.725,0.012
8.726,-0.003
8.727,-0.019
8.728,-0.038
8.729,-0.050
8.730,-0.059
8.731,-0.072
8.732,-0.081
8.733,-0.084
8.734,-0.095
8.735,-0.100
8.736,-0.100
8.737,-0.100
8.738,-0.106
8.739,-0.106
8.740,-0.113
8.741,-0.122
8.742,-0.124
8.743,-0.125
8.744,-0.129
8.745,-0.131
8.746,-0.134
8.747,-0.137
8.748,-0.136
8.749,-0.141
8.750,-0.143
8.751,-0.144
8.752,-0.143
8.753,-0.144
8.754,-0.147
8.755,-0.150
8.756,-0.151
8.757,-0.153
8.758,-0.156
8.759,-0.153
8.760,-0.156
8.761,-0.156
8.762,-0.154
8.763,-0.159
8.764,-0.159
8.765,-0.156
8.766,-0.159
8.767,-0.159
8.768,-0.158
8.769,-0.156
8.770,-0.158
8.771,-0.156
8.772,-0.156
8.773,-0.153
8.774,-0.152
8.775,-0.150
8.776,-0.151
8.777,-0.153
8.778,-0.154
8.779,-0.159
8.780,-0.158
8.781,-0.156
8.782,-0.153
8.783,-0.153
8.784,-0.152
8.785,-0.147
8.786,-0.143
8.787,-0.141
8.788,-0.145
8.789,-0.144
8.790,-0.145
8.791,-0.147
8.792,-0.144
8.793,-0.144
8.794,-0.139
8.795,-0.141
8.796,-0.142
8.797,-0.141
8.798,-0.139
8.799,-0.141
8.800,-0.136
8.801,-0.134
8.802,-0.133
8.803,-0.134
8.804,-0.134
8.805,-0.134
8.806,-0.136
8.807,-0.137
8.808,-0.134
8.809,-0.131
8.810,-0.131
8.811,-0.131
8.812,-0.129
8.813,-0.131
8.814,-0.127
8.815,-0.125
8.816,-0.125
8.817,-0.125
8.818,-0.126
8.819,-0.131
8.820,-0.137
8.821,-0.137
8.822,-0.133
8.823,-0.128
8.824,-0.127
8.825,-0.122
8.826,-0.122
8.827,-0.122
8.828,-0.123
8.829,-0.125
8.830,-0.121
8.831,-0.119
8.832,-0.119
8.833,-0.116
8.834,-0.119
8.835,-0.119
8.836,-0.121
8.837,-0.119
8.838,-0.120
8.839,-0.119
8.840,-0.119
8.841,-0.119
8.842,-0.116
8.843,-0.113
8.844,-0.114
8.845,-0.113
8.846,-0.111
8.847,-0.106
8.848,-0.104
8.849,-0.106
8.850,-0.106
8.851,-0.106
8.852,-0.103
8.853,-0.103
8.854,-0.100
8.855,-0.097
8.856,-0.095
8.857,-0.097
8.858,-0.093
8.859,-0.091
8.860,-0.089
8.861,-0.084
8.862,-0.091
8.863,-0.091
8.864,-0.092
8.865,-0.094
8.866,-0.092
8.867,-0.094
8.868,-0.092
8.869,-0.094
8.870,-0.086
8.871,-0.081
8.872,-0.081
8.873,-0.078
8.874,-0.076
8.875,-0.078
8.876,-0.075
8.877,-0.075
8.878,-0.071
8.879,-0.072
8.880,-0.072
8.881,-0.072
8.882,-0.071
8.883,-0.066
8.884,-0.064
8.885,-0.059
8.886,-0.058
8.887,-0.056
8.888,-0.053
8.889,-0.053
8.890,-0.047
8.891,-0.044
8.892,-0.041
8.893,-0.041
8.894,-0.038
8.895,-0.034
8.896,-0.036
8.897,-0.034
8.898,-0.033
8.899,-0.034
8.900,-0.031
8.901,-0.025
8.902,-0.022
8.903,-0.019
8.904,-0.017
8.905,-0.019
8.906,-0.019
8.907,-0.019
8.908,-0.011
8.909,-0.006
8.910,-0.005
8.911,0.000
8.912,0.003
8.913,0.003
8.914,0.003
8.915,0.003
8.916,0.006
8.917,0.009
8.918,0.008
8.919,0.009
8.920,0.011
8.921,0.009
8.922,0.009
8.923,0.009
8.924,0.016
8.925,0.019
8.926,0.023
8.927,0.025
8.928,0.029
8.929,0.028
8.930,0.030
8.931,0.031
8.932,0.036
8.933,0.041
8.934,0.039
8.935,0.041
8.936,0.041
8.937,0.044
8.938,0.046
8.939,0.047
8.940,0.050
8.941,0.053
8.942,0.056
8.943,0.059
8.944,0.064
8.945,0.069
8.946,0.066
8.947,0.066
8.948,0.069
8.949,0.072
8.950,0.076
8.951,0.081
8.952,0.086
8.953,0.091
8.954,0.092
8.955,0.097
8.956,0.100
8.957,0.100
8.958,0.097
8.959,0.097
8.960,0.100
8.961,0.097
8.962,0.097
8.963,0.097
8.964,0.097
8.965,0.100
8.966,0.096
8.967,0.094
8.968,0.092
8.969,0.091
8.970,0.084
8.971,0.084
8.972,0.083
8.973,0.084
8.974,0.080
8.975,0.072
8.976,0.062
8.977,0.059
8.978,0.056
8.979,0.053
8.980,0.047
8.981,0.044
8.982,0.039
8.983,0.031
8.984,0.025
8.985,0.019
8.986,0.014
8.987,0.009
8.988,0.007
8.989,0.003
8.990,-0.003
8.991,-0.013
8.992,-0.019
8.993,-0.025
8.994,-0.027
8.995,-0.031
8.996,-0.034
8.997,-0.038
8.998,-0.041
8.999,-0.047
9.000,-0.050
9.001,-0.056
9.002,-0.063
9.003,-0.063
9.004,-0.064
9.005,-0.066
9.006,-0.071
9.007,-0.069
9.008,-0.073
9.009,-0.075
9.010,-0.079
9.011,-0.081
9.012,-0.087
9.013,-0.091
9.014,-0.089
9.015,-0.087
9.016,-0.086
9.017,-0.087
9.018,-0.092
9.019,-0.094
9.020,-0.095
9.021,-0.100
9.022,-0.103
9.023,-0.103
9.024,-0.102
9.025,-0.100
9.026,-0.103
9.027,-0.103
9.028,-0.102
9.029,-0.100
9.030,-0.099
9.031,-0.097
9.032,-0.097
9.033,-0.097
9.034,-0.098
9.035,-0.100
9.036,-0.100
9.037,-0.100
9.038,-0.103
9.039,-0.103
9.040,-0.099
9.041,-0.094
9.042,-0.095
9.043,-0.097
9.044,-0.096
9.045,-0.094
9.046,-0.097
9.047,-0.097
9.048,-0.097
9.049,-0.097
9.050,-0.097
9.051,-0.094
9.052,-0.091
9.053,-0.087
9.054,-0.087
9.055,-0.091
9.056,-0.089
9.057,-0.091
9.058,-0.087
9.059,-0.087
9.060,-0.087
9.061,-0.087
9.062,-0.089
9.063,-0.087
9.064,-0.087
9.065,-0.087
9.066,-0.089
9.067,-0.091
9.068,-0.086
9.069,-0.084
9.070,-0.078
9.071,-0.075
9.072,-0.079
9.073,-0.078
9.074,-0.078
9.075,-0.081
9.076,-0.081
9.077,-0.081
9.078,-0.083
9.079,-0.084
9.080,-0.081
9.081,-0.081
9.082,-0.084
9.083,-0.084
9.084,-0.084
9.085,-0.084
9.086,-0.086
9.087,-0.087
9.088,-0.089
9.089,-0.091
9.090,-0.091
9.091,-0.091
9.092,-0.087
9.093,-0.084
9.094,-0.084
9.095,-0.084
9.096,-0.087
9.097,-0.087
9.098,-0.086
9.099,-0.087
9.100,-0.086
9.101,-0.087
9.102,-0.086
9.103,-0.084
9.104,-0.084
9.105,-0.084
9.106,-0.086
9.107,-0.084
9.108,-0.086
9.109,-0.087
9.110,-0.089
9.111,-0.091
9.112,-0.089
9.113,-0.091
9.114,-0.091
9.115,-0.091
9.116,-0.089
9.117,-0.087
9.118,-0.091
9.119,-0.087
9.120,-0.094
9.121,-0.097
9.122,-0.097
9.123,-0.097
9.124,-0.094
9.125,-0.091
9.126,-0.091
9.127,-0.091
9.128,-0.092
9.129,-0.094
9.130,-0.098
9.131,-0.100
9.132,-0.096
9.133,-0.094
9.134,-0.094
9.135,-0.094
9.136,-0.094
9.137,-0.097
9.138,-0.100
9.139,-0.103
9.140,-0.102
9.141,-0.100
9.142,-0.101
9.143,-0.103
9.144,-0.104
9.145,-0.106
9.146,-0.106
9.147,-0.106
9.148,-0.106
9.149,-0.103
9.150,-0.105
9.151,-0.106
9.152,-0.106
9.153,-0.106
9.154,-0.103
9.155,-0.100
9.156,-0.101
9.157,-0.103
9.158,-0.103
9.159,-0.100
9.160,-0.096
9.161,-0.091
9.162,-0.092
9.163,-0.091
9.164,-0.084
9.165,-0.078
9.166,-0.073
9.167,-0.066
9.168,-0.053
9.169,-0.044
9.170,-0.034
9.171,-0.025
9.172,-0.022
9.173,-0.016
9.174,-0.008
9.175,-0.003
9.176,0.004
9.177,0.009
9.178,0.011
9.179,0.012
9.180,0.006
9.181,0.000
9.182,-0.009
9.183,-0.016
9.184,-0.020
9.185,-0.022
9.186,-0.017
9.187,-0.009
9.188,0.003
9.189,0.016
9.190,0.026
9.191,0.034
9.192,0.037
9.193,0.037
9.194,0.042
9.195,0.044
9.196,0.054
9.197,0.066
9.198,0.073
9.199,0.078
9.200,0.079
9.201,0.081
9.202,0.081
9.203,0.075
9.204,0.064
9.205,0.056
9.206,0.048
9.207,0.041
9.208,0.031
9.209,0.022
9.210,0.016
9.211,0.009
9.212,0.001
9.213,-0.006
9.214,-0.016
9.215,-0.025
9.216,-0.036
9.217,-0.047
9.218,-0.056
9.219,-0.063
9.220,-0.070
9.221,-0.075
9.222,-0.081
9.223,-0.084
9.224,-0.093
9.225,-0.103
9.226,-0.114
9.227,-0.122
9.228,-0.122
9.229,-0.122
9.230,-0.121
9.231,-0.119
9.232,-0.123
9.233,-0.128
9.234,-0.130
9.235,-0.128
9.236,-0.133
9.237,-0.137
9.238,-0.144
9.239,-0.147
9.240,-0.148
9.241,-0.150
9.242,-0.154
9.243,-0.156
9.244,-0.159
9.245,-0.156
9.246,-0.159
9.247,-0.159
9.248,-0.161
9.249,-0.163
9.250,-0.164
9.251,-0.166
9.252,-0.164
9.253,-0.166
9.254,-0.166
9.255,-0.169
9.256,-0.166
9.257,-0.166
9.258,-0.167
9.259,-0.169
9.260,-0.166
9.261,-0.169
9.262,-0.166
9.263,-0.163
9.264,-0.163
9.265,-0.159
9.266,-0.161
9.267,-0.163
9.268,-0.166
9.269,-0.166
9.270,-0.164
9.271,-0.166
9.272,-0.167
9.273,-0.169
9.274,-0.164
9.275,-0.163
9.276,-0.166
9.277,-0.163
9.278,-0.164
9.279,-0.163
9.280,-0.159
9.281,-0.156
9.282,-0.156
9.283,-0.156
9.284,-0.156
9.285,-0.156
9.286,-0.155
9.287,-0.153
9.288,-0.154
9.289,-0.156
9.290,-0.155
9.291,-0.156
9.292,-0.156
9.293,-0.156
9.294,-0.159
9.295,-0.163
9.296,-0.164
9.297,-0.169
9.298,-0.174
9.299,-0.175
9.300,-0.183
9.301,-0.191
9.302,-0.199
9.303,-0.206
9.304,-0.213
9.305,-0.216
9.306,-0.222
9.307,-0.228
9.308,-0.234
9.309,-0.231
9.310,-0.214
9.311,-0.197
9.312,-0.170
9.313,-0.156
9.314,-0.123
9.315,-0.078
9.316,-0.023
9.317,0.037
9.318,0.112
9.319,0.194
9.320,0.281
9.321,0.372
9.322,0.469
9.323,0.581
9.324,0.734
9.325,0.888
9.326,1.025
9.327,1.153
9.328,1.258
9.329,1.356
9.330,1.457
9.331,1.556
9.332,1.642
9.333,1.716
9.334,1.816
9.335,1.912
9.336,2.006
9.337,2.084
9.338,2.081
9.339,2.047
9.340,1.558
9.341,1.047
9.342,0.502
9.343,0.069
9.344,0.067
9.345,0.069
9.346,0.084
9.347,0.069
9.348,0.147
9.349,0.244
9.350,0.244
9.351,0.259
9.352,0.177
9.353,0.109
9.354,0.068
9.355,0.028
9.356,0.005
9.357,-0.019
9.358,-0.034
9.359,-0.044
9.360,-0.048
9.361,-0.056
9.362,-0.069
9.363,-0.075
9.364,-0.086
9.365,-0.091
9.366,-0.091
9.367,-0.091
9.368,-0.097
9.369,-0.097
9.370,-0.100
9.371,-0.106
9.372,-0.113
9.373,-0.119
9.374,-0.123
9.375,-0.125
9.376,-0.129
9.377,-0.134
9.378,-0.131
9.379,-0.134
9.380,-0.136
9.381,-0.137
9.382,-0.134
9.383,-0.134
9.384,-0.133
9.385,-0.131
9.386,-0.134
9.387,-0.137
9.388,-0.142
9.389,-0.141
9.390,-0.144
9.391,-0.144
9.392,-0.137
9.393,-0.137
9.394,-0.139
9.395,-0.137
9.396,-0.144
9.397,-0.147
9.398,-0.147
9.399,-0.147
9.400,-0.144
9.401,-0.137
9.402,-0.139
9.403,-0.137
9.404,-0.139
9.405,-0.141
9.406,-0.142
