'Elapsed time','II'
'seconds','mV'
0.000,-0.106
0.001,-0.081
0.002,-0.083
0.003,-0.084
0.004,-0.083
0.005,-0.084
0.006,-0.084
0.007,-0.084
0.008,-0.086
0.009,-0.088
0.010,-0.086
0.011,-0.088
0.012,-0.084
0.013,-0.088
0.014,-0.088
0.015,-0.088
0.016,-0.088
0.017,-0.091
0.018,-0.091
0.019,-0.088
0.020,-0.092
0.021,-0.094
0.022,-0.098
0.023,-0.100
0.024,-0.099
0.025,-0.097
0.026,-0.100
0.027,-0.103
0.028,-0.102
0.029,-0.103
0.030,-0.103
0.031,-0.106
0.032,-0.104
0.033,-0.106
0.034,-0.105
0.035,-0.103
0.036,-0.106
0.037,-0.103
0.038,-0.106
0.039,-0.103
0.040,-0.102
0.041,-0.103
0.042,-0.104
0.043,-0.106
0.044,-0.106
0.045,-0.106
0.046,-0.103
0.047,-0.103
0.048,-0.106
0.049,-0.106
0.050,-0.104
0.051,-0.109
0.052,-0.109
0.053,-0.112
0.054,-0.112
0.055,-0.112
0.056,-0.111
0.057,-0.112
0.058,-0.111
0.059,-0.112
0.060,-0.112
0.061,-0.112
0.062,-0.111
0.063,-0.109
0.064,-0.109
0.065,-0.106
0.066,-0.109
0.067,-0.109
0.068,-0.109
0.069,-0.109
0.070,-0.111
0.071,-0.112
0.072,-0.108
0.073,-0.109
0.074,-0.109
0.075,-0.112
0.076,-0.109
0.077,-0.112
0.078,-0.112
0.079,-0.112
0.080,-0.111
0.081,-0.109
0.082,-0.112
0.083,-0.112
0.084,-0.114
0.085,-0.119
0.086,-0.116
0.087,-0.119
0.088,-0.114
0.089,-0.112
0.090,-0.111
0.091,-0.109
0.092,-0.112
0.093,-0.116
0.094,-0.117
0.095,-0.119
0.096,-0.122
0.097,-0.122
0.098,-0.119
0.099,-0.119
0.100,-0.114
0.101,-0.112
0.102,-0.116
0.103,-0.116
0.104,-0.109
0.105,-0.106
0.106,-0.098
0.107,-0.094
0.108,-0.095
0.109,-0.094
0.110,-0.084
0.111,-0.075
0.112,-0.068
0.113,-0.056
0.114,-0.047
0.115,-0.041
0.116,-0.039
0.117,-0.034
0.118,-0.025
0.119,-0.016
0.120,-0.021
0.121,-0.019
0.122,-0.022
0.123,-0.022
0.124,-0.026
0.125,-0.031
0.126,-0.039
0.127,-0.044
0.128,-0.045
0.129,-0.044
0.130,-0.042
0.131,-0.034
0.132,-0.021
0.133,-0.016
0.134,-0.008
0.135,0.000
0.136,0.005
0.137,0.006
0.138,0.019
0.139,0.025
0.140,0.029
0.141,0.037
0.142,0.041
0.143,0.044
0.144,0.050
0.145,0.050
0.146,0.041
0.147,0.031
0.148,0.021
0.149,0.013
0.150,0.016
0.151,0.009
0.152,0.006
0.153,0.000
0.154,-0.011
0.155,-0.022
0.156,-0.025
0.157,-0.028
0.158,-0.036
0.159,-0.044
0.160,-0.046
0.161,-0.047
0.162,-0.054
0.163,-0.066
0.164,-0.071
0.165,-0.075
0.166,-0.081
0.167,-0.088
0.168,-0.100
0.169,-0.109
0.170,-0.120
0.171,-0.131
0.172,-0.134
0.173,-0.134
0.174,-0.133
0.175,-0.128
0.176,-0.125
0.177,-0.122
0.178,-0.124
0.179,-0.125
0.180,-0.133
0.181,-0.134
0.182,-0.134
0.183,-0.138
0.184,-0.136
0.185,-0.138
0.186,-0.138
0.187,-0.138
0.188,-0.139
0.189,-0.141
0.190,-0.141
0.191,-0.141
0.192,-0.141
0.193,-0.144
0.194,-0.145
0.195,-0.147
0.196,-0.146
0.197,-0.147
0.198,-0.147
0.199,-0.150
0.200,-0.150
0.201,-0.153
0.202,-0.156
0.203,-0.156
0.204,-0.153
0.205,-0.150
0.206,-0.150
0.207,-0.150
0.208,-0.150
0.209,-0.150
0.210,-0.149
0.211,-0.150
0.212,-0.149
0.213,-0.147
0.214,-0.147
0.215,-0.147
0.216,-0.147
0.217,-0.147
0.218,-0.144
0.219,-0.144
0.220,-0.144
0.221,-0.141
0.222,-0.141
0.223,-0.141
0.224,-0.141
0.225,-0.144
0.226,-0.141
0.227,-0.144
0.228,-0.142
0.229,-0.144
0.230,-0.144
0.231,-0.144
0.232,-0.144
0.233,-0.144
0.234,-0.143
0.235,-0.141
0.236,-0.143
0.237,-0.144
0.238,-0.150
0.239,-0.156
0.240,-0.161
0.241,-0.166
0.242,-0.174
0.243,-0.178
0.244,-0.186
0.245,-0.191
0.246,-0.201
0.247,-0.216
0.248,-0.226
0.249,-0.237
0.250,-0.241
0.251,-0.241
0.252,-0.242
0.253,-0.241
0.254,-0.221
0.255,-0.200
0.256,-0.179
0.257,-0.162
0.258,-0.150
0.259,-0.128
0.260,-0.092
0.261,-0.037
0.262,0.028
0.263,0.100
0.264,0.171
0.265,0.253
0.266,0.347
0.267,0.444
0.268,0.552
0.269,0.675
0.270,0.806
0.271,0.931
0.272,1.043
0.273,1.134
0.274,1.231
0.275,1.334
0.276,1.442
0.277,1.553
0.278,1.656
0.279,1.762
0.280,1.866
0.281,1.950
0.282,1.994
0.283,1.997
0.284,1.947
0.285,1.844
0.286,1.719
0.287,1.584
0.288,1.448
0.289,1.306
0.290,1.161
0.291,1.022
0.292,0.874
0.293,0.719
0.294,0.563
0.295,0.409
0.296,0.277
0.297,0.169
0.298,0.103
0.299,0.072
0.300,0.054
0.301,0.047
0.302,0.032
0.303,0.022
0.304,0.005
0.305,-0.006
0.306,-0.014
0.307,-0.019
0.308,-0.025
0.309,-0.031
0.310,-0.037
0.311,-0.047
0.312,-0.052
0.313,-0.056
0.314,-0.064
0.315,-0.069
0.316,-0.072
0.317,-0.078
0.318,-0.084
0.319,-0.088
0.320,-0.092
0.321,-0.094
0.322,-0.100
0.323,-0.100
0.324,-0.100
0.325,-0.103
0.326,-0.103
0.327,-0.103
0.328,-0.102
0.329,-0.100
0.330,-0.103
0.331,-0.106
0.332,-0.107
0.333,-0.116
0.334,-0.120
0.335,-0.125
0.336,-0.125
0.337,-0.128
0.338,-0.128
0.339,-0.128
0.340,-0.128
0.341,-0.131
0.342,-0.129
0.343,-0.131
0.344,-0.131
0.345,-0.131
0.346,-0.133
0.347,-0.131
0.348,-0.125
0.349,-0.125
0.350,-0.125
0.351,-0.125
0.352,-0.128
0.353,-0.131
0.354,-0.131
0.355,-0.131
0.356,-0.131
0.357,-0.131
0.358,-0.133
0.359,-0.134
0.360,-0.136
0.361,-0.138
0.362,-0.138
0.363,-0.138
0.364,-0.131
0.365,-0.131
0.366,-0.136
0.367,-0.138
0.368,-0.138
0.369,-0.141
0.370,-0.141
0.371,-0.141
0.372,-0.136
0.373,-0.131
0.374,-0.127
0.375,-0.128
0.376,-0.129
0.377,-0.128
0.378,-0.124
0.379,-0.119
0.380,-0.120
0.381,-0.119
0.382,-0.125
0.383,-0.128
0.384,-0.129
0.385,-0.131
0.386,-0.130
0.387,-0.128
0.388,-0.129
0.389,-0.128
0.390,-0.127
0.391,-0.122
0.392,-0.125
0.393,-0.125
0.394,-0.126
0.395,-0.125
0.396,-0.127
0.397,-0.122
0.398,-0.120
0.399,-0.122
0.400,-0.117
0.401,-0.116
0.402,-0.114
0.403,-0.116
0.404,-0.117
0.405,-0.119
0.406,-0.120
0.407,-0.119
0.408,-0.116
0.409,-0.112
0.410,-0.112
0.411,-0.112
0.412,-0.112
0.413,-0.119
0.414,-0.116
0.415,-0.119
0.416,-0.117
0.417,-0.112
0.418,-0.109
0.419,-0.109
0.420,-0.106
0.421,-0.103
0.422,-0.104
0.423,-0.103
0.424,-0.103
0.425,-0.103
0.426,-0.104
0.427,-0.103
0.428,-0.102
0.429,-0.103
0.430,-0.101
0.431,-0.103
0.432,-0.100
0.433,-0.103
0.434,-0.097
0.435,-0.094
0.436,-0.097
0.437,-0.097
0.438,-0.094
0.439,-0.097
0.440,-0.097
0.441,-0.097
0.442,-0.094
0.443,-0.091
0.444,-0.088
0.445,-0.088
0.446,-0.086
0.447,-0.084
0.448,-0.084
0.449,-0.084
0.450,-0.081
0.451,-0.075
0.452,-0.075
0.453,-0.078
0.454,-0.079
0.455,-0.081
0.456,-0.078
0.457,-0.075
0.458,-0.071
0.459,-0.069
0.460,-0.069
0.461,-0.069
0.462,-0.067
0.463,-0.069
0.464,-0.068
0.465,-0.063
0.466,-0.059
0.467,-0.059
0.468,-0.059
0.469,-0.059
0.470,-0.059
0.471,-0.063
0.472,-0.059
0.473,-0.053
0.474,-0.054
0.475,-0.056
0.476,-0.056
0.477,-0.059
0.478,-0.059
0.479,-0.059
0.480,-0.055
0.481,-0.050
0.482,-0.051
0.483,-0.050
0.484,-0.050
0.485,-0.044
0.486,-0.044
0.487,-0.041
0.488,-0.039
0.489,-0.034
0.490,-0.036
0.491,-0.034
0.492,-0.032
0.493,-0.034
0.494,-0.034
0.495,-0.034
0.496,-0.034
0.497,-0.031
0.498,-0.030
0.499,-0.025
0.500,-0.023
0.501,-0.028
0.502,-0.031
0.503,-0.031
0.504,-0.034
0.505,-0.034
0.506,-0.034
0.507,-0.031
0.508,-0.030
0.509,-0.028
0.510,-0.027
0.511,-0.022
0.512,-0.016
0.513,-0.013
0.514,-0.016
0.515,-0.016
0.516,-0.016
0.517,-0.016
0.518,-0.009
0.519,-0.006
0.520,-0.005
0.521,-0.003
0.522,-0.004
0.523,-0.003
0.524,-0.006
0.525,-0.009
0.526,-0.011
0.527,-0.013
0.528,-0.014
0.529,-0.016
0.530,-0.011
0.531,-0.006
0.532,-0.002
0.533,0.000
0.534,-0.003
0.535,-0.006
0.536,-0.002
0.537,-0.003
0.538,0.000
0.539,0.000
0.540,0.004
0.541,0.009
0.542,0.009
0.543,0.009
0.544,0.009
0.545,0.009
0.546,0.009
0.547,0.013
0.548,0.011
0.549,0.009
0.550,0.008
0.551,0.009
0.552,0.013
0.553,0.019
0.554,0.021
0.555,0.022
0.556,0.026
0.557,0.028
0.558,0.032
0.559,0.037
0.560,0.039
0.561,0.041
0.562,0.041
0.563,0.044
0.564,0.046
0.565,0.047
0.566,0.050
0.567,0.053
0.568,0.056
0.569,0.059
0.570,0.058
0.571,0.059
0.572,0.061
0.573,0.063
0.574,0.067
0.575,0.072
0.576,0.072
0.577,0.072
0.578,0.075
0.579,0.081
0.580,0.081
0.581,0.084
0.582,0.086
0.583,0.091
0.584,0.095
0.585,0.100
0.586,0.105
0.587,0.103
0.588,0.100
0.589,0.100
0.590,0.102
0.591,0.100
0.592,0.101
0.593,0.100
0.594,0.100
0.595,0.103
0.596,0.100
0.597,0.103
0.598,0.100
0.599,0.100
0.600,0.100
0.601,0.100
0.602,0.100
0.603,0.100
0.604,0.094
0.605,0.091
0.606,0.089
0.607,0.091
0.608,0.091
0.609,0.091
0.610,0.088
0.611,0.084
0.612,0.083
0.613,0.078
0.614,0.074
0.615,0.069
0.616,0.067
0.617,0.066
0.618,0.064
0.619,0.063
0.620,0.059
0.621,0.053
0.622,0.051
0.623,0.047
0.624,0.047
0.625,0.044
0.626,0.039
0.627,0.031
0.628,0.027
0.629,0.019
0.630,0.017
0.631,0.016
0.632,0.016
0.633,0.016
0.634,0.011
0.635,0.013
0.636,0.006
0.637,0.003
0.638,-0.001
0.639,-0.009
0.640,-0.013
0.641,-0.013
0.642,-0.016
0.643,-0.025
0.644,-0.028
0.645,-0.028
0.646,-0.031
0.647,-0.028
0.648,-0.032
0.649,-0.037
0.650,-0.041
0.651,-0.044
0.652,-0.042
0.653,-0.044
0.654,-0.044
0.655,-0.044
0.656,-0.044
0.657,-0.047
0.658,-0.048
0.659,-0.053
0.660,-0.055
0.661,-0.053
0.662,-0.053
0.663,-0.056
0.664,-0.056
0.665,-0.056
0.666,-0.056
0.667,-0.056
0.668,-0.059
0.669,-0.059
0.670,-0.066
0.671,-0.066
0.672,-0.064
0.673,-0.066
0.674,-0.066
0.675,-0.069
0.676,-0.068
0.677,-0.066
0.678,-0.063
0.679,-0.056
0.680,-0.056
0.681,-0.059
0.682,-0.064
0.683,-0.069
0.684,-0.069
0.685,-0.069
0.686,-0.068
0.687,-0.066
0.688,-0.066
0.689,-0.069
0.690,-0.066
0.691,-0.066
0.692,-0.064
0.693,-0.066
0.694,-0.070
0.695,-0.072
0.696,-0.073
0.697,-0.072
0.698,-0.075
0.699,-0.075
0.700,-0.071
0.701,-0.072
0.702,-0.071
0.703,-0.072
0.704,-0.073
0.705,-0.072
0.706,-0.072
0.707,-0.075
0.708,-0.071
0.709,-0.072
0.710,-0.073
0.711,-0.075
0.712,-0.076
0.713,-0.081
0.714,-0.078
0.715,-0.075
0.716,-0.076
0.717,-0.078
0.718,-0.078
0.719,-0.078
0.720,-0.074
0.721,-0.075
0.722,-0.078
0.723,-0.078
0.724,-0.077
0.725,-0.075
0.726,-0.079
0.727,-0.081
0.728,-0.081
0.729,-0.081
0.730,-0.083
0.731,-0.081
0.732,-0.083
0.733,-0.088
0.734,-0.089
0.735,-0.088
0.736,-0.095
0.737,-0.097
0.738,-0.100
0.739,-0.103
0.740,-0.102
0.741,-0.103
0.742,-0.102
0.743,-0.103
0.744,-0.103
0.745,-0.103
0.746,-0.103
0.747,-0.103
0.748,-0.102
0.749,-0.100
0.750,-0.099
0.751,-0.100
0.752,-0.101
0.753,-0.103
0.754,-0.103
0.755,-0.103
0.756,-0.102
0.757,-0.103
0.758,-0.102
0.759,-0.103
0.760,-0.104
0.761,-0.106
0.762,-0.106
0.763,-0.106
0.764,-0.105
0.765,-0.106
0.766,-0.106
0.767,-0.106
0.768,-0.111
0.769,-0.109
0.770,-0.111
0.771,-0.112
0.772,-0.111
0.773,-0.109
0.774,-0.112
0.775,-0.112
0.776,-0.113
0.777,-0.112
0.778,-0.117
0.779,-0.119
0.780,-0.117
0.781,-0.119
0.782,-0.120
0.783,-0.119
0.784,-0.123
0.785,-0.125
0.786,-0.124
0.787,-0.119
0.788,-0.119
0.789,-0.116
0.790,-0.114
0.791,-0.112
0.792,-0.119
0.793,-0.122
0.794,-0.121
0.795,-0.119
0.796,-0.120
0.797,-0.122
0.798,-0.120
0.799,-0.125
0.800,-0.125
0.801,-0.125
0.802,-0.125
0.803,-0.125
0.804,-0.128
0.805,-0.128
0.806,-0.128
0.807,-0.125
0.808,-0.129
0.809,-0.128
0.810,-0.134
0.811,-0.138
0.812,-0.138
0.813,-0.138
0.814,-0.134
0.815,-0.134
0.816,-0.139
0.817,-0.141
0.818,-0.142
0.819,-0.141
0.820,-0.141
0.821,-0.134
0.822,-0.134
0.823,-0.134
0.824,-0.134
0.825,-0.134
0.826,-0.136
0.827,-0.138
0.828,-0.138
0.829,-0.138
0.830,-0.139
0.831,-0.138
0.832,-0.138
0.833,-0.138
0.834,-0.133
0.835,-0.128
0.836,-0.128
0.837,-0.125
0.838,-0.123
0.839,-0.116
0.840,-0.109
0.841,-0.106
0.842,-0.101
0.843,-0.097
0.844,-0.088
0.845,-0.081
0.846,-0.072
0.847,-0.063
0.848,-0.055
0.849,-0.050
0.850,-0.044
0.851,-0.037
0.852,-0.031
0.853,-0.034
0.854,-0.033
0.855,-0.034
0.856,-0.037
0.857,-0.044
0.858,-0.047
0.859,-0.050
0.860,-0.051
0.861,-0.053
0.862,-0.050
0.863,-0.050
0.864,-0.045
0.865,-0.037
0.866,-0.039
0.867,-0.031
0.868,-0.025
0.869,-0.019
0.870,-0.011
0.871,0.000
0.872,0.006
0.873,0.009
0.874,0.014
0.875,0.016
0.876,0.017
0.877,0.022
0.878,0.019
0.879,0.013
0.880,0.006
0.881,0.000
0.882,0.000
0.883,0.000
0.884,-0.008
0.885,-0.013
0.886,-0.022
0.887,-0.031
0.888,-0.044
0.889,-0.050
0.890,-0.056
0.891,-0.063
0.892,-0.073
0.893,-0.081
0.894,-0.091
0.895,-0.097
0.896,-0.100
0.897,-0.106
0.898,-0.111
0.899,-0.116
0.900,-0.128
0.901,-0.141
0.902,-0.150
0.903,-0.159
0.904,-0.162
0.905,-0.166
0.906,-0.162
0.907,-0.159
0.908,-0.155
0.909,-0.153
0.910,-0.154
0.911,-0.159
0.912,-0.162
0.913,-0.169
0.914,-0.169
0.915,-0.169
0.916,-0.173
0.917,-0.175
0.918,-0.179
0.919,-0.181
0.920,-0.181
0.921,-0.184
0.922,-0.184
0.923,-0.181
0.924,-0.181
0.925,-0.181
0.926,-0.184
0.927,-0.184
0.928,-0.186
0.929,-0.188
0.930,-0.192
0.931,-0.194
0.932,-0.198
0.933,-0.197
0.934,-0.197
0.935,-0.197
0.936,-0.195
0.937,-0.197
0.938,-0.196
0.939,-0.194
0.940,-0.189
0.941,-0.184
0.942,-0.186
0.943,-0.188
0.944,-0.192
0.945,-0.194
0.946,-0.194
0.947,-0.191
0.948,-0.188
0.949,-0.188
0.950,-0.191
0.951,-0.191
0.952,-0.191
0.953,-0.194
0.954,-0.194
0.955,-0.194
0.956,-0.191
0.957,-0.184
0.958,-0.184
0.959,-0.181
0.960,-0.186
0.961,-0.184
0.962,-0.184
0.963,-0.184
0.964,-0.184
0.965,-0.184
0.966,-0.183
0.967,-0.181
0.968,-0.180
0.969,-0.181
0.970,-0.184
0.971,-0.188
0.972,-0.194
0.973,-0.200
0.974,-0.203
0.975,-0.212
0.976,-0.220
0.977,-0.228
0.978,-0.230
0.979,-0.237
0.980,-0.250
0.981,-0.259
0.982,-0.269
0.983,-0.272
0.984,-0.272
0.985,-0.272
0.986,-0.270
0.987,-0.253
0.988,-0.236
0.989,-0.216
0.990,-0.196
0.991,-0.181
0.992,-0.158
0.993,-0.119
0.994,-0.064
0.995,0.000
0.996,0.073
0.997,0.150
0.998,0.233
0.999,0.319
1.000,0.412
1.001,0.522
1.002,0.647
1.003,0.784
1.004,0.914
1.005,1.031
1.006,1.142
1.007,1.244
1.008,1.347
1.009,1.453
1.010,1.562
1.011,1.666
1.012,1.769
1.013,1.862
1.014,1.950
1.015,2.031
1.016,2.070
1.017,2.053
1.018,1.978
1.019,1.866
1.020,1.734
1.021,1.591
1.022,1.442
1.023,1.288
1.024,1.137
1.025,0.991
1.026,0.834
1.027,0.675
1.028,0.519
1.029,0.384
1.030,0.274
1.031,0.191
1.032,0.143
1.033,0.112
1.034,0.091
1.035,0.069
1.036,0.056
1.037,0.041
1.038,0.030
1.039,0.016
1.040,0.009
1.041,0.006
1.042,0.001
1.043,0.000
1.044,-0.005
1.045,-0.009
1.046,-0.014
1.047,-0.019
1.048,-0.026
1.049,-0.034
1.050,-0.041
1.051,-0.047
1.052,-0.051
1.053,-0.059
1.054,-0.064
1.055,-0.072
1.056,-0.076
1.057,-0.081
1.058,-0.084
1.059,-0.084
1.060,-0.083
1.061,-0.081
1.062,-0.077
1.063,-0.075
1.064,-0.078
1.065,-0.075
1.066,-0.078
1.067,-0.081
1.068,-0.083
1.069,-0.081
1.070,-0.086
1.071,-0.088
1.072,-0.091
1.073,-0.094
1.074,-0.100
1.075,-0.100
1.076,-0.099
1.077,-0.097
1.078,-0.094
1.079,-0.094
1.080,-0.092
1.081,-0.088
1.082,-0.092
1.083,-0.094
1.084,-0.094
1.085,-0.094
1.086,-0.094
1.087,-0.094
1.088,-0.094
1.089,-0.094
1.090,-0.095
1.091,-0.097
1.092,-0.098
1.093,-0.100
1.094,-0.099
1.095,-0.097
1.096,-0.096
1.097,-0.091
1.098,-0.095
1.099,-0.097
1.100,-0.095
1.101,-0.097
1.102,-0.100
1.103,-0.100
1.104,-0.100
1.105,-0.097
1.106,-0.094
1.107,-0.091
1.108,-0.094
1.109,-0.094
1.110,-0.092
1.111,-0.094
1.112,-0.094
1.113,-0.094
1.114,-0.088
1.115,-0.088
1.116,-0.088
1.117,-0.088
1.118,-0.089
1.119,-0.091
1.120,-0.091
1.121,-0.091
1.122,-0.088
1.123,-0.088
1.124,-0.084
1.125,-0.088
1.126,-0.088
1.127,-0.088
1.128,-0.081
1.129,-0.081
1.130,-0.079
1.131,-0.078
1.132,-0.081
1.133,-0.084
1.134,-0.088
1.135,-0.084
1.136,-0.084
1.137,-0.084
1.138,-0.081
1.139,-0.078
1.140,-0.076
1.141,-0.078
1.142,-0.079
1.143,-0.081
1.144,-0.081
1.145,-0.078
1.146,-0.078
1.147,-0.072
1.148,-0.076
1.149,-0.078
1.150,-0.075
1.151,-0.072
1.152,-0.071
1.153,-0.069
1.154,-0.070
1.155,-0.072
1.156,-0.070
1.157,-0.072
1.158,-0.071
1.159,-0.069
1.160,-0.063
1.161,-0.059
1.162,-0.066
1.163,-0.066
1.164,-0.067
1.165,-0.066
1.166,-0.070
1.167,-0.069
1.168,-0.069
1.169,-0.069
1.170,-0.067
1.171,-0.066
1.172,-0.068
1.173,-0.066
1.174,-0.064
1.175,-0.059
1.176,-0.055
1.177,-0.050
1.178,-0.050
1.179,-0.050
1.180,-0.047
1.181,-0.044
1.182,-0.042
1.183,-0.041
1.184,-0.042
1.185,-0.044
1.186,-0.045
1.187,-0.047
1.188,-0.047
1.189,-0.047
1.190,-0.047
1.191,-0.044
1.192,-0.044
1.193,-0.044
1.194,-0.047
1.195,-0.047
1.196,-0.047
1.197,-0.047
1.198,-0.041
1.199,-0.034
1.200,-0.034
1.201,-0.031
1.202,-0.027
1.203,-0.025
1.204,-0.028
1.205,-0.028
1.206,-0.025
1.207,-0.025
1.208,-0.028
1.209,-0.028
1.210,-0.028
1.211,-0.028
1.212,-0.025
1.213,-0.019
1.214,-0.016
1.215,-0.016
1.216,-0.011
1.217,-0.013
1.218,-0.011
1.219,-0.013
1.220,-0.008
1.221,-0.006
1.222,-0.003
1.223,-0.003
1.224,-0.004
1.225,-0.006
1.226,-0.006
1.227,-0.006
1.228,-0.003
1.229,0.000
1.230,0.004
1.231,0.006
1.232,0.008
1.233,0.009
1.234,0.008
1.235,0.009
1.236,0.011
1.237,0.009
1.238,0.011
1.239,0.009
1.240,0.011
1.241,0.009
1.242,0.009
1.243,0.009
1.244,0.016
1.245,0.022
1.246,0.023
1.247,0.025
1.248,0.027
1.249,0.025
1.250,0.024
1.251,0.025
1.252,0.025
1.253,0.025
1.254,0.025
1.255,0.025
1.256,0.027
1.257,0.025
1.258,0.025
1.259,0.025
1.260,0.025
1.261,0.025
1.262,0.025
1.263,0.028
1.264,0.030
1.265,0.031
1.266,0.031
1.267,0.031
1.268,0.034
1.269,0.041
1.270,0.037
1.271,0.041
1.272,0.041
1.273,0.044
1.274,0.047
1.275,0.047
1.276,0.047
1.277,0.047
1.278,0.047
1.279,0.047
1.280,0.049
1.281,0.047
1.282,0.050
1.283,0.053
1.284,0.056
1.285,0.056
1.286,0.056
1.287,0.056
1.288,0.061
1.289,0.066
1.290,0.064
1.291,0.066
1.292,0.069
1.293,0.072
1.294,0.078
1.295,0.081
1.296,0.086
1.297,0.091
1.298,0.093
1.299,0.094
1.300,0.094
1.301,0.091
1.302,0.092
1.303,0.094
1.304,0.096
1.305,0.097
1.306,0.099
1.307,0.100
1.308,0.104
1.309,0.109
1.310,0.114
1.311,0.116
1.312,0.117
1.313,0.119
1.314,0.126
1.315,0.128
1.316,0.133
1.317,0.134
1.318,0.134
1.319,0.141
1.320,0.139
1.321,0.138
1.322,0.138
1.323,0.138
1.324,0.141
1.325,0.144
1.326,0.141
1.327,0.141
1.328,0.144
1.329,0.141
1.330,0.144
1.331,0.141
1.332,0.139
1.333,0.138
1.334,0.136
1.335,0.134
1.336,0.138
1.337,0.138
1.338,0.139
1.339,0.138
1.340,0.136
1.341,0.131
1.342,0.127
1.343,0.122
1.344,0.120
1.345,0.122
1.346,0.119
1.347,0.116
1.348,0.109
1.349,0.103
1.350,0.101
1.351,0.100
1.352,0.098
1.353,0.097
1.354,0.092
1.355,0.091
1.356,0.083
1.357,0.081
1.358,0.077
1.359,0.072
1.360,0.064
1.361,0.063
1.362,0.063
1.363,0.063
1.364,0.058
1.365,0.053
1.366,0.051
1.367,0.047
1.368,0.050
1.369,0.047
1.370,0.044
1.371,0.041
1.372,0.034
1.373,0.031
1.374,0.030
1.375,0.028
1.376,0.021
1.377,0.016
1.378,0.017
1.379,0.013
1.380,0.013
1.381,0.009
1.382,0.008
1.383,0.006
1.384,0.002
1.385,0.000
1.386,-0.003
1.387,-0.003
1.388,-0.002
1.389,0.000
1.390,-0.002
1.391,0.000
1.392,-0.003
1.393,-0.006
1.394,-0.006
1.395,-0.006
1.396,-0.009
1.397,-0.009
1.398,-0.011
1.399,-0.013
1.400,-0.014
1.401,-0.019
1.402,-0.018
1.403,-0.019
1.404,-0.016
1.405,-0.016
1.406,-0.022
1.407,-0.025
1.408,-0.028
1.409,-0.028
1.410,-0.029
1.411,-0.031
1.412,-0.024
1.413,-0.019
1.414,-0.023
1.415,-0.025
1.416,-0.026
1.417,-0.028
1.418,-0.028
1.419,-0.028
1.420,-0.027
1.421,-0.025
1.422,-0.029
1.423,-0.028
1.424,-0.029
1.425,-0.031
1.426,-0.033
1.427,-0.034
1.428,-0.036
1.429,-0.037
1.430,-0.033
1.431,-0.034
1.432,-0.034
1.433,-0.031
1.434,-0.034
1.435,-0.034
1.436,-0.037
1.437,-0.037
1.438,-0.033
1.439,-0.031
1.440,-0.034
1.441,-0.031
1.442,-0.034
1.443,-0.034
1.444,-0.034
1.445,-0.034
1.446,-0.037
1.447,-0.037
1.448,-0.036
1.449,-0.034
1.450,-0.036
1.451,-0.037
1.452,-0.042
1.453,-0.044
1.454,-0.046
1.455,-0.047
1.456,-0.047
1.457,-0.047
1.458,-0.046
1.459,-0.047
1.460,-0.047
1.461,-0.047
1.462,-0.047
1.463,-0.047
1.464,-0.045
1.465,-0.047
1.466,-0.046
1.467,-0.044
1.468,-0.044
1.469,-0.047
1.470,-0.045
1.471,-0.047
1.472,-0.046
1.473,-0.044
1.474,-0.046
1.475,-0.044
1.476,-0.051
1.477,-0.056
1.478,-0.056
1.479,-0.056
1.480,-0.056
1.481,-0.056
1.482,-0.055
1.483,-0.053
1.484,-0.056
1.485,-0.056
1.486,-0.056
1.487,-0.056
1.488,-0.057
1.489,-0.059
1.490,-0.061
1.491,-0.059
1.492,-0.063
1.493,-0.063
1.494,-0.063
1.495,-0.063
1.496,-0.061
1.497,-0.059
1.498,-0.063
1.499,-0.063
1.500,-0.063
1.501,-0.066
1.502,-0.064
1.503,-0.066
1.504,-0.067
1.505,-0.069
1.506,-0.068
1.507,-0.069
1.508,-0.069
1.509,-0.069
1.510,-0.068
1.511,-0.069
1.512,-0.070
1.513,-0.072
1.514,-0.072
1.515,-0.072
1.516,-0.072
1.517,-0.072
1.518,-0.076
1.519,-0.081
1.520,-0.079
1.521,-0.081
1.522,-0.081
1.523,-0.081
1.524,-0.081
1.525,-0.084
1.526,-0.084
1.527,-0.084
1.528,-0.086
1.529,-0.084
1.530,-0.081
1.531,-0.081
1.532,-0.080
1.533,-0.075
1.534,-0.079
1.535,-0.081
1.536,-0.084
1.537,-0.084
1.538,-0.081
1.539,-0.075
1.540,-0.075
1.541,-0.075
1.542,-0.081
1.543,-0.084
1.544,-0.086
1.545,-0.088
1.546,-0.089
1.547,-0.091
1.548,-0.086
1.549,-0.088
1.550,-0.088
1.551,-0.088
1.552,-0.089
1.553,-0.091
1.554,-0.089
1.555,-0.084
1.556,-0.084
1.557,-0.081
1.558,-0.084
1.559,-0.081
1.560,-0.084
1.561,-0.084
1.562,-0.086
1.563,-0.088
1.564,-0.086
1.565,-0.088
1.566,-0.091
1.567,-0.091
1.568,-0.089
1.569,-0.084
1.570,-0.088
1.571,-0.084
1.572,-0.086
1.573,-0.088
1.574,-0.088
1.575,-0.088
1.576,-0.089
1.577,-0.091
1.578,-0.091
1.579,-0.091
1.580,-0.091
1.581,-0.088
1.582,-0.086
1.583,-0.084
1.584,-0.088
1.585,-0.091
1.586,-0.091
1.587,-0.088
1.588,-0.089
1.589,-0.084
1.590,-0.081
1.591,-0.081
1.592,-0.076
1.593,-0.072
1.594,-0.064
1.595,-0.059
1.596,-0.052
1.597,-0.044
1.598,-0.031
1.599,-0.022
1.600,-0.013
1.601,-0.003
1.602,0.008
1.603,0.009
1.604,0.017
1.605,0.022
1.606,0.023
1.607,0.022
1.608,0.018
1.609,0.013
1.610,0.002
1.611,-0.009
1.612,-0.009
1.613,-0.013
1.614,-0.011
1.615,-0.006
1.616,-0.006
1.617,0.003
1.618,0.013
1.619,0.022
1.620,0.024
1.621,0.028
1.622,0.032
1.623,0.034
1.624,0.045
1.625,0.053
1.626,0.056
1.627,0.063
1.628,0.064
1.629,0.063
1.630,0.061
1.631,0.059
1.632,0.052
1.633,0.044
1.634,0.034
1.635,0.028
1.636,0.026
1.637,0.025
1.638,0.014
1.639,0.009
1.640,-0.003
1.641,-0.016
1.642,-0.025
1.643,-0.031
1.644,-0.039
1.645,-0.044
1.646,-0.044
1.647,-0.047
1.648,-0.053
1.649,-0.059
1.650,-0.064
1.651,-0.069
1.652,-0.072
1.653,-0.075
1.654,-0.088
1.655,-0.100
1.656,-0.106
1.657,-0.112
1.658,-0.111
1.659,-0.112
1.660,-0.109
1.661,-0.109
1.662,-0.108
1.663,-0.109
1.664,-0.112
1.665,-0.116
1.666,-0.119
1.667,-0.119
1.668,-0.123
1.669,-0.125
1.670,-0.124
1.671,-0.125
1.672,-0.128
1.673,-0.128
1.674,-0.127
1.675,-0.125
1.676,-0.131
1.677,-0.134
1.678,-0.133
1.679,-0.131
1.680,-0.136
1.681,-0.138
1.682,-0.144
1.683,-0.144
1.684,-0.145
1.685,-0.147
1.686,-0.144
1.687,-0.144
1.688,-0.143
1.689,-0.141
1.690,-0.141
1.691,-0.141
1.692,-0.139
1.693,-0.138
1.694,-0.141
1.695,-0.141
1.696,-0.138
1.697,-0.131
1.698,-0.129
1.699,-0.131
1.700,-0.134
1.701,-0.134
1.702,-0.130
1.703,-0.128
1.704,-0.128
1.705,-0.128
1.706,-0.128
1.707,-0.125
1.708,-0.125
1.709,-0.122
1.710,-0.126
1.711,-0.125
1.712,-0.125
1.713,-0.125
1.714,-0.125
1.715,-0.125
1.716,-0.125
1.717,-0.125
1.718,-0.124
1.719,-0.125
1.720,-0.125
1.721,-0.125
1.722,-0.128
1.723,-0.131
1.724,-0.134
1.725,-0.144
1.726,-0.151
1.727,-0.159
1.728,-0.156
1.729,-0.159
1.730,-0.176
1.731,-0.191
1.732,-0.203
1.733,-0.209
1.734,-0.209
1.735,-0.209
1.736,-0.208
1.737,-0.191
1.738,-0.172
1.739,-0.150
1.740,-0.128
1.741,-0.112
1.742,-0.094
1.743,-0.059
1.744,-0.004
1.745,0.059
1.746,0.131
1.747,0.206
1.748,0.287
1.749,0.372
1.750,0.467
1.751,0.578
1.752,0.700
1.753,0.834
1.754,0.967
1.755,1.087
1.756,1.189
1.757,1.281
1.758,1.379
1.759,1.481
1.760,1.580
1.761,1.672
1.762,1.764
1.763,1.847
1.764,1.931
1.765,2.009
1.766,2.066
1.767,2.066
1.768,2.000
1.769,1.897
1.770,1.767
1.771,1.625
1.772,1.468
1.773,1.303
1.774,1.152
1.775,1.003
1.776,0.847
1.777,0.688
1.778,0.530
1.779,0.394
1.780,0.281
1.781,0.197
1.782,0.138
1.783,0.097
1.784,0.074
1.785,0.050
1.786,0.042
1.787,0.031
1.788,0.022
1.789,0.009
1.790,-0.001
1.791,-0.009
1.792,-0.016
1.793,-0.019
1.794,-0.024
1.795,-0.028
1.796,-0.033
1.797,-0.037
1.798,-0.042
1.799,-0.047
1.800,-0.054
1.801,-0.063
1.802,-0.066
1.803,-0.072
1.804,-0.075
1.805,-0.081
1.806,-0.083
1.807,-0.084
1.808,-0.089
1.809,-0.091
1.810,-0.094
1.811,-0.097
1.812,-0.096
1.813,-0.097
1.814,-0.103
1.815,-0.103
1.816,-0.105
1.817,-0.106
1.818,-0.109
1.819,-0.109
1.820,-0.111
1.821,-0.109
1.822,-0.109
1.823,-0.109
1.824,-0.114
1.825,-0.112
1.826,-0.114
1.827,-0.116
1.828,-0.117
1.829,-0.122
1.830,-0.123
1.831,-0.122
1.832,-0.124
1.833,-0.122
1.834,-0.122
1.835,-0.122
1.836,-0.122
1.837,-0.122
1.838,-0.117
1.839,-0.112
1.840,-0.112
1.841,-0.112
1.842,-0.116
1.843,-0.119
1.844,-0.122
1.845,-0.125
1.846,-0.125
1.847,-0.122
1.848,-0.126
1.849,-0.128
1.850,-0.122
1.851,-0.119
1.852,-0.119
1.853,-0.116
1.854,-0.120
1.855,-0.122
1.856,-0.119
1.857,-0.116
1.858,-0.117
1.859,-0.116
1.860,-0.114
1.861,-0.116
1.862,-0.114
1.863,-0.112
1.864,-0.108
1.865,-0.109
1.866,-0.109
1.867,-0.109
1.868,-0.109
1.869,-0.109
1.870,-0.111
1.871,-0.112
1.872,-0.111
1.873,-0.112
1.874,-0.108
1.875,-0.109
1.876,-0.111
1.877,-0.112
1.878,-0.111
1.879,-0.116
1.880,-0.114
1.881,-0.112
1.882,-0.109
1.883,-0.106
1.884,-0.111
1.885,-0.109
1.886,-0.106
1.887,-0.103
1.888,-0.103
1.889,-0.103
1.890,-0.101
1.891,-0.103
1.892,-0.103
1.893,-0.103
1.894,-0.103
1.895,-0.100
1.896,-0.103
1.897,-0.100
1.898,-0.100
1.899,-0.097
1.900,-0.097
1.901,-0.097
1.902,-0.097
1.903,-0.097
1.904,-0.097
1.905,-0.097
1.906,-0.094
1.907,-0.094
1.908,-0.091
1.909,-0.088
1.910,-0.084
1.911,-0.084
1.912,-0.089
1.913,-0.088
1.914,-0.088
1.915,-0.084
1.916,-0.089
1.917,-0.088
1.918,-0.089
1.919,-0.091
1.920,-0.088
1.921,-0.084
1.922,-0.084
1.923,-0.081
1.924,-0.084
1.925,-0.084
1.926,-0.083
1.927,-0.081
1.928,-0.077
1.929,-0.072
1.930,-0.069
1.931,-0.066
1.932,-0.066
1.933,-0.066
1.934,-0.066
1.935,-0.066
1.936,-0.066
1.937,-0.066
1.938,-0.066
1.939,-0.066
1.940,-0.063
1.941,-0.056
1.942,-0.057
1.943,-0.059
1.944,-0.059
1.945,-0.056
1.946,-0.056
1.947,-0.056
1.948,-0.056
1.949,-0.056
1.950,-0.056
1.951,-0.053
1.952,-0.050
1.953,-0.050
1.954,-0.053
1.955,-0.053
1.956,-0.050
1.957,-0.050
1.958,-0.049
1.959,-0.044
1.960,-0.041
1.961,-0.037
1.962,-0.041
1.963,-0.041
1.964,-0.037
1.965,-0.037
1.966,-0.036
1.967,-0.041
1.968,-0.039
1.969,-0.041
1.970,-0.037
1.971,-0.037
1.972,-0.033
1.973,-0.031
1.974,-0.025
1.975,-0.019
1.976,-0.020
1.977,-0.022
1.978,-0.022
1.979,-0.022
1.980,-0.020
1.981,-0.022
1.982,-0.019
1.983,-0.016
1.984,-0.018
1.985,-0.016
1.986,-0.013
1.987,-0.013
1.988,-0.008
1.989,-0.006
1.990,-0.003
1.991,-0.003
1.992,-0.003
1.993,-0.003
1.994,-0.003
1.995,-0.003
1.996,-0.003
1.997,-0.003
1.998,0.001
1.999,0.003
2.000,0.004
2.001,0.009
2.002,0.008
2.003,0.006
2.004,0.006
2.005,0.006
2.006,0.009
2.007,0.009
2.008,0.013
2.009,0.016
2.010,0.016
2.011,0.016
2.012,0.014
2.013,0.016
2.014,0.018
2.015,0.019
2.016,0.018
2.017,0.016
2.018,0.017
2.019,0.022
2.020,0.018
2.021,0.019
2.022,0.019
2.023,0.022
2.024,0.025
2.025,0.025
2.026,0.028
2.027,0.031
2.028,0.031
2.029,0.031
2.030,0.033
2.031,0.031
2.032,0.034
2.033,0.037
2.034,0.041
2.035,0.041
2.036,0.041
2.037,0.041
2.038,0.044
2.039,0.047
2.040,0.046
2.041,0.047
2.042,0.050
2.043,0.053
2.044,0.056
2.045,0.056
2.046,0.058
2.047,0.059
2.048,0.063
2.049,0.066
2.050,0.075
2.051,0.081
2.052,0.083
2.053,0.084
2.054,0.084
2.055,0.084
2.056,0.086
2.057,0.088
2.058,0.092
2.059,0.097
2.060,0.099
2.061,0.097
2.062,0.099
2.063,0.100
2.064,0.107
2.065,0.109
2.066,0.111
2.067,0.109
2.068,0.109
2.069,0.116
2.070,0.116
2.071,0.116
2.072,0.119
2.073,0.122
2.074,0.123
2.075,0.125
2.076,0.122
2.077,0.122
2.078,0.129
2.079,0.131
2.080,0.134
2.081,0.131
2.082,0.133
2.083,0.134
2.084,0.130
2.085,0.125
2.086,0.124
2.087,0.119
2.088,0.120
2.089,0.119
2.090,0.119
2.091,0.116
2.092,0.112
2.093,0.109
2.094,0.107
2.095,0.109
2.096,0.109
2.097,0.109
2.098,0.106
2.099,0.103
2.100,0.097
2.101,0.091
2.102,0.091
2.103,0.091
2.104,0.088
2.105,0.088
2.106,0.080
2.107,0.078
2.108,0.076
2.109,0.075
2.110,0.068
2.111,0.066
2.112,0.059
2.113,0.053
2.114,0.047
2.115,0.041
2.116,0.039
2.117,0.034
2.118,0.036
2.119,0.031
2.120,0.029
2.121,0.028
2.122,0.021
2.123,0.016
2.124,0.013
2.125,0.009
2.126,0.006
2.127,0.006
2.128,0.005
2.129,-0.003
2.130,-0.003
2.131,-0.006
2.132,-0.013
2.133,-0.019
2.134,-0.022
2.135,-0.022
2.136,-0.025
2.137,-0.025
2.138,-0.025
2.139,-0.025
2.140,-0.027
2.141,-0.025
2.142,-0.027
2.143,-0.028
2.144,-0.028
2.145,-0.028
2.146,-0.031
2.147,-0.031
2.148,-0.031
2.149,-0.031
2.150,-0.031
2.151,-0.034
2.152,-0.034
2.153,-0.037
2.154,-0.036
2.155,-0.037
2.156,-0.041
2.157,-0.041
2.158,-0.044
2.159,-0.044
2.160,-0.048
2.161,-0.053
2.162,-0.050
2.163,-0.050
2.164,-0.053
2.165,-0.053
2.166,-0.052
2.167,-0.050
2.168,-0.050
2.169,-0.050
2.170,-0.049
2.171,-0.047
2.172,-0.051
2.173,-0.050
2.174,-0.050
2.175,-0.050
2.176,-0.052
2.177,-0.053
2.178,-0.053
2.179,-0.053
2.180,-0.051
2.181,-0.056
2.182,-0.057
2.183,-0.056
2.184,-0.063
2.185,-0.066
2.186,-0.066
2.187,-0.063
2.188,-0.063
2.189,-0.066
2.190,-0.066
2.191,-0.059
2.192,-0.061
2.193,-0.059
2.194,-0.061
2.195,-0.063
2.196,-0.067
2.197,-0.069
2.198,-0.069
2.199,-0.069
2.200,-0.068
2.201,-0.066
2.202,-0.066
2.203,-0.063
2.204,-0.066
2.205,-0.069
2.206,-0.070
2.207,-0.072
2.208,-0.071
2.209,-0.072
2.210,-0.075
2.211,-0.078
2.212,-0.079
2.213,-0.081
2.214,-0.077
2.215,-0.075
2.216,-0.075
2.217,-0.075
2.218,-0.075
2.219,-0.078
2.220,-0.075
2.221,-0.075
2.222,-0.075
2.223,-0.075
2.224,-0.077
2.225,-0.075
2.226,-0.079
2.227,-0.081
2.228,-0.083
2.229,-0.084
2.230,-0.084
2.231,-0.084
2.232,-0.084
2.233,-0.084
2.234,-0.088
2.235,-0.088
2.236,-0.089
2.237,-0.091
2.238,-0.089
2.239,-0.088
2.240,-0.089
2.241,-0.088
2.242,-0.089
2.243,-0.088
2.244,-0.088
2.245,-0.088
2.246,-0.086
2.247,-0.084
2.248,-0.088
2.249,-0.088
2.250,-0.089
2.251,-0.094
2.252,-0.091
2.253,-0.091
2.254,-0.092
2.255,-0.094
2.256,-0.094
2.257,-0.097
2.258,-0.100
2.259,-0.103
2.260,-0.102
2.261,-0.103
2.262,-0.103
2.263,-0.103
2.264,-0.103
2.265,-0.103
2.266,-0.103
2.267,-0.103
2.268,-0.105
2.269,-0.106
2.270,-0.103
2.271,-0.103
2.272,-0.103
2.273,-0.103
2.274,-0.103
2.275,-0.106
2.276,-0.107
2.277,-0.109
2.278,-0.114
2.279,-0.119
2.280,-0.117
2.281,-0.112
2.282,-0.112
2.283,-0.109
2.284,-0.108
2.285,-0.109
2.286,-0.108
2.287,-0.106
2.288,-0.106
2.289,-0.106
2.290,-0.107
2.291,-0.109
2.292,-0.108
2.293,-0.109
2.294,-0.111
2.295,-0.109
2.296,-0.109
2.297,-0.109
2.298,-0.109
2.299,-0.109
2.300,-0.109
2.301,-0.112
2.302,-0.114
2.303,-0.112
2.304,-0.108
2.305,-0.109
2.306,-0.108
2.307,-0.109
2.308,-0.109
2.309,-0.109
2.310,-0.107
2.311,-0.109
2.312,-0.108
2.313,-0.109
2.314,-0.109
2.315,-0.109
2.316,-0.109
2.317,-0.109
2.318,-0.111
2.319,-0.109
2.320,-0.112
2.321,-0.112
2.322,-0.111
2.323,-0.109
2.324,-0.111
2.325,-0.112
2.326,-0.111
2.327,-0.116
2.328,-0.112
2.329,-0.112
2.330,-0.108
2.331,-0.109
2.332,-0.109
2.333,-0.109
2.334,-0.109
2.335,-0.109
2.336,-0.112
2.337,-0.112
2.338,-0.109
2.339,-0.109
2.340,-0.106
2.341,-0.109
2.342,-0.107
2.343,-0.109
2.344,-0.109
2.345,-0.109
2.346,-0.111
2.347,-0.112
2.348,-0.112
2.349,-0.112
2.350,-0.116
2.351,-0.116
2.352,-0.112
2.353,-0.112
2.354,-0.111
2.355,-0.112
2.356,-0.114
2.357,-0.112
2.358,-0.106
2.359,-0.103
2.360,-0.100
2.361,-0.100
2.362,-0.098
2.363,-0.094
2.364,-0.091
2.365,-0.088
2.366,-0.084
2.367,-0.078
2.368,-0.068
2.369,-0.059
2.370,-0.052
2.371,-0.041
2.372,-0.031
2.373,-0.022
2.374,-0.022
2.375,-0.016
2.376,-0.013
2.377,-0.006
2.378,-0.008
2.379,-0.009
2.380,-0.017
2.381,-0.022
2.382,-0.028
2.383,-0.031
2.384,-0.034
2.385,-0.031
2.386,-0.023
2.387,-0.025
2.388,-0.019
2.389,-0.013
2.390,-0.006
2.391,-0.003
2.392,0.000
2.393,-0.003
2.394,0.000
2.395,0.006
2.396,0.019
2.397,0.031
2.398,0.041
2.399,0.044
2.400,0.044
2.401,0.044
2.402,0.041
2.403,0.041
2.404,0.037
2.405,0.025
2.406,0.020
2.407,0.013
2.408,0.006
2.409,0.000
2.410,-0.005
2.411,-0.009
2.412,-0.016
2.413,-0.022
2.414,-0.028
2.415,-0.034
2.416,-0.039
2.417,-0.047
2.418,-0.054
2.419,-0.063
2.420,-0.069
2.421,-0.075
2.422,-0.083
2.423,-0.088
2.424,-0.094
2.425,-0.100
2.426,-0.114
2.427,-0.125
2.428,-0.131
2.429,-0.134
2.430,-0.130
2.431,-0.125
2.432,-0.121
2.433,-0.116
2.434,-0.116
2.435,-0.109
2.436,-0.114
2.437,-0.122
2.438,-0.123
2.439,-0.128
2.440,-0.133
2.441,-0.138
2.442,-0.141
2.443,-0.144
2.444,-0.145
2.445,-0.147
2.446,-0.144
2.447,-0.144
2.448,-0.144
2.449,-0.144
2.450,-0.144
2.451,-0.147
2.452,-0.147
2.453,-0.150
2.454,-0.148
2.455,-0.150
2.456,-0.150
2.457,-0.147
2.458,-0.147
2.459,-0.147
2.460,-0.146
2.461,-0.144
2.462,-0.144
2.463,-0.144
2.464,-0.143
2.465,-0.144
2.466,-0.145
2.467,-0.147
2.468,-0.147
2.469,-0.147
2.470,-0.147
2.471,-0.147
2.472,-0.144
2.473,-0.144
2.474,-0.147
2.475,-0.147
2.476,-0.146
2.477,-0.144
2.478,-0.142
2.479,-0.144
2.480,-0.139
2.481,-0.141
2.482,-0.134
2.483,-0.131
2.484,-0.134
2.485,-0.138
2.486,-0.139
2.487,-0.141
2.488,-0.142
2.489,-0.144
2.490,-0.144
2.491,-0.144
2.492,-0.146
2.493,-0.147
2.494,-0.151
2.495,-0.156
2.496,-0.166
2.497,-0.172
2.498,-0.174
2.499,-0.172
2.500,-0.181
2.501,-0.194
2.502,-0.203
2.503,-0.212
2.504,-0.214
2.505,-0.212
2.506,-0.214
2.507,-0.212
2.508,-0.194
2.509,-0.175
2.510,-0.159
2.511,-0.147
2.512,-0.138
2.513,-0.119
2.514,-0.075
2.515,-0.013
2.516,0.050
2.517,0.119
2.518,0.195
2.519,0.284
2.520,0.375
2.521,0.469
2.522,0.581
2.523,0.709
2.524,0.848
2.525,0.981
2.526,1.101
2.527,1.203
2.528,1.295
2.529,1.394
2.530,1.494
2.531,1.597
2.532,1.687
2.533,1.781
2.534,1.869
2.535,1.937
2.536,2.006
2.537,2.034
2.538,2.014
2.539,1.941
2.540,1.822
2.541,1.694
2.542,1.544
2.543,1.387
2.544,1.230
2.545,1.078
2.546,0.931
2.547,0.778
2.548,0.622
2.549,0.469
2.550,0.341
2.551,0.237
2.552,0.161
2.553,0.119
2.554,0.088
2.555,0.066
2.556,0.050
2.557,0.037
2.558,0.022
2.559,0.013
2.560,0.000
2.561,-0.009
2.562,-0.016
2.563,-0.022
2.564,-0.025
2.565,-0.031
2.566,-0.037
2.567,-0.044
2.568,-0.049
2.569,-0.050
2.570,-0.054
2.571,-0.063
2.572,-0.070
2.573,-0.075
2.574,-0.080
2.575,-0.081
2.576,-0.086
2.577,-0.084
2.578,-0.088
2.579,-0.094
2.580,-0.097
2.581,-0.100
2.582,-0.103
2.583,-0.106
2.584,-0.109
2.585,-0.112
2.586,-0.108
2.587,-0.109
2.588,-0.114
2.589,-0.119
2.590,-0.120
2.591,-0.125
2.592,-0.122
2.593,-0.119
2.594,-0.116
2.595,-0.116
2.596,-0.114
2.597,-0.116
2.598,-0.117
2.599,-0.119
2.600,-0.122
2.601,-0.122
2.602,-0.119
2.603,-0.122
2.604,-0.122
2.605,-0.122
2.606,-0.123
2.607,-0.125
2.608,-0.126
2.609,-0.128
2.610,-0.127
2.611,-0.125
2.612,-0.124
2.613,-0.122
2.614,-0.122
2.615,-0.122
2.616,-0.119
2.617,-0.116
2.618,-0.111
2.619,-0.112
2.620,-0.114
2.621,-0.112
2.622,-0.112
2.623,-0.116
2.624,-0.116
2.625,-0.116
2.626,-0.114
2.627,-0.112
2.628,-0.108
2.629,-0.109
2.630,-0.111
2.631,-0.109
2.632,-0.111
2.633,-0.112
2.634,-0.112
2.635,-0.109
2.636,-0.112
2.637,-0.112
2.638,-0.114
2.639,-0.116
2.640,-0.112
2.641,-0.109
2.642,-0.111
2.643,-0.109
2.644,-0.109
2.645,-0.106
2.646,-0.109
2.647,-0.109
2.648,-0.108
2.649,-0.103
2.650,-0.107
2.651,-0.106
2.652,-0.104
2.653,-0.106
2.654,-0.106
2.655,-0.109
2.656,-0.107
2.657,-0.109
2.658,-0.106
2.659,-0.103
2.660,-0.104
2.661,-0.103
2.662,-0.103
2.663,-0.103
2.664,-0.103
2.665,-0.103
2.666,-0.097
2.667,-0.097
2.668,-0.094
2.669,-0.097
2.670,-0.097
2.671,-0.094
2.672,-0.092
2.673,-0.094
2.674,-0.097
2.675,-0.100
2.676,-0.097
2.677,-0.091
2.678,-0.089
2.679,-0.088
2.680,-0.089
2.681,-0.088
2.682,-0.086
2.683,-0.088
2.684,-0.083
2.685,-0.081
2.686,-0.078
2.687,-0.081
2.688,-0.079
2.689,-0.081
2.690,-0.084
2.691,-0.084
2.692,-0.081
2.693,-0.084
2.694,-0.080
2.695,-0.075
2.696,-0.076
2.697,-0.078
2.698,-0.075
2.699,-0.075
2.700,-0.075
2.701,-0.075
2.702,-0.076
2.703,-0.078
2.704,-0.079
2.705,-0.078
2.706,-0.074
2.707,-0.072
2.708,-0.069
2.709,-0.066
2.710,-0.066
2.711,-0.066
2.712,-0.063
2.713,-0.063
2.714,-0.061
2.715,-0.059
2.716,-0.057
2.717,-0.059
2.718,-0.061
2.719,-0.059
2.720,-0.056
2.721,-0.056
2.722,-0.053
2.723,-0.050
2.724,-0.050
2.725,-0.053
2.726,-0.054
2.727,-0.053
2.728,-0.054
2.729,-0.056
2.730,-0.053
2.731,-0.053
2.732,-0.052
2.733,-0.050
2.734,-0.047
2.735,-0.044
2.736,-0.042
2.737,-0.037
2.738,-0.039
2.739,-0.034
2.740,-0.033
2.741,-0.028
2.742,-0.029
2.743,-0.028
2.744,-0.029
2.745,-0.028
2.746,-0.026
2.747,-0.028
2.748,-0.028
2.749,-0.028
2.750,-0.029
2.751,-0.028
2.752,-0.027
2.753,-0.022
2.754,-0.019
2.755,-0.022
2.756,-0.022
2.757,-0.019
2.758,-0.019
2.759,-0.016
2.760,-0.013
2.761,-0.006
2.762,-0.006
2.763,-0.006
2.764,-0.006
2.765,-0.003
2.766,0.003
2.767,0.006
2.768,0.005
2.769,0.006
2.770,0.005
2.771,0.003
2.772,0.005
2.773,0.003
2.774,0.003
2.775,0.003
2.776,0.003
2.777,0.006
2.778,0.005
2.779,0.003
2.780,0.006
2.781,0.009
2.782,0.011
2.783,0.013
2.784,0.016
2.785,0.019
2.786,0.022
2.787,0.022
2.788,0.021
2.789,0.019
2.790,0.023
2.791,0.022
2.792,0.024
2.793,0.022
2.794,0.025
2.795,0.028
2.796,0.028
2.797,0.028
2.798,0.028
2.799,0.028
2.800,0.028
2.801,0.031
2.802,0.031
2.803,0.031
2.804,0.030
2.805,0.031
2.806,0.034
2.807,0.041
2.808,0.044
2.809,0.047
2.810,0.051
2.811,0.053
2.812,0.055
2.813,0.056
2.814,0.058
2.815,0.059
2.816,0.058
2.817,0.059
2.818,0.063
2.819,0.066
2.820,0.072
2.821,0.078
2.822,0.077
2.823,0.075
2.824,0.075
2.825,0.078
2.826,0.081
2.827,0.084
2.828,0.086
2.829,0.088
2.830,0.094
2.831,0.100
2.832,0.100
2.833,0.103
2.834,0.103
2.835,0.106
2.836,0.107
2.837,0.112
2.838,0.114
2.839,0.116
2.840,0.122
2.841,0.122
2.842,0.121
2.843,0.122
2.844,0.124
2.845,0.122
2.846,0.123
2.847,0.122
2.848,0.122
2.849,0.125
2.850,0.122
2.851,0.125
2.852,0.122
2.853,0.122
2.854,0.122
2.855,0.122
2.856,0.123
2.857,0.125
2.858,0.123
2.859,0.125
2.860,0.122
2.861,0.122
2.862,0.122
2.863,0.122
2.864,0.117
2.865,0.112
2.866,0.111
2.867,0.106
2.868,0.103
2.869,0.100
2.870,0.100
2.871,0.100
2.872,0.096
2.873,0.091
2.874,0.091
2.875,0.088
2.876,0.086
2.877,0.081
2.878,0.078
2.879,0.072
2.880,0.070
2.881,0.066
2.882,0.067
2.883,0.066
2.884,0.063
2.885,0.059
2.886,0.055
2.887,0.050
2.888,0.042
2.889,0.041
2.890,0.036
2.891,0.034
2.892,0.032
2.893,0.028
2.894,0.024
2.895,0.022
2.896,0.026
2.897,0.025
2.898,0.019
2.899,0.016
2.900,0.011
2.901,0.013
2.902,0.011
2.903,0.009
2.904,0.006
2.905,0.003
2.906,0.000
2.907,-0.006
2.908,-0.008
2.909,-0.009
2.910,-0.009
2.911,-0.013
2.912,-0.014
2.913,-0.019
2.914,-0.023
2.915,-0.025
2.916,-0.025
2.917,-0.028
2.918,-0.028
2.919,-0.028
2.920,-0.028
2.921,-0.028
2.922,-0.030
2.923,-0.028
2.924,-0.032
2.925,-0.031
2.926,-0.030
2.927,-0.031
2.928,-0.030
2.929,-0.031
2.930,-0.031
2.931,-0.031
2.932,-0.034
2.933,-0.034
2.934,-0.034
2.935,-0.037
2.936,-0.037
2.937,-0.037
2.938,-0.037
2.939,-0.037
2.940,-0.037
2.941,-0.037
2.942,-0.036
2.943,-0.037
2.944,-0.037
2.945,-0.041
2.946,-0.039
2.947,-0.041
2.948,-0.041
2.949,-0.037
2.950,-0.039
2.951,-0.037
2.952,-0.041
2.953,-0.041
2.954,-0.037
2.955,-0.041
2.956,-0.041
2.957,-0.044
2.958,-0.045
2.959,-0.044
2.960,-0.042
2.961,-0.044
2.962,-0.041
2.963,-0.044
2.964,-0.045
2.965,-0.047
2.966,-0.047
2.967,-0.050
2.968,-0.050
2.969,-0.050
2.970,-0.050
2.971,-0.050
2.972,-0.050
2.973,-0.050
2.974,-0.044
2.975,-0.044
2.976,-0.048
2.977,-0.050
2.978,-0.050
2.979,-0.050
2.980,-0.052
2.981,-0.050
2.982,-0.050
2.983,-0.050
2.984,-0.051
2.985,-0.050
2.986,-0.049
2.987,-0.050
2.988,-0.054
2.989,-0.056
2.990,-0.059
2.991,-0.056
2.992,-0.056
2.993,-0.056
2.994,-0.055
2.995,-0.056
2.996,-0.055
2.997,-0.056
2.998,-0.056
2.999,-0.056
3.000,-0.056
3.001,-0.056
3.002,-0.053
3.003,-0.050
3.004,-0.049
3.005,-0.050
3.006,-0.051
3.007,-0.053
3.008,-0.053
3.009,-0.053
3.010,-0.054
3.011,-0.059
3.012,-0.059
3.013,-0.063
3.014,-0.063
3.015,-0.063
3.016,-0.064
3.017,-0.066
3.018,-0.066
3.019,-0.069
3.020,-0.068
3.021,-0.066
3.022,-0.069
3.023,-0.066
3.024,-0.067
3.025,-0.069
3.026,-0.068
3.027,-0.066
3.028,-0.069
3.029,-0.069
3.030,-0.070
3.031,-0.072
3.032,-0.075
3.033,-0.075
3.034,-0.075
3.035,-0.075
3.036,-0.074
3.037,-0.072
3.038,-0.071
3.039,-0.072
3.040,-0.076
3.041,-0.075
3.042,-0.075
3.043,-0.075
3.044,-0.074
3.045,-0.072
3.046,-0.075
3.047,-0.075
3.048,-0.075
3.049,-0.075
3.050,-0.076
3.051,-0.081
3.052,-0.083
3.053,-0.084
3.054,-0.083
3.055,-0.084
3.056,-0.088
3.057,-0.088
3.058,-0.088
3.059,-0.088
3.060,-0.089
3.061,-0.091
3.062,-0.095
3.063,-0.100
3.064,-0.099
3.065,-0.097
3.066,-0.096
3.067,-0.094
3.068,-0.091
3.069,-0.091
3.070,-0.089
3.071,-0.088
3.072,-0.084
3.073,-0.084
3.074,-0.088
3.075,-0.088
3.076,-0.083
3.077,-0.084
3.078,-0.088
3.079,-0.094
3.080,-0.097
3.081,-0.100
3.082,-0.100
3.083,-0.103
3.084,-0.102
3.085,-0.103
3.086,-0.099
3.087,-0.094
3.088,-0.095
3.089,-0.097
3.090,-0.097
3.091,-0.094
3.092,-0.094
3.093,-0.091
3.094,-0.091
3.095,-0.091
3.096,-0.091
3.097,-0.091
3.098,-0.088
3.099,-0.091
3.100,-0.091
3.101,-0.094
3.102,-0.094
3.103,-0.100
3.104,-0.100
3.105,-0.100
3.106,-0.100
3.107,-0.100
3.108,-0.103
3.109,-0.103
3.110,-0.099
3.111,-0.097
3.112,-0.094
3.113,-0.097
3.114,-0.095
3.115,-0.097
3.116,-0.096
3.117,-0.094
3.118,-0.092
3.119,-0.091
3.120,-0.091
3.121,-0.091
3.122,-0.092
3.123,-0.091
3.124,-0.083
3.125,-0.078
3.126,-0.072
3.127,-0.069
3.128,-0.073
3.129,-0.075
3.130,-0.072
3.131,-0.072
3.132,-0.064
3.133,-0.059
3.134,-0.055
3.135,-0.047
3.136,-0.039
3.137,-0.031
3.138,-0.028
3.139,-0.022
3.140,-0.016
3.141,-0.013
3.142,-0.006
3.143,0.003
3.144,0.005
3.145,0.006
3.146,0.000
3.147,0.000
3.148,-0.004
3.149,-0.006
3.150,-0.009
3.151,-0.013
3.152,-0.016
3.153,-0.016
3.154,-0.020
3.155,-0.022
3.156,-0.022
3.157,-0.016
3.158,-0.009
3.159,-0.013
3.160,-0.002
3.161,0.009
3.162,0.023
3.163,0.034
3.164,0.044
3.165,0.047
3.166,0.051
3.167,0.059
3.168,0.063
3.169,0.066
3.170,0.064
3.171,0.056
3.172,0.049
3.173,0.041
3.174,0.036
3.175,0.034
3.176,0.034
3.177,0.025
3.178,0.016
3.179,0.003
3.180,-0.008
3.181,-0.019
3.182,-0.025
3.183,-0.031
3.184,-0.037
3.185,-0.044
3.186,-0.046
3.187,-0.047
3.188,-0.050
3.189,-0.056
3.190,-0.059
3.191,-0.063
3.192,-0.072
3.193,-0.081
3.194,-0.089
3.195,-0.094
3.196,-0.098
3.197,-0.103
3.198,-0.105
3.199,-0.103
3.200,-0.099
3.201,-0.091
3.202,-0.092
3.203,-0.094
3.204,-0.097
3.205,-0.100
3.206,-0.107
3.207,-0.109
3.208,-0.109
3.209,-0.112
3.210,-0.111
3.211,-0.112
3.212,-0.116
3.213,-0.119
3.214,-0.121
3.215,-0.122
3.216,-0.122
3.217,-0.122
3.218,-0.121
3.219,-0.122
3.220,-0.123
3.221,-0.125
3.222,-0.128
3.223,-0.134
3.224,-0.134
3.225,-0.138
3.226,-0.131
3.227,-0.128
3.228,-0.131
3.229,-0.131
3.230,-0.131
3.231,-0.131
3.232,-0.128
3.233,-0.125
3.234,-0.126
3.235,-0.128
3.236,-0.127
3.237,-0.128
3.238,-0.129
3.239,-0.131
3.240,-0.129
3.241,-0.128
3.242,-0.124
3.243,-0.119
3.244,-0.116
3.245,-0.116
3.246,-0.119
3.247,-0.119
3.248,-0.120
3.249,-0.122
3.250,-0.119
3.251,-0.119
3.252,-0.116
3.253,-0.119
3.254,-0.119
3.255,-0.122
3.256,-0.122
3.257,-0.122
3.258,-0.119
3.259,-0.116
3.260,-0.112
3.261,-0.109
3.262,-0.116
3.263,-0.122
3.264,-0.124
3.265,-0.125
3.266,-0.133
3.267,-0.141
3.268,-0.149
3.269,-0.153
3.270,-0.161
3.271,-0.166
3.272,-0.176
3.273,-0.191
3.274,-0.199
3.275,-0.206
3.276,-0.212
3.277,-0.216
3.278,-0.212
3.279,-0.206
3.280,-0.189
3.281,-0.172
3.282,-0.153
3.283,-0.138
3.284,-0.126
3.285,-0.106
3.286,-0.068
3.287,-0.009
3.288,0.057
3.289,0.131
3.290,0.209
3.291,0.300
3.292,0.391
3.293,0.484
3.294,0.595
3.295,0.722
3.296,0.856
3.297,0.984
3.298,1.099
3.299,1.194
3.300,1.291
3.301,1.394
3.302,1.495
3.303,1.600
3.304,1.697
3.305,1.797
3.306,1.883
3.307,1.950
3.308,1.992
3.309,1.994
3.310,1.950
3.311,1.853
3.312,1.727
3.313,1.591
3.314,1.446
3.315,1.294
3.316,1.137
3.317,0.988
3.318,0.841
3.319,0.688
3.320,0.536
3.321,0.388
3.322,0.269
3.323,0.175
3.324,0.111
3.325,0.081
3.326,0.057
3.327,0.044
3.328,0.029
3.329,0.019
3.330,0.004
3.331,-0.003
3.332,-0.017
3.333,-0.028
3.334,-0.033
3.335,-0.037
3.336,-0.039
3.337,-0.044
3.338,-0.051
3.339,-0.059
3.340,-0.067
3.341,-0.072
3.342,-0.078
3.343,-0.088
3.344,-0.092
3.345,-0.094
3.346,-0.101
3.347,-0.106
3.348,-0.111
3.349,-0.109
3.350,-0.111
3.351,-0.116
3.352,-0.117
3.353,-0.119
3.354,-0.120
3.355,-0.122
3.356,-0.124
3.357,-0.125
3.358,-0.121
3.359,-0.122
3.360,-0.124
3.361,-0.125
3.362,-0.125
3.363,-0.128
3.364,-0.133
3.365,-0.138
3.366,-0.136
3.367,-0.138
3.368,-0.136
3.369,-0.138
3.370,-0.136
3.371,-0.134
3.372,-0.139
3.373,-0.141
3.374,-0.136
3.375,-0.138
3.376,-0.134
3.377,-0.131
3.378,-0.133
3.379,-0.134
3.380,-0.133
3.381,-0.131
3.382,-0.131
3.383,-0.131
3.384,-0.133
3.385,-0.134
3.386,-0.136
3.387,-0.138
3.388,-0.138
3.389,-0.138
3.390,-0.136
3.391,-0.141
3.392,-0.142
3.393,-0.141
3.394,-0.139
3.395,-0.141
3.396,-0.142
3.397,-0.144
3.398,-0.142
3.399,-0.141
3.400,-0.133
3.401,-0.131
3.402,-0.130
3.403,-0.125
3.404,-0.125
3.405,-0.125
3.406,-0.125
3.407,-0.122
3.408,-0.125
3.409,-0.125
3.410,-0.125
3.411,-0.125
3.412,-0.125
3.413,-0.125
3.414,-0.125
3.415,-0.122
3.416,-0.123
3.417,-0.122
3.418,-0.124
3.419,-0.122
3.420,-0.123
3.421,-0.122
3.422,-0.128
3.423,-0.128
3.424,-0.124
3.425,-0.122
3.426,-0.119
3.427,-0.119
3.428,-0.117
3.429,-0.119
3.430,-0.119
3.431,-0.119
3.432,-0.122
3.433,-0.122
3.434,-0.121
3.435,-0.119
3.436,-0.120
3.437,-0.122
3.438,-0.117
3.439,-0.119
3.440,-0.114
3.441,-0.116
3.442,-0.116
3.443,-0.112
3.444,-0.109
3.445,-0.109
3.446,-0.109
3.447,-0.109
3.448,-0.109
3.449,-0.106
3.450,-0.106
3.451,-0.106
3.452,-0.106
3.453,-0.103
3.454,-0.103
3.455,-0.106
3.456,-0.104
3.457,-0.106
3.458,-0.103
3.459,-0.106
3.460,-0.104
3.461,-0.106
3.462,-0.105
3.463,-0.100
3.464,-0.098
3.465,-0.103
3.466,-0.103
3.467,-0.103
3.468,-0.101
3.469,-0.100
3.470,-0.092
3.471,-0.088
3.472,-0.088
3.473,-0.088
3.474,-0.088
3.475,-0.088
3.476,-0.089
3.477,-0.088
3.478,-0.086
3.479,-0.088
3.480,-0.088
3.481,-0.088
3.482,-0.088
3.483,-0.088
3.484,-0.086
3.485,-0.088
3.486,-0.086
3.487,-0.084
3.488,-0.077
3.489,-0.072
3.490,-0.073
3.491,-0.072
3.492,-0.069
3.493,-0.069
3.494,-0.067
3.495,-0.066
3.496,-0.064
3.497,-0.066
3.498,-0.063
3.499,-0.056
3.500,-0.056
3.501,-0.056
3.502,-0.056
3.503,-0.059
3.504,-0.063
3.505,-0.066
3.506,-0.063
3.507,-0.059
3.508,-0.058
3.509,-0.053
3.510,-0.055
3.511,-0.050
3.512,-0.051
3.513,-0.050
3.514,-0.051
3.515,-0.050
3.516,-0.049
3.517,-0.044
3.518,-0.041
3.519,-0.041
3.520,-0.041
3.521,-0.041
3.522,-0.039
3.523,-0.034
3.524,-0.036
3.525,-0.034
3.526,-0.031
3.527,-0.034
3.528,-0.034
3.529,-0.031
3.530,-0.030
3.531,-0.025
3.532,-0.022
3.533,-0.016
3.534,-0.016
3.535,-0.016
3.536,-0.019
3.537,-0.019
3.538,-0.017
3.539,-0.019
3.540,-0.016
3.541,-0.009
3.542,-0.009
3.543,-0.009
3.544,-0.008
3.545,-0.009
3.546,-0.009
3.547,-0.009
3.548,-0.013
3.549,-0.013
3.550,-0.013
3.551,-0.013
3.552,-0.013
3.553,-0.013
3.554,-0.014
3.555,-0.016
3.556,-0.014
3.557,-0.013
3.558,-0.005
3.559,0.000
3.560,0.000
3.561,0.000
3.562,0.004
3.563,0.003
3.564,0.006
3.565,0.006
3.566,0.006
3.567,0.006
3.568,0.008
3.569,0.009
3.570,0.009
3.571,0.009
3.572,0.008
3.573,0.009
3.574,0.011
3.575,0.013
3.576,0.011
3.577,0.013
3.578,0.009
3.579,0.009
3.580,0.014
3.581,0.019
3.582,0.025
3.583,0.028
3.584,0.032
3.585,0.037
3.586,0.039
3.587,0.041
3.588,0.041
3.589,0.044
3.590,0.048
3.591,0.053
3.592,0.057
3.593,0.063
3.594,0.063
3.595,0.063
3.596,0.063
3.597,0.066
3.598,0.068
3.599,0.069
3.600,0.072
3.601,0.075
3.602,0.079
3.603,0.084
3.604,0.081
3.605,0.081
3.606,0.084
3.607,0.091
3.608,0.094
3.609,0.100
3.610,0.099
3.611,0.097
3.612,0.102
3.613,0.100
3.614,0.100
3.615,0.103
3.616,0.106
3.617,0.106
3.618,0.107
3.619,0.106
3.620,0.106
3.621,0.109
3.622,0.109
3.623,0.116
3.624,0.112
3.625,0.112
3.626,0.111
3.627,0.109
3.628,0.108
3.629,0.106
3.630,0.104
3.631,0.106
3.632,0.102
3.633,0.100
3.634,0.100
3.635,0.100
3.636,0.096
3.637,0.091
3.638,0.089
3.639,0.084
3.640,0.083
3.641,0.081
3.642,0.081
3.643,0.081
3.644,0.077
3.645,0.072
3.646,0.068
3.647,0.059
3.648,0.055
3.649,0.047
3.650,0.048
3.651,0.047
3.652,0.044
3.653,0.037
3.654,0.036
3.655,0.031
3.656,0.031
3.657,0.031
3.658,0.031
3.659,0.031
3.660,0.021
3.661,0.016
3.662,0.008
3.663,0.003
3.664,0.000
3.665,-0.006
3.666,-0.009
3.667,-0.009
3.668,-0.006
3.669,-0.009
3.670,-0.013
3.671,-0.013
3.672,-0.022
3.673,-0.025
3.674,-0.027
3.675,-0.028
3.676,-0.030
3.677,-0.031
3.678,-0.034
3.679,-0.041
3.680,-0.042
3.681,-0.044
3.682,-0.044
3.683,-0.047
3.684,-0.047
3.685,-0.050
3.686,-0.053
3.687,-0.053
3.688,-0.050
3.689,-0.050
3.690,-0.050
3.691,-0.050
3.692,-0.050
3.693,-0.050
3.694,-0.057
3.695,-0.063
3.696,-0.069
3.697,-0.069
3.698,-0.068
3.699,-0.069
3.700,-0.068
3.701,-0.069
3.702,-0.069
3.703,-0.069
3.704,-0.068
3.705,-0.063
3.706,-0.059
3.707,-0.059
3.708,-0.059
3.709,-0.059
3.710,-0.058
3.711,-0.056
3.712,-0.056
3.713,-0.056
3.714,-0.055
3.715,-0.056
3.716,-0.054
3.717,-0.056
3.718,-0.055
3.719,-0.056
3.720,-0.063
3.721,-0.066
3.722,-0.067
3.723,-0.066
3.724,-0.069
3.725,-0.069
3.726,-0.064
3.727,-0.066
3.728,-0.066
3.729,-0.069
3.730,-0.070
3.731,-0.069
3.732,-0.068
3.733,-0.069
3.734,-0.064
3.735,-0.066
3.736,-0.069
3.737,-0.072
3.738,-0.072
3.739,-0.075
3.740,-0.074
3.741,-0.072
3.742,-0.072
3.743,-0.072
3.744,-0.073
3.745,-0.075
3.746,-0.071
3.747,-0.072
3.748,-0.075
3.749,-0.075
3.750,-0.078
3.751,-0.081
3.752,-0.084
3.753,-0.084
3.754,-0.083
3.755,-0.081
3.756,-0.081
3.757,-0.078
3.758,-0.077
3.759,-0.078
3.760,-0.080
3.761,-0.078
3.762,-0.083
3.763,-0.081
3.764,-0.081
3.765,-0.081
3.766,-0.081
3.767,-0.084
3.768,-0.083
3.769,-0.084
3.770,-0.084
3.771,-0.084
3.772,-0.086
3.773,-0.088
3.774,-0.088
3.775,-0.088
3.776,-0.086
3.777,-0.088
3.778,-0.089
3.779,-0.091
3.780,-0.094
3.781,-0.097
3.782,-0.096
3.783,-0.097
3.784,-0.092
3.785,-0.091
3.786,-0.092
3.787,-0.094
3.788,-0.097
3.789,-0.100
3.790,-0.100
3.791,-0.103
3.792,-0.103
3.793,-0.103
3.794,-0.107
3.795,-0.106
3.796,-0.106
3.797,-0.106
3.798,-0.105
3.799,-0.103
3.800,-0.103
3.801,-0.100
3.802,-0.099
3.803,-0.097
3.804,-0.103
3.805,-0.106
3.806,-0.107
3.807,-0.109
3.808,-0.111
3.809,-0.112
3.810,-0.112
3.811,-0.112
3.812,-0.109
3.813,-0.109
3.814,-0.111
3.815,-0.109
3.816,-0.105
3.817,-0.106
3.818,-0.106
3.819,-0.109
3.820,-0.111
3.821,-0.112
3.822,-0.111
3.823,-0.112
3.824,-0.109
3.825,-0.109
3.826,-0.109
3.827,-0.109
3.828,-0.109
3.829,-0.109
3.830,-0.108
3.831,-0.103
3.832,-0.106
3.833,-0.106
3.834,-0.106
3.835,-0.106
3.836,-0.106
3.837,-0.106
3.838,-0.104
3.839,-0.109
3.840,-0.109
3.841,-0.112
3.842,-0.114
3.843,-0.122
3.844,-0.121
3.845,-0.119
3.846,-0.119
3.847,-0.119
3.848,-0.122
3.849,-0.122
3.850,-0.119
3.851,-0.119
3.852,-0.116
3.853,-0.119
3.854,-0.116
3.855,-0.116
3.856,-0.116
3.857,-0.116
3.858,-0.119
3.859,-0.122
3.860,-0.121
3.861,-0.119
3.862,-0.117
3.863,-0.112
3.864,-0.105
3.865,-0.100
3.866,-0.096
3.867,-0.094
3.868,-0.097
3.869,-0.097
3.870,-0.091
3.871,-0.088
3.872,-0.077
3.873,-0.069
3.874,-0.064
3.875,-0.056
3.876,-0.053
3.877,-0.050
3.878,-0.047
3.879,-0.041
3.880,-0.030
3.881,-0.022
3.882,-0.023
3.883,-0.022
3.884,-0.023
3.885,-0.025
3.886,-0.034
3.887,-0.037
3.888,-0.042
3.889,-0.044
3.890,-0.044
3.891,-0.044
3.892,-0.047
3.893,-0.047
3.894,-0.047
3.895,-0.044
3.896,-0.039
3.897,-0.028
3.898,-0.016
3.899,-0.013
3.900,-0.002
3.901,0.009
3.902,0.018
3.903,0.022
3.904,0.028
3.905,0.028
3.906,0.025
3.907,0.025
3.908,0.024
3.909,0.022
3.910,0.026
3.911,0.025
3.912,0.022
3.913,0.019
3.914,0.013
3.915,0.009
3.916,0.002
3.917,-0.016
3.918,-0.028
3.919,-0.044
3.920,-0.055
3.921,-0.066
3.922,-0.078
3.923,-0.091
3.924,-0.094
3.925,-0.097
3.926,-0.099
3.927,-0.100
3.928,-0.097
3.929,-0.097
3.930,-0.104
3.931,-0.112
3.932,-0.120
3.933,-0.128
3.934,-0.133
3.935,-0.134
3.936,-0.138
3.937,-0.141
3.938,-0.144
3.939,-0.144
3.940,-0.147
3.941,-0.147
3.942,-0.146
3.943,-0.144
3.944,-0.144
3.945,-0.144
3.946,-0.149
3.947,-0.147
3.948,-0.148
3.949,-0.153
3.950,-0.153
3.951,-0.156
3.952,-0.157
3.953,-0.159
3.954,-0.162
3.955,-0.166
3.956,-0.167
3.957,-0.169
3.958,-0.167
3.959,-0.169
3.960,-0.169
3.961,-0.169
3.962,-0.167
3.963,-0.169
3.964,-0.166
3.965,-0.166
3.966,-0.159
3.967,-0.156
3.968,-0.159
3.969,-0.159
3.970,-0.162
3.971,-0.166
3.972,-0.172
3.973,-0.178
3.974,-0.179
3.975,-0.181
3.976,-0.180
3.977,-0.181
3.978,-0.178
3.979,-0.175
3.980,-0.172
3.981,-0.169
3.982,-0.167
3.983,-0.166
3.984,-0.166
3.985,-0.169
3.986,-0.171
3.987,-0.169
3.988,-0.167
3.989,-0.166
3.990,-0.164
3.991,-0.166
3.992,-0.161
3.993,-0.162
3.994,-0.159
3.995,-0.159
3.996,-0.159
3.997,-0.159
3.998,-0.159
3.999,-0.159
4.000,-0.158
4.001,-0.156
4.002,-0.156
4.003,-0.156
4.004,-0.162
4.005,-0.169
4.006,-0.173
4.007,-0.178
4.008,-0.191
4.009,-0.200
4.010,-0.208
4.011,-0.212
4.012,-0.221
4.013,-0.231
4.014,-0.239
4.015,-0.247
4.016,-0.253
4.017,-0.256
4.018,-0.263
4.019,-0.266
4.020,-0.248
4.021,-0.231
4.022,-0.212
4.023,-0.197
4.024,-0.184
4.025,-0.162
4.026,-0.131
4.027,-0.081
4.028,-0.025
4.029,0.037
4.030,0.112
4.031,0.200
4.032,0.291
4.033,0.384
4.034,0.489
4.035,0.609
4.036,0.747
4.037,0.878
4.038,0.994
4.039,1.091
4.040,1.181
4.041,1.278
4.042,1.381
4.043,1.488
4.044,1.598
4.045,1.713
4.046,1.817
4.047,1.903
4.048,1.973
4.049,2.003
4.050,1.966
4.051,1.875
4.052,1.756
4.053,1.628
4.054,1.489
4.055,1.344
4.056,1.200
4.057,1.063
4.058,0.920
4.059,0.772
4.060,0.616
4.061,0.462
4.062,0.318
4.063,0.197
4.064,0.120
4.065,0.078
4.066,0.061
4.067,0.053
4.068,0.036
4.069,0.022
4.070,0.005
4.071,-0.006
4.072,-0.019
4.073,-0.028
4.074,-0.037
4.075,-0.047
4.076,-0.050
4.077,-0.056
4.078,-0.059
4.079,-0.063
4.080,-0.069
4.081,-0.072
4.082,-0.074
4.083,-0.078
4.084,-0.086
4.085,-0.091
4.086,-0.098
4.087,-0.103
4.088,-0.109
4.089,-0.109
4.090,-0.108
4.091,-0.109
4.092,-0.109
4.093,-0.109
4.094,-0.109
4.095,-0.109
4.096,-0.111
4.097,-0.112
4.098,-0.111
4.099,-0.116
4.100,-0.123
4.101,-0.131
4.102,-0.131
4.103,-0.134
4.104,-0.136
4.105,-0.138
4.106,-0.138
4.107,-0.141
4.108,-0.134
4.109,-0.131
4.110,-0.131
4.111,-0.131
4.112,-0.134
4.113,-0.134
4.114,-0.133
4.115,-0.138
4.116,-0.139
4.117,-0.141
4.118,-0.141
4.119,-0.141
4.120,-0.136
4.121,-0.131
4.122,-0.133
4.123,-0.134
4.124,-0.133
4.125,-0.131
4.126,-0.131
4.127,-0.131
4.128,-0.133
4.129,-0.134
4.130,-0.130
4.131,-0.131
4.132,-0.131
4.133,-0.128
4.134,-0.127
4.135,-0.128
4.136,-0.129
4.137,-0.131
4.138,-0.131
4.139,-0.131
4.140,-0.125
4.141,-0.125
4.142,-0.125
4.143,-0.122
4.144,-0.121
4.145,-0.119
4.146,-0.120
4.147,-0.119
4.148,-0.123
4.149,-0.125
4.150,-0.125
4.151,-0.125
4.152,-0.126
4.153,-0.128
4.154,-0.129
4.155,-0.128
4.156,-0.128
4.157,-0.125
4.158,-0.127
4.159,-0.125
4.160,-0.125
4.161,-0.122
4.162,-0.122
4.163,-0.116
4.164,-0.114
4.165,-0.116
4.166,-0.116
4.167,-0.119
4.168,-0.116
4.169,-0.116
4.170,-0.117
4.171,-0.119
4.172,-0.122
4.173,-0.122
4.174,-0.122
4.175,-0.122
4.176,-0.121
4.177,-0.119
4.178,-0.114
4.179,-0.116
4.180,-0.114
4.181,-0.119
4.182,-0.120
4.183,-0.119
4.184,-0.114
4.185,-0.112
4.186,-0.109
4.187,-0.106
4.188,-0.107
4.189,-0.106
4.190,-0.107
4.191,-0.109
4.192,-0.108
4.193,-0.103
4.194,-0.103
4.195,-0.106
4.196,-0.104
4.197,-0.106
4.198,-0.103
4.199,-0.106
4.200,-0.104
4.201,-0.106
4.202,-0.107
4.203,-0.106
4.204,-0.097
4.205,-0.094
4.206,-0.094
4.207,-0.094
4.208,-0.092
4.209,-0.091
4.210,-0.086
4.211,-0.084
4.212,-0.084
4.213,-0.084
4.214,-0.086
4.215,-0.088
4.216,-0.089
4.217,-0.088
4.218,-0.086
4.219,-0.088
4.220,-0.088
4.221,-0.088
4.222,-0.088
4.223,-0.088
4.224,-0.083
4.225,-0.081
4.226,-0.078
4.227,-0.075
4.228,-0.072
4.229,-0.072
4.230,-0.072
4.231,-0.069
4.232,-0.066
4.233,-0.066
4.234,-0.066
4.235,-0.066
4.236,-0.064
4.237,-0.066
4.238,-0.069
4.239,-0.069
4.240,-0.069
4.241,-0.069
4.242,-0.066
4.243,-0.066
4.244,-0.063
4.245,-0.059
4.246,-0.057
4.247,-0.056
4.248,-0.056
4.249,-0.053
4.250,-0.053
4.251,-0.047
4.252,-0.048
4.253,-0.047
4.254,-0.046
4.255,-0.041
4.256,-0.042
4.257,-0.041
4.258,-0.039
4.259,-0.041
4.260,-0.036
4.261,-0.031
4.262,-0.032
4.263,-0.031
4.264,-0.034
4.265,-0.034
4.266,-0.031
4.267,-0.034
4.268,-0.036
4.269,-0.034
4.270,-0.036
4.271,-0.034
4.272,-0.033
4.273,-0.028
4.274,-0.024
4.275,-0.019
4.276,-0.019
4.277,-0.016
4.278,-0.013
4.279,-0.013
4.280,-0.013
4.281,-0.009
4.282,-0.011
4.283,-0.013
4.284,-0.009
4.285,-0.009
4.286,-0.009
4.287,-0.009
4.288,-0.011
4.289,-0.009
4.290,-0.011
4.291,-0.013
4.292,-0.013
4.293,-0.013
4.294,-0.009
4.295,-0.006
4.296,-0.003
4.297,0.000
4.298,0.003
4.299,0.003
4.300,0.003
4.301,0.003
4.302,0.008
4.303,0.006
4.304,0.009
4.305,0.009
4.306,0.011
4.307,0.013
4.308,0.011
4.309,0.009
4.310,0.008
4.311,0.006
4.312,0.006
4.313,0.009
4.314,0.009
4.315,0.009
4.316,0.014
4.317,0.022
4.318,0.019
4.319,0.019
4.320,0.022
4.321,0.025
4.322,0.028
4.323,0.028
4.324,0.031
4.325,0.034
4.326,0.036
4.327,0.037
4.328,0.037
4.329,0.041
4.330,0.044
4.331,0.047
4.332,0.053
4.333,0.059
4.334,0.059
4.335,0.059
4.336,0.059
4.337,0.063
4.338,0.067
4.339,0.072
4.340,0.075
4.341,0.078
4.342,0.080
4.343,0.081
4.344,0.081
4.345,0.084
4.346,0.088
4.347,0.094
4.348,0.093
4.349,0.094
4.350,0.094
4.351,0.094
4.352,0.100
4.353,0.100
4.354,0.100
4.355,0.103
4.356,0.106
4.357,0.106
4.358,0.106
4.359,0.103
4.360,0.102
4.361,0.103
4.362,0.100
4.363,0.103
4.364,0.100
4.365,0.100
4.366,0.099
4.367,0.097
4.368,0.098
4.369,0.100
4.370,0.098
4.371,0.100
4.372,0.093
4.373,0.088
4.374,0.088
4.375,0.088
4.376,0.086
4.377,0.084
4.378,0.081
4.379,0.075
4.380,0.073
4.381,0.072
4.382,0.068
4.383,0.063
4.384,0.058
4.385,0.053
4.386,0.051
4.387,0.047
4.388,0.042
4.389,0.034
4.390,0.036
4.391,0.034
4.392,0.034
4.393,0.031
4.394,0.030
4.395,0.025
4.396,0.021
4.397,0.016
4.398,0.013
4.399,0.009
4.400,0.008
4.401,0.013
4.402,0.009
4.403,0.009
4.404,0.005
4.405,-0.003
4.406,-0.009
4.407,-0.013
4.408,-0.009
4.409,-0.013
4.410,-0.017
4.411,-0.019
4.412,-0.026
4.413,-0.028
4.414,-0.028
4.415,-0.028
4.416,-0.030
4.417,-0.031
4.418,-0.031
4.419,-0.034
4.420,-0.034
4.421,-0.034
4.422,-0.037
4.423,-0.044
4.424,-0.042
4.425,-0.044
4.426,-0.047
4.427,-0.047
4.428,-0.050
4.429,-0.056
4.430,-0.055
4.431,-0.053
4.432,-0.053
4.433,-0.053
4.434,-0.055
4.435,-0.053
4.436,-0.055
4.437,-0.050
4.438,-0.050
4.439,-0.053
4.440,-0.053
4.441,-0.056
4.442,-0.057
4.443,-0.059
4.444,-0.061
4.445,-0.059
4.446,-0.055
4.447,-0.053
4.448,-0.054
4.449,-0.056
4.450,-0.056
4.451,-0.056
4.452,-0.056
4.453,-0.056
4.454,-0.056
4.455,-0.059
4.456,-0.057
4.457,-0.059
4.458,-0.056
4.459,-0.056
4.460,-0.059
4.461,-0.059
4.462,-0.058
4.463,-0.053
4.464,-0.055
4.465,-0.053
4.466,-0.050
4.467,-0.053
4.468,-0.052
4.469,-0.053
4.470,-0.053
4.471,-0.050
4.472,-0.050
4.473,-0.053
4.474,-0.049
4.475,-0.050
4.476,-0.051
4.477,-0.053
4.478,-0.052
4.479,-0.053
4.480,-0.054
4.481,-0.056
4.482,-0.056
4.483,-0.056
4.484,-0.057
4.485,-0.059
4.486,-0.055
4.487,-0.056
4.488,-0.059
4.489,-0.059
4.490,-0.058
4.491,-0.056
4.492,-0.059
4.493,-0.059
4.494,-0.059
4.495,-0.059
4.496,-0.061
4.497,-0.059
4.498,-0.061
4.499,-0.066
4.500,-0.069
4.501,-0.069
4.502,-0.073
4.503,-0.072
4.504,-0.072
4.505,-0.072
4.506,-0.073
4.507,-0.078
4.508,-0.078
4.509,-0.081
4.510,-0.081
4.511,-0.081
4.512,-0.081
4.513,-0.081
4.514,-0.081
4.515,-0.081
4.516,-0.081
4.517,-0.084
4.518,-0.086
4.519,-0.088
4.520,-0.089
4.521,-0.091
4.522,-0.089
4.523,-0.091
4.524,-0.092
4.525,-0.097
4.526,-0.096
4.527,-0.094
4.528,-0.097
4.529,-0.100
4.530,-0.100
4.531,-0.103
4.532,-0.102
4.533,-0.100
4.534,-0.102
4.535,-0.097
4.536,-0.096
4.537,-0.094
4.538,-0.097
4.539,-0.100
4.540,-0.103
4.541,-0.103
4.542,-0.102
4.543,-0.100
4.544,-0.103
4.545,-0.103
4.546,-0.103
4.547,-0.103
4.548,-0.104
4.549,-0.106
4.550,-0.103
4.551,-0.103
4.552,-0.105
4.553,-0.103
4.554,-0.106
4.555,-0.106
4.556,-0.105
4.557,-0.106
4.558,-0.107
4.559,-0.106
4.560,-0.106
4.561,-0.103
4.562,-0.105
4.563,-0.103
4.564,-0.106
4.565,-0.106
4.566,-0.105
4.567,-0.103
4.568,-0.105
4.569,-0.103
4.570,-0.103
4.571,-0.103
4.572,-0.104
4.573,-0.106
4.574,-0.103
4.575,-0.106
4.576,-0.105
4.577,-0.103
4.578,-0.103
4.579,-0.103
4.580,-0.104
4.581,-0.103
4.582,-0.105
4.583,-0.103
4.584,-0.106
4.585,-0.103
4.586,-0.106
4.587,-0.106
4.588,-0.107
4.589,-0.109
4.590,-0.108
4.591,-0.109
4.592,-0.112
4.593,-0.112
4.594,-0.112
4.595,-0.109
4.596,-0.114
4.597,-0.112
4.598,-0.111
4.599,-0.109
4.600,-0.109
4.601,-0.109
4.602,-0.109
4.603,-0.109
4.604,-0.108
4.605,-0.106
4.606,-0.103
4.607,-0.097
4.608,-0.091
4.609,-0.084
4.610,-0.078
4.611,-0.072
4.612,-0.072
4.613,-0.069
4.614,-0.066
4.615,-0.056
4.616,-0.050
4.617,-0.047
4.618,-0.042
4.619,-0.037
4.620,-0.030
4.621,-0.025
4.622,-0.019
4.623,-0.013
4.624,-0.009
4.625,-0.009
4.626,-0.009
4.627,-0.009
4.628,-0.005
4.629,-0.009
4.630,-0.009
4.631,-0.013
4.632,-0.009
4.633,-0.009
4.634,-0.014
4.635,-0.019
4.636,-0.018
4.637,-0.016
4.638,-0.011
4.639,-0.009
4.640,-0.004
4.641,0.003
4.642,0.002
4.643,0.009
4.644,0.016
4.645,0.022
4.646,0.022
4.647,0.025
4.648,0.034
4.649,0.041
4.650,0.044
4.651,0.044
4.652,0.042
4.653,0.044
4.654,0.044
4.655,0.041
4.656,0.036
4.657,0.031
4.658,0.025
4.659,0.019
4.660,0.008
4.661,0.000
4.662,-0.014
4.663,-0.028
4.664,-0.041
4.665,-0.047
4.666,-0.056
4.667,-0.066
4.668,-0.071
4.669,-0.072
4.670,-0.079
4.671,-0.084
4.672,-0.084
4.673,-0.088
4.674,-0.094
4.675,-0.100
4.676,-0.102
4.677,-0.103
4.678,-0.103
4.679,-0.103
4.680,-0.105
4.681,-0.106
4.682,-0.111
4.683,-0.116
4.684,-0.114
4.685,-0.116
4.686,-0.116
4.687,-0.119
4.688,-0.121
4.689,-0.125
4.690,-0.125
4.691,-0.125
4.692,-0.127
4.693,-0.125
4.694,-0.128
4.695,-0.128
4.696,-0.131
4.697,-0.138
4.698,-0.141
4.699,-0.141
4.700,-0.141
4.701,-0.141
4.702,-0.143
4.703,-0.141
4.704,-0.141
4.705,-0.141
4.706,-0.143
4.707,-0.141
4.708,-0.145
4.709,-0.144
4.710,-0.144
4.711,-0.144
4.712,-0.142
4.713,-0.144
4.714,-0.145
4.715,-0.147
4.716,-0.147
4.717,-0.147
4.718,-0.147
4.719,-0.147
4.720,-0.150
4.721,-0.150
4.722,-0.150
4.723,-0.147
4.724,-0.143
4.725,-0.141
4.726,-0.142
4.727,-0.141
4.728,-0.139
4.729,-0.141
4.730,-0.141
4.731,-0.141
4.732,-0.142
4.733,-0.141
4.734,-0.142
4.735,-0.141
4.736,-0.145
4.737,-0.144
4.738,-0.143
4.739,-0.141
4.740,-0.141
4.741,-0.141
4.742,-0.141
4.743,-0.141
4.744,-0.142
4.745,-0.147
4.746,-0.147
4.747,-0.147
4.748,-0.149
4.749,-0.150
4.750,-0.153
4.751,-0.162
4.752,-0.169
4.753,-0.175
4.754,-0.177
4.755,-0.184
4.756,-0.193
4.757,-0.197
4.758,-0.206
4.759,-0.209
4.760,-0.211
4.761,-0.212
4.762,-0.208
4.763,-0.188
4.764,-0.170
4.765,-0.150
4.766,-0.127
4.767,-0.109
4.768,-0.080
4.769,-0.034
4.770,0.026
4.771,0.097
4.772,0.170
4.773,0.247
4.774,0.333
4.775,0.422
4.776,0.522
4.777,0.638
4.778,0.764
4.779,0.903
4.780,1.028
4.781,1.141
4.782,1.239
4.783,1.328
4.784,1.425
4.785,1.525
4.786,1.622
4.787,1.713
4.788,1.805
4.789,1.887
4.790,1.964
4.791,2.034
4.792,2.058
4.793,2.025
4.794,1.944
4.795,1.825
4.796,1.691
4.797,1.544
4.798,1.391
4.799,1.231
4.800,1.080
4.801,0.931
4.802,0.777
4.803,0.619
4.804,0.469
4.805,0.341
4.806,0.234
4.807,0.156
4.808,0.108
4.809,0.078
4.810,0.061
4.811,0.044
4.812,0.031
4.813,0.016
4.814,0.006
4.815,-0.006
4.816,-0.014
4.817,-0.019
4.818,-0.022
4.819,-0.022
4.820,-0.029
4.821,-0.037
4.822,-0.044
4.823,-0.050
4.824,-0.053
4.825,-0.056
4.826,-0.063
4.827,-0.069
4.828,-0.073
4.829,-0.081
4.830,-0.083
4.831,-0.088
4.832,-0.088
4.833,-0.088
4.834,-0.092
4.835,-0.094
4.836,-0.097
4.837,-0.100
4.838,-0.100
4.839,-0.103
4.840,-0.106
4.841,-0.103
4.842,-0.103
4.843,-0.103
4.844,-0.107
4.845,-0.109
4.846,-0.111
4.847,-0.109
4.848,-0.109
4.849,-0.109
4.850,-0.114
4.851,-0.112
4.852,-0.112
4.853,-0.112
4.854,-0.111
4.855,-0.112
4.856,-0.116
4.857,-0.116
4.858,-0.119
4.859,-0.119
4.860,-0.116
4.861,-0.112
4.862,-0.112
4.863,-0.112
4.864,-0.114
4.865,-0.116
4.866,-0.116
4.867,-0.116
4.868,-0.117
4.869,-0.119
4.870,-0.120
4.871,-0.122
4.872,-0.122
4.873,-0.119
4.874,-0.119
4.875,-0.116
4.876,-0.112
4.877,-0.112
4.878,-0.116
4.879,-0.116
4.880,-0.117
4.881,-0.116
4.882,-0.117
4.883,-0.119
4.884,-0.119
4.885,-0.116
4.886,-0.109
4.887,-0.106
4.888,-0.106
4.889,-0.106
4.890,-0.103
4.891,-0.106
4.892,-0.107
4.893,-0.109
4.894,-0.109
4.895,-0.109
4.896,-0.109
4.897,-0.109
4.898,-0.106
4.899,-0.106
4.900,-0.103
4.901,-0.106
4.902,-0.107
4.903,-0.109
4.904,-0.106
4.905,-0.109
4.906,-0.109
4.907,-0.109
4.908,-0.108
4.909,-0.106
4.910,-0.111
4.911,-0.109
4.912,-0.109
4.913,-0.109
4.914,-0.108
4.915,-0.106
4.916,-0.103
4.917,-0.103
4.918,-0.102
4.919,-0.100
4.920,-0.099
4.921,-0.094
4.922,-0.097
4.923,-0.094
4.924,-0.097
4.925,-0.097
4.926,-0.098
4.927,-0.100
4.928,-0.100
4.929,-0.100
4.930,-0.100
4.931,-0.100
4.932,-0.096
4.933,-0.094
4.934,-0.094
4.935,-0.094
4.936,-0.091
4.937,-0.091
4.938,-0.092
4.939,-0.088
4.940,-0.086
4.941,-0.081
4.942,-0.086
4.943,-0.084
4.944,-0.081
4.945,-0.078
4.946,-0.076
4.947,-0.075
4.948,-0.079
4.949,-0.081
4.950,-0.083
4.951,-0.081
4.952,-0.079
4.953,-0.078
4.954,-0.078
4.955,-0.078
4.956,-0.078
4.957,-0.078
4.958,-0.077
4.959,-0.075
4.960,-0.073
4.961,-0.072
4.962,-0.068
4.963,-0.063
4.964,-0.061
4.965,-0.059
4.966,-0.061
4.967,-0.059
4.968,-0.061
4.969,-0.063
4.970,-0.064
4.971,-0.063
4.972,-0.061
4.973,-0.059
4.974,-0.057
4.975,-0.056
4.976,-0.056
4.977,-0.053
4.978,-0.049
4.979,-0.047
4.980,-0.050
4.981,-0.050
4.982,-0.042
4.983,-0.037
4.984,-0.039
4.985,-0.037
4.986,-0.037
4.987,-0.037
4.988,-0.039
4.989,-0.037
4.990,-0.033
4.991,-0.031
4.992,-0.028
4.993,-0.031
4.994,-0.029
4.995,-0.031
4.996,-0.029
4.997,-0.031
4.998,-0.029
4.999,-0.031
5.000,-0.029
5.001,-0.028
5.002,-0.028
5.003,-0.028
5.004,-0.027
5.005,-0.025
5.006,-0.019
5.007,-0.016
5.008,-0.009
5.009,-0.003
5.010,-0.003
5.011,0.000
5.012,0.004
5.013,0.006
5.014,0.009
5.015,0.009
5.016,0.011
5.017,0.009
5.018,0.008
5.019,0.006
5.020,0.008
5.021,0.009
5.022,0.008
5.023,0.006
5.024,0.009
5.025,0.009
5.026,0.011
5.027,0.016
5.028,0.017
5.029,0.019
5.030,0.022
5.031,0.025
5.032,0.028
5.033,0.028
5.034,0.028
5.035,0.028
5.036,0.027
5.037,0.025
5.038,0.024
5.039,0.025
5.040,0.025
5.041,0.025
5.042,0.028
5.043,0.031
5.044,0.031
5.045,0.034
5.046,0.030
5.047,0.031
5.048,0.032
5.049,0.037
5.050,0.039
5.051,0.037
5.052,0.037
5.053,0.037
5.054,0.039
5.055,0.041
5.056,0.045
5.057,0.047
5.058,0.047
5.059,0.047
5.060,0.051
5.061,0.053
5.062,0.052
5.063,0.050
5.064,0.054
5.065,0.059
5.066,0.058
5.067,0.059
5.068,0.059
5.069,0.059
5.070,0.063
5.071,0.063
5.072,0.064
5.073,0.066
5.074,0.070
5.075,0.075
5.076,0.081
5.077,0.084
5.078,0.084
5.079,0.084
5.080,0.089
5.081,0.094
5.082,0.098
5.083,0.103
5.084,0.105
5.085,0.106
5.086,0.111
5.087,0.112
5.088,0.114
5.089,0.116
5.090,0.121
5.091,0.119
5.092,0.123
5.093,0.125
5.094,0.122
5.095,0.125
5.096,0.126
5.097,0.128
5.098,0.130
5.099,0.131
5.100,0.133
5.101,0.134
5.102,0.133
5.103,0.134
5.104,0.136
5.105,0.131
5.106,0.133
5.107,0.128
5.108,0.127
5.109,0.125
5.110,0.126
5.111,0.128
5.112,0.127
5.113,0.122
5.114,0.122
5.115,0.119
5.116,0.116
5.117,0.109
5.118,0.106
5.119,0.103
5.120,0.100
5.121,0.100
5.122,0.100
5.123,0.100
5.124,0.096
5.125,0.091
5.126,0.086
5.127,0.081
5.128,0.077
5.129,0.072
5.130,0.069
5.131,0.069
5.132,0.061
5.133,0.059
5.134,0.056
5.135,0.053
5.136,0.046
5.137,0.044
5.138,0.044
5.139,0.044
5.140,0.039
5.141,0.034
5.142,0.032
5.143,0.028
5.144,0.031
5.145,0.028
5.146,0.022
5.147,0.016
5.148,0.011
5.149,0.009
5.150,0.009
5.151,0.009
5.152,0.004
5.153,0.003
5.154,0.003
5.155,-0.003
5.156,-0.004
5.157,-0.009
5.158,-0.009
5.159,-0.009
5.160,-0.014
5.161,-0.016
5.162,-0.018
5.163,-0.016
5.164,-0.016
5.165,-0.016
5.166,-0.022
5.167,-0.025
5.168,-0.028
5.169,-0.031
5.170,-0.031
5.171,-0.031
5.172,-0.033
5.173,-0.031
5.174,-0.031
5.175,-0.031
5.176,-0.031
5.177,-0.034
5.178,-0.036
5.179,-0.041
5.180,-0.039
5.181,-0.041
5.182,-0.044
5.183,-0.044
5.184,-0.048
5.185,-0.050
5.186,-0.050
5.187,-0.050
5.188,-0.048
5.189,-0.050
5.190,-0.053
5.191,-0.053
5.192,-0.053
5.193,-0.053
5.194,-0.053
5.195,-0.053
5.196,-0.052
5.197,-0.050
5.198,-0.053
5.199,-0.050
5.200,-0.050
5.201,-0.050
5.202,-0.052
5.203,-0.053
5.204,-0.053
5.205,-0.053
5.206,-0.050
5.207,-0.053
5.208,-0.054
5.209,-0.053
5.210,-0.055
5.211,-0.053
5.212,-0.056
5.213,-0.056
5.214,-0.053
5.215,-0.053
5.216,-0.057
5.217,-0.056
5.218,-0.058
5.219,-0.056
5.220,-0.055
5.221,-0.053
5.222,-0.053
5.223,-0.050
5.224,-0.050
5.225,-0.050
5.226,-0.051
5.227,-0.053
5.228,-0.054
5.229,-0.053
5.230,-0.056
5.231,-0.059
5.232,-0.061
5.233,-0.063
5.234,-0.063
5.235,-0.066
5.236,-0.067
5.237,-0.069
5.238,-0.069
5.239,-0.069
5.240,-0.066
5.241,-0.066
5.242,-0.068
5.243,-0.069
5.244,-0.069
5.245,-0.072
5.246,-0.070
5.247,-0.072
5.248,-0.071
5.249,-0.069
5.250,-0.072
5.251,-0.072
5.252,-0.074
5.253,-0.072
5.254,-0.072
5.255,-0.072
5.256,-0.076
5.257,-0.081
5.258,-0.080
5.259,-0.078
5.260,-0.083
5.261,-0.084
5.262,-0.084
5.263,-0.084
5.264,-0.083
5.265,-0.081
5.266,-0.083
5.267,-0.081
5.268,-0.084
5.269,-0.084
5.270,-0.084
5.271,-0.084
5.272,-0.083
5.273,-0.081
5.274,-0.084
5.275,-0.084
5.276,-0.086
5.277,-0.091
5.278,-0.089
5.279,-0.091
5.280,-0.091
5.281,-0.091
5.282,-0.089
5.283,-0.091
5.284,-0.094
5.285,-0.097
5.286,-0.094
5.287,-0.094
5.288,-0.094
5.289,-0.094
5.290,-0.094
5.291,-0.094
5.292,-0.092
5.293,-0.091
5.294,-0.092
5.295,-0.094
5.296,-0.094
5.297,-0.097
5.298,-0.096
5.299,-0.094
5.300,-0.094
5.301,-0.097
5.302,-0.098
5.303,-0.100
5.304,-0.099
5.305,-0.097
5.306,-0.097
5.307,-0.094
5.308,-0.097
5.309,-0.097
5.310,-0.097
5.311,-0.100
5.312,-0.100
5.313,-0.100
5.314,-0.097
5.315,-0.094
5.316,-0.094
5.317,-0.094
5.318,-0.091
5.319,-0.091
5.320,-0.094
5.321,-0.094
5.322,-0.097
5.323,-0.097
5.324,-0.098
5.325,-0.100
5.326,-0.100
5.327,-0.097
5.328,-0.096
5.329,-0.097
5.330,-0.098
5.331,-0.097
5.332,-0.100
5.333,-0.100
5.334,-0.103
5.335,-0.103
5.336,-0.104
5.337,-0.103
5.338,-0.102
5.339,-0.100
5.340,-0.103
5.341,-0.103
5.342,-0.103
5.343,-0.103
5.344,-0.103
5.345,-0.103
5.346,-0.100
5.347,-0.103
5.348,-0.103
5.349,-0.103
5.350,-0.104
5.351,-0.106
5.352,-0.106
5.353,-0.103
5.354,-0.105
5.355,-0.103
5.356,-0.106
5.357,-0.103
5.358,-0.106
5.359,-0.106
5.360,-0.106
5.361,-0.106
5.362,-0.105
5.363,-0.106
5.364,-0.107
5.365,-0.106
5.366,-0.107
5.367,-0.106
5.368,-0.109
5.369,-0.106
5.370,-0.106
5.371,-0.106
5.372,-0.107
5.373,-0.109
5.374,-0.109
5.375,-0.109
5.376,-0.109
5.377,-0.109
5.378,-0.106
5.379,-0.100
5.380,-0.094
5.381,-0.088
5.382,-0.088
5.383,-0.088
5.384,-0.088
5.385,-0.084
5.386,-0.081
5.387,-0.072
5.388,-0.067
5.389,-0.066
5.390,-0.059
5.391,-0.053
5.392,-0.046
5.393,-0.041
5.394,-0.037
5.395,-0.034
5.396,-0.025
5.397,-0.019
5.398,-0.019
5.399,-0.019
5.400,-0.014
5.401,-0.019
5.402,-0.018
5.403,-0.019
5.404,-0.020
5.405,-0.025
5.406,-0.028
5.407,-0.031
5.408,-0.032
5.409,-0.034
5.410,-0.032
5.411,-0.034
5.412,-0.032
5.413,-0.028
5.414,-0.027
5.415,-0.016
5.416,-0.006
5.417,0.003
5.418,0.011
5.419,0.022
5.420,0.025
5.421,0.025
5.422,0.031
5.423,0.034
5.424,0.037
5.425,0.044
5.426,0.037
5.427,0.028
5.428,0.019
5.429,0.009
5.430,0.009
5.431,0.009
5.432,-0.003
5.433,-0.013
5.434,-0.022
5.435,-0.031
5.436,-0.042
5.437,-0.047
5.438,-0.049
5.439,-0.050
5.440,-0.061
5.441,-0.069
5.442,-0.073
5.443,-0.075
5.444,-0.078
5.445,-0.084
5.446,-0.086
5.447,-0.088
5.448,-0.097
5.449,-0.106
5.450,-0.114
5.451,-0.122
5.452,-0.124
5.453,-0.125
5.454,-0.125
5.455,-0.125
5.456,-0.119
5.457,-0.116
5.458,-0.116
5.459,-0.119
5.460,-0.122
5.461,-0.128
5.462,-0.133
5.463,-0.138
5.464,-0.141
5.465,-0.141
5.466,-0.143
5.467,-0.141
5.468,-0.139
5.469,-0.141
5.470,-0.144
5.471,-0.144
5.472,-0.145
5.473,-0.147
5.474,-0.151
5.475,-0.153
5.476,-0.154
5.477,-0.156
5.478,-0.158
5.479,-0.156
5.480,-0.161
5.481,-0.159
5.482,-0.159
5.483,-0.159
5.484,-0.157
5.485,-0.159
5.486,-0.156
5.487,-0.153
5.488,-0.153
5.489,-0.153
5.490,-0.150
5.491,-0.147
5.492,-0.151
5.493,-0.153
5.494,-0.154
5.495,-0.153
5.496,-0.150
5.497,-0.150
5.498,-0.150
5.499,-0.147
5.500,-0.146
5.501,-0.147
5.502,-0.147
5.503,-0.147
5.504,-0.147
5.505,-0.144
5.506,-0.145
5.507,-0.144
5.508,-0.148
5.509,-0.147
5.510,-0.146
5.511,-0.144
5.512,-0.144
5.513,-0.144
5.514,-0.144
5.515,-0.144
5.516,-0.144
5.517,-0.147
5.518,-0.149
5.519,-0.150
5.520,-0.152
5.521,-0.153
5.522,-0.153
5.523,-0.159
5.524,-0.161
5.525,-0.162
5.526,-0.169
5.527,-0.181
5.528,-0.194
5.529,-0.203
5.530,-0.211
5.531,-0.212
5.532,-0.214
5.533,-0.216
5.534,-0.209
5.535,-0.188
5.536,-0.167
5.537,-0.144
5.538,-0.128
5.539,-0.119
5.540,-0.097
5.541,-0.059
5.542,-0.003
5.543,0.063
5.544,0.134
5.545,0.209
5.546,0.292
5.547,0.378
5.548,0.473
5.549,0.584
5.550,0.712
5.551,0.853
5.552,0.989
5.553,1.113
5.554,1.217
5.555,1.312
5.556,1.406
5.557,1.503
5.558,1.600
5.559,1.691
5.560,1.783
5.561,1.866
5.562,1.941
5.563,2.009
5.564,2.051
5.565,2.038
5.566,1.963
5.567,1.850
5.568,1.718
5.569,1.572
5.570,1.418
5.571,1.256
5.572,1.102
5.573,0.950
5.574,0.796
5.575,0.638
5.576,0.484
5.577,0.353
5.578,0.246
5.579,0.166
5.580,0.114
5.581,0.081
5.582,0.063
5.583,0.044
5.584,0.031
5.585,0.016
5.586,0.003
5.587,-0.013
5.588,-0.021
5.589,-0.025
5.590,-0.032
5.591,-0.037
5.592,-0.042
5.593,-0.047
5.594,-0.053
5.595,-0.059
5.596,-0.064
5.597,-0.069
5.598,-0.071
5.599,-0.072
5.600,-0.075
5.601,-0.081
5.602,-0.083
5.603,-0.088
5.604,-0.091
5.605,-0.094
5.606,-0.098
5.607,-0.100
5.608,-0.101
5.609,-0.103
5.610,-0.106
5.611,-0.112
5.612,-0.119
5.613,-0.119
5.614,-0.119
5.615,-0.119
5.616,-0.121
5.617,-0.119
5.618,-0.122
5.619,-0.122
5.620,-0.121
5.621,-0.119
5.622,-0.125
5.623,-0.125
5.624,-0.126
5.625,-0.128
5.626,-0.122
5.627,-0.119
5.628,-0.120
5.629,-0.119
5.630,-0.122
5.631,-0.122
5.632,-0.122
5.633,-0.122
5.634,-0.123
5.635,-0.125
5.636,-0.125
5.637,-0.125
5.638,-0.125
5.639,-0.125
5.640,-0.126
5.641,-0.128
5.642,-0.125
5.643,-0.122
5.644,-0.123
5.645,-0.122
5.646,-0.125
5.647,-0.125
5.648,-0.123
5.649,-0.125
5.650,-0.127
5.651,-0.125
5.652,-0.125
5.653,-0.122
5.654,-0.122
5.655,-0.122
5.656,-0.125
5.657,-0.125
5.658,-0.122
5.659,-0.122
5.660,-0.123
5.661,-0.125
5.662,-0.122
5.663,-0.125
5.664,-0.126
5.665,-0.128
5.666,-0.125
5.667,-0.122
5.668,-0.121
5.669,-0.119
5.670,-0.114
5.671,-0.112
5.672,-0.108
5.673,-0.109
5.674,-0.109
5.675,-0.109
5.676,-0.105
5.677,-0.106
5.678,-0.106
5.679,-0.106
5.680,-0.106
5.681,-0.106
5.682,-0.111
5.683,-0.109
5.684,-0.108
5.685,-0.106
5.686,-0.106
5.687,-0.106
5.688,-0.099
5.689,-0.094
5.690,-0.095
5.691,-0.097
5.692,-0.097
5.693,-0.094
5.694,-0.098
5.695,-0.097
5.696,-0.099
5.697,-0.097
5.698,-0.095
5.699,-0.094
5.700,-0.091
5.701,-0.088
5.702,-0.089
5.703,-0.091
5.704,-0.091
5.705,-0.094
5.706,-0.095
5.707,-0.097
5.708,-0.094
5.709,-0.094
5.710,-0.097
5.711,-0.094
5.712,-0.092
5.713,-0.088
5.714,-0.092
5.715,-0.091
5.716,-0.089
5.717,-0.088
5.718,-0.086
5.719,-0.084
5.720,-0.086
5.721,-0.084
5.722,-0.083
5.723,-0.078
5.724,-0.076
5.725,-0.075
5.726,-0.075
5.727,-0.075
5.728,-0.076
5.729,-0.078
5.730,-0.077
5.731,-0.075
5.732,-0.073
5.733,-0.072
5.734,-0.072
5.735,-0.072
5.736,-0.071
5.737,-0.069
5.738,-0.069
5.739,-0.066
5.740,-0.066
5.741,-0.066
5.742,-0.063
5.743,-0.056
5.744,-0.056
5.745,-0.056
5.746,-0.053
5.747,-0.050
5.748,-0.051
5.749,-0.050
5.750,-0.047
5.751,-0.047
5.752,-0.050
5.753,-0.050
5.754,-0.048
5.755,-0.050
5.756,-0.049
5.757,-0.044
5.758,-0.042
5.759,-0.041
5.760,-0.042
5.761,-0.041
5.762,-0.037
5.763,-0.037
5.764,-0.033
5.765,-0.034
5.766,-0.031
5.767,-0.031
5.768,-0.028
5.769,-0.028
5.770,-0.026
5.771,-0.028
5.772,-0.022
5.773,-0.016
5.774,-0.016
5.775,-0.016
5.776,-0.017
5.777,-0.019
5.778,-0.017
5.779,-0.019
5.780,-0.016
5.781,-0.013
5.782,-0.016
5.783,-0.016
5.784,-0.013
5.785,-0.013
5.786,-0.008
5.787,-0.006
5.788,0.000
5.789,0.003
5.790,0.003
5.791,0.003
5.792,0.006
5.793,0.009
5.794,0.013
5.795,0.016
5.796,0.019
5.797,0.019
5.798,0.018
5.799,0.019
5.800,0.018
5.801,0.016
5.802,0.016
5.803,0.016
5.804,0.018
5.805,0.016
5.806,0.017
5.807,0.019
5.808,0.022
5.809,0.025
5.810,0.024
5.811,0.025
5.812,0.028
5.813,0.031
5.814,0.031
5.815,0.031
5.816,0.034
5.817,0.041
5.818,0.039
5.819,0.044
5.820,0.042
5.821,0.044
5.822,0.046
5.823,0.044
5.824,0.042
5.825,0.041
5.826,0.041
5.827,0.041
5.828,0.042
5.829,0.041
5.830,0.042
5.831,0.044
5.832,0.047
5.833,0.047
5.834,0.047
5.835,0.047
5.836,0.050
5.837,0.053
5.838,0.059
5.839,0.069
5.840,0.072
5.841,0.075
5.842,0.077
5.843,0.075
5.844,0.077
5.845,0.078
5.846,0.078
5.847,0.078
5.848,0.081
5.849,0.081
5.850,0.083
5.851,0.084
5.852,0.089
5.853,0.094
5.854,0.097
5.855,0.100
5.856,0.100
5.857,0.100
5.858,0.109
5.859,0.116
5.860,0.120
5.861,0.125
5.862,0.131
5.863,0.131
5.864,0.136
5.865,0.138
5.866,0.134
5.867,0.138
5.868,0.136
5.869,0.134
5.870,0.136
5.871,0.138
5.872,0.138
5.873,0.138
5.874,0.134
5.875,0.134
5.876,0.134
5.877,0.128
5.878,0.131
5.879,0.128
5.880,0.131
5.881,0.134
5.882,0.134
5.883,0.134
5.884,0.134
5.885,0.131
5.886,0.131
5.887,0.128
5.888,0.128
5.889,0.125
5.890,0.125
5.891,0.125
5.892,0.119
5.893,0.116
5.894,0.114
5.895,0.112
5.896,0.109
5.897,0.106
5.898,0.102
5.899,0.097
5.900,0.093
5.901,0.088
5.902,0.081
5.903,0.078
5.904,0.071
5.905,0.069
5.906,0.067
5.907,0.066
5.908,0.061
5.909,0.063
5.910,0.058
5.911,0.053
5.912,0.049
5.913,0.044
5.914,0.041
5.915,0.034
5.916,0.033
5.917,0.025
5.918,0.022
5.919,0.019
5.920,0.014
5.921,0.013
5.922,0.013
5.923,0.013
5.924,0.003
5.925,-0.003
5.926,-0.002
5.927,-0.006
5.928,-0.006
5.929,-0.009
5.930,-0.009
5.931,-0.009
5.932,-0.013
5.933,-0.013
5.934,-0.016
5.935,-0.016
5.936,-0.017
5.937,-0.019
5.938,-0.022
5.939,-0.022
5.940,-0.025
5.941,-0.028
5.942,-0.028
5.943,-0.028
5.944,-0.031
5.945,-0.031
5.946,-0.036
5.947,-0.041
5.948,-0.039
5.949,-0.041
5.950,-0.042
5.951,-0.047
5.952,-0.042
5.953,-0.041
5.954,-0.041
5.955,-0.037
5.956,-0.037
5.957,-0.034
5.958,-0.041
5.959,-0.047
5.960,-0.045
5.961,-0.047
5.962,-0.050
5.963,-0.050
5.964,-0.050
5.965,-0.050
5.966,-0.051
5.967,-0.053
5.968,-0.053
5.969,-0.053
5.970,-0.057
5.971,-0.056
5.972,-0.055
5.973,-0.053
5.974,-0.055
5.975,-0.056
5.976,-0.057
5.977,-0.059
5.978,-0.056
5.979,-0.059
5.980,-0.058
5.981,-0.053
5.982,-0.056
5.983,-0.056
5.984,-0.059
5.985,-0.059
5.986,-0.056
5.987,-0.056
5.988,-0.063
5.989,-0.063
5.990,-0.066
5.991,-0.066
5.992,-0.064
5.993,-0.063
5.994,-0.066
5.995,-0.066
5.996,-0.066
5.997,-0.066
5.998,-0.066
5.999,-0.066
6.000,-0.064
6.001,-0.059
6.002,-0.061
6.003,-0.063
6.004,-0.064
6.005,-0.066
6.006,-0.066
6.007,-0.069
6.008,-0.069
6.009,-0.069
6.010,-0.069
6.011,-0.069
6.012,-0.069
6.013,-0.072
6.014,-0.075
6.015,-0.078
6.016,-0.078
6.017,-0.081
6.018,-0.079
6.019,-0.081
6.020,-0.081
6.021,-0.081
6.022,-0.083
6.023,-0.081
6.024,-0.083
6.025,-0.081
6.026,-0.080
6.027,-0.078
6.028,-0.079
6.029,-0.081
6.030,-0.081
6.031,-0.081
6.032,-0.083
6.033,-0.081
6.034,-0.080
6.035,-0.078
6.036,-0.081
6.037,-0.084
6.038,-0.088
6.039,-0.088
6.040,-0.092
6.041,-0.094
6.042,-0.094
6.043,-0.094
6.044,-0.094
6.045,-0.094
6.046,-0.097
6.047,-0.097
6.048,-0.092
6.049,-0.091
6.050,-0.088
6.051,-0.088
6.052,-0.088
6.053,-0.088
6.054,-0.086
6.055,-0.088
6.056,-0.088
6.057,-0.088
6.058,-0.088
6.059,-0.091
6.060,-0.091
6.061,-0.091
6.062,-0.089
6.063,-0.088
6.064,-0.088
6.065,-0.088
6.066,-0.091
6.067,-0.094
6.068,-0.092
6.069,-0.094
6.070,-0.095
6.071,-0.097
6.072,-0.097
6.073,-0.100
6.074,-0.099
6.075,-0.097
6.076,-0.096
6.077,-0.094
6.078,-0.098
6.079,-0.100
6.080,-0.100
6.081,-0.097
6.082,-0.097
6.083,-0.100
6.084,-0.101
6.085,-0.103
6.086,-0.103
6.087,-0.103
6.088,-0.104
6.089,-0.106
6.090,-0.105
6.091,-0.106
6.092,-0.109
6.093,-0.109
6.094,-0.109
6.095,-0.106
6.096,-0.106
6.097,-0.106
6.098,-0.105
6.099,-0.106
6.100,-0.104
6.101,-0.109
6.102,-0.106
6.103,-0.109
6.104,-0.106
6.105,-0.109
6.106,-0.109
6.107,-0.109
6.108,-0.107
6.109,-0.109
6.110,-0.109
6.111,-0.109
6.112,-0.112
6.113,-0.112
6.114,-0.111
6.115,-0.112
6.116,-0.112
6.117,-0.109
6.118,-0.111
6.119,-0.109
6.120,-0.112
6.121,-0.112
6.122,-0.114
6.123,-0.112
6.124,-0.109
6.125,-0.106
6.126,-0.108
6.127,-0.106
6.128,-0.106
6.129,-0.106
6.130,-0.111
6.131,-0.116
6.132,-0.111
6.133,-0.112
6.134,-0.111
6.135,-0.109
6.136,-0.112
6.137,-0.116
6.138,-0.116
6.139,-0.112
6.140,-0.112
6.141,-0.109
6.142,-0.112
6.143,-0.109
6.144,-0.112
6.145,-0.112
6.146,-0.112
6.147,-0.112
6.148,-0.111
6.149,-0.112
6.150,-0.114
6.151,-0.112
6.152,-0.112
6.153,-0.109
6.154,-0.114
6.155,-0.112
6.156,-0.116
6.157,-0.119
6.158,-0.119
6.159,-0.119
6.160,-0.116
6.161,-0.112
6.162,-0.111
6.163,-0.109
6.164,-0.106
6.165,-0.100
6.166,-0.094
6.167,-0.088
6.168,-0.089
6.169,-0.091
6.170,-0.092
6.171,-0.091
6.172,-0.089
6.173,-0.081
6.174,-0.074
6.175,-0.069
6.176,-0.063
6.177,-0.056
6.178,-0.050
6.179,-0.047
6.180,-0.044
6.181,-0.041
6.182,-0.034
6.183,-0.031
6.184,-0.032
6.185,-0.034
6.186,-0.030
6.187,-0.034
6.188,-0.034
6.189,-0.037
6.190,-0.034
6.191,-0.034
6.192,-0.036
6.193,-0.037
6.194,-0.041
6.195,-0.044
6.196,-0.041
6.197,-0.041
6.198,-0.037
6.199,-0.031
6.200,-0.025
6.201,-0.009
6.202,0.001
6.203,0.013
6.204,0.014
6.205,0.019
6.206,0.018
6.207,0.013
6.208,0.019
6.209,0.022
6.210,0.019
6.211,0.019
6.212,0.017
6.213,0.013
6.214,0.008
6.215,0.003
6.216,0.001
6.217,0.000
6.218,-0.014
6.219,-0.025
6.220,-0.037
6.221,-0.050
6.222,-0.064
6.223,-0.072
6.224,-0.077
6.225,-0.081
6.226,-0.088
6.227,-0.091
6.228,-0.094
6.229,-0.094
6.230,-0.096
6.231,-0.100
6.232,-0.109
6.233,-0.119
6.234,-0.122
6.235,-0.125
6.236,-0.127
6.237,-0.128
6.238,-0.133
6.239,-0.138
6.240,-0.133
6.241,-0.128
6.242,-0.126
6.243,-0.128
6.244,-0.128
6.245,-0.131
6.246,-0.136
6.247,-0.144
6.248,-0.144
6.249,-0.144
6.250,-0.147
6.251,-0.147
6.252,-0.151
6.253,-0.153
6.254,-0.150
6.255,-0.150
6.256,-0.154
6.257,-0.156
6.258,-0.156
6.259,-0.156
6.260,-0.161
6.261,-0.162
6.262,-0.162
6.263,-0.162
6.264,-0.164
6.265,-0.162
6.266,-0.167
6.267,-0.166
6.268,-0.164
6.269,-0.162
6.270,-0.161
6.271,-0.162
6.272,-0.162
6.273,-0.162
6.274,-0.162
6.275,-0.162
6.276,-0.161
6.277,-0.159
6.278,-0.162
6.279,-0.162
6.280,-0.164
6.281,-0.162
6.282,-0.159
6.283,-0.159
6.284,-0.161
6.285,-0.159
6.286,-0.156
6.287,-0.156
6.288,-0.155
6.289,-0.153
6.290,-0.154
6.291,-0.153
6.292,-0.152
6.293,-0.147
6.294,-0.149
6.295,-0.144
6.296,-0.143
6.297,-0.141
6.298,-0.141
6.299,-0.141
6.300,-0.147
6.301,-0.153
6.302,-0.152
6.303,-0.153
6.304,-0.156
6.305,-0.159
6.306,-0.159
6.307,-0.159
6.308,-0.161
6.309,-0.169
6.310,-0.172
6.311,-0.175
6.312,-0.177
6.313,-0.184
6.314,-0.197
6.315,-0.206
6.316,-0.216
6.317,-0.219
6.318,-0.219
6.319,-0.219
6.320,-0.219
6.321,-0.203
6.322,-0.186
6.323,-0.166
6.324,-0.144
6.325,-0.128
6.326,-0.100
6.327,-0.056
6.328,0.001
6.329,0.069
6.330,0.145
6.331,0.225
6.332,0.311
6.333,0.400
6.334,0.498
6.335,0.613
6.336,0.744
6.337,0.887
6.338,1.016
6.339,1.131
6.340,1.233
6.341,1.325
6.342,1.422
6.343,1.522
6.344,1.624
6.345,1.719
6.346,1.812
6.347,1.897
6.348,1.956
6.349,2.009
6.350,2.027
6.351,1.987
6.352,1.908
6.353,1.791
6.354,1.647
6.355,1.491
6.356,1.341
6.357,1.184
6.358,1.030
6.359,0.878
6.360,0.724
6.361,0.566
6.362,0.417
6.363,0.291
6.364,0.197
6.365,0.131
6.366,0.088
6.367,0.063
6.368,0.042
6.369,0.022
6.370,0.009
6.371,-0.006
6.372,-0.013
6.373,-0.022
6.374,-0.031
6.375,-0.037
6.376,-0.042
6.377,-0.044
6.378,-0.047
6.379,-0.050
6.380,-0.056
6.381,-0.063
6.382,-0.066
6.383,-0.069
6.384,-0.075
6.385,-0.081
6.386,-0.088
6.387,-0.097
6.388,-0.100
6.389,-0.106
6.390,-0.106
6.391,-0.106
6.392,-0.109
6.393,-0.109
6.394,-0.111
6.395,-0.112
6.396,-0.114
6.397,-0.119
6.398,-0.122
6.399,-0.119
6.400,-0.119
6.401,-0.119
6.402,-0.123
6.403,-0.125
6.404,-0.128
6.405,-0.128
6.406,-0.127
6.407,-0.125
6.408,-0.128
6.409,-0.125
6.410,-0.125
6.411,-0.125
6.412,-0.126
6.413,-0.131
6.414,-0.134
6.415,-0.134
6.416,-0.138
6.417,-0.138
6.418,-0.138
6.419,-0.138
6.420,-0.138
6.421,-0.138
6.422,-0.134
6.423,-0.131
6.424,-0.133
6.425,-0.134
6.426,-0.134
6.427,-0.134
6.428,-0.134
6.429,-0.134
6.430,-0.133
6.431,-0.128
6.432,-0.130
6.433,-0.128
6.434,-0.125
6.435,-0.125
6.436,-0.127
6.437,-0.125
6.438,-0.128
6.439,-0.128
6.440,-0.128
6.441,-0.128
6.442,-0.130
6.443,-0.128
6.444,-0.125
6.445,-0.125
6.446,-0.125
6.447,-0.125
6.448,-0.122
6.449,-0.125
6.450,-0.122
6.451,-0.119
6.452,-0.119
6.453,-0.119
6.454,-0.120
6.455,-0.122
6.456,-0.119
6.457,-0.119
6.458,-0.116
6.459,-0.119
6.460,-0.119
6.461,-0.119
6.462,-0.114
6.463,-0.116
6.464,-0.114
6.465,-0.112
6.466,-0.112
6.467,-0.112
6.468,-0.117
6.469,-0.116
6.470,-0.111
6.471,-0.106
6.472,-0.105
6.473,-0.103
6.474,-0.101
6.475,-0.103
6.476,-0.103
6.477,-0.103
6.478,-0.103
6.479,-0.100
6.480,-0.104
6.481,-0.103
6.482,-0.106
6.483,-0.106
6.484,-0.100
6.485,-0.094
6.486,-0.097
6.487,-0.100
6.488,-0.101
6.489,-0.103
6.490,-0.101
6.491,-0.103
6.492,-0.103
6.493,-0.103
6.494,-0.101
6.495,-0.103
6.496,-0.102
6.497,-0.094
6.498,-0.092
6.499,-0.088
6.500,-0.089
6.501,-0.084
6.502,-0.084
6.503,-0.084
6.504,-0.084
6.505,-0.084
6.506,-0.088
6.507,-0.088
6.508,-0.088
6.509,-0.084
6.510,-0.084
6.511,-0.084
6.512,-0.086
6.513,-0.088
6.514,-0.088
6.515,-0.088
6.516,-0.084
6.517,-0.081
6.518,-0.079
6.519,-0.078
6.520,-0.075
6.521,-0.072
6.522,-0.072
6.523,-0.072
6.524,-0.071
6.525,-0.066
6.526,-0.066
6.527,-0.066
6.528,-0.067
6.529,-0.066
6.530,-0.067
6.531,-0.069
6.532,-0.066
6.533,-0.063
6.534,-0.063
6.535,-0.059
6.536,-0.055
6.537,-0.053
6.538,-0.056
6.539,-0.056
6.540,-0.052
6.541,-0.050
6.542,-0.046
6.543,-0.037
6.544,-0.036
6.545,-0.034
6.546,-0.036
6.547,-0.034
6.548,-0.031
6.549,-0.031
6.550,-0.027
6.551,-0.028
6.552,-0.025
6.553,-0.025
6.554,-0.025
6.555,-0.028
6.556,-0.025
6.557,-0.025
6.558,-0.022
6.559,-0.019
6.560,-0.016
6.561,-0.013
6.562,-0.013
6.563,-0.013
6.564,-0.011
6.565,-0.013
6.566,-0.011
6.567,-0.009
6.568,-0.006
6.569,0.000
6.570,0.002
6.571,0.000
6.572,0.003
6.573,0.003
6.574,0.006
6.575,0.006
6.576,0.005
6.577,0.003
6.578,0.006
6.579,0.009
6.580,0.009
6.581,0.009
6.582,0.011
6.583,0.009
6.584,0.008
6.585,0.009
6.586,0.009
6.587,0.009
6.588,0.009
6.589,0.009
6.590,0.013
6.591,0.013
6.592,0.013
6.593,0.013
6.594,0.017
6.595,0.022
6.596,0.022
6.597,0.025
6.598,0.028
6.599,0.031
6.600,0.031
6.601,0.031
6.602,0.030
6.603,0.031
6.604,0.028
6.605,0.031
6.606,0.030
6.607,0.031
6.608,0.037
6.609,0.041
6.610,0.039
6.611,0.037
6.612,0.041
6.613,0.044
6.614,0.046
6.615,0.044
6.616,0.044
6.617,0.044
6.618,0.050
6.619,0.053
6.620,0.056
6.621,0.059
6.622,0.061
6.623,0.063
6.624,0.063
6.625,0.066
6.626,0.068
6.627,0.069
6.628,0.073
6.629,0.075
6.630,0.075
6.631,0.075
6.632,0.075
6.633,0.075
6.634,0.081
6.635,0.084
6.636,0.088
6.637,0.091
6.638,0.093
6.639,0.094
6.640,0.096
6.641,0.097
6.642,0.100
6.643,0.103
6.644,0.106
6.645,0.106
6.646,0.109
6.647,0.112
6.648,0.117
6.649,0.116
6.650,0.117
6.651,0.116
6.652,0.117
6.653,0.125
6.654,0.125
6.655,0.125
6.656,0.125
6.657,0.125
6.658,0.128
6.659,0.131
6.660,0.129
6.661,0.131
6.662,0.134
6.663,0.131
6.664,0.134
6.665,0.131
6.666,0.133
6.667,0.134
6.668,0.134
6.669,0.134
6.670,0.134
6.671,0.131
6.672,0.130
6.673,0.125
6.674,0.125
6.675,0.122
6.676,0.119
6.677,0.116
6.678,0.112
6.679,0.112
6.680,0.111
6.681,0.109
6.682,0.106
6.683,0.103
6.684,0.101
6.685,0.100
6.686,0.096
6.687,0.091
6.688,0.084
6.689,0.081
6.690,0.075
6.691,0.075
6.692,0.073
6.693,0.072
6.694,0.064
6.695,0.063
6.696,0.056
6.697,0.050
6.698,0.047
6.699,0.044
6.700,0.041
6.701,0.034
6.702,0.037
6.703,0.034
6.704,0.028
6.705,0.022
6.706,0.016
6.707,0.013
6.708,0.013
6.709,0.013
6.710,0.006
6.711,0.003
6.712,0.004
6.713,0.000
6.714,0.000
6.715,-0.003
6.716,-0.005
6.717,-0.006
6.718,-0.014
6.719,-0.019
6.720,-0.023
6.721,-0.025
6.722,-0.025
6.723,-0.025
6.724,-0.028
6.725,-0.028
6.726,-0.028
6.727,-0.028
6.728,-0.029
6.729,-0.031
6.730,-0.039
6.731,-0.044
6.732,-0.044
6.733,-0.044
6.734,-0.039
6.735,-0.037
6.736,-0.036
6.737,-0.037
6.738,-0.033
6.739,-0.031
6.740,-0.033
6.741,-0.031
6.742,-0.034
6.743,-0.034
6.744,-0.034
6.745,-0.034
6.746,-0.034
6.747,-0.037
6.748,-0.044
6.749,-0.047
6.750,-0.047
6.751,-0.047
6.752,-0.047
6.753,-0.047
6.754,-0.047
6.755,-0.047
6.756,-0.050
6.757,-0.047
6.758,-0.047
6.759,-0.047
6.760,-0.049
6.761,-0.050
6.762,-0.050
6.763,-0.050
6.764,-0.047
6.765,-0.050
6.766,-0.051
6.767,-0.050
6.768,-0.052
6.769,-0.050
6.770,-0.054
6.771,-0.056
6.772,-0.054
6.773,-0.056
6.774,-0.061
6.775,-0.059
6.776,-0.061
6.777,-0.059
6.778,-0.058
6.779,-0.056
6.780,-0.059
6.781,-0.059
6.782,-0.058
6.783,-0.056
6.784,-0.056
6.785,-0.056
6.786,-0.056
6.787,-0.053
6.788,-0.055
6.789,-0.056
6.790,-0.056
6.791,-0.056
6.792,-0.055
6.793,-0.056
6.794,-0.057
6.795,-0.059
6.796,-0.059
6.797,-0.059
6.798,-0.056
6.799,-0.056
6.800,-0.059
6.801,-0.063
6.802,-0.059
6.803,-0.059
6.804,-0.057
6.805,-0.059
6.806,-0.058
6.807,-0.056
6.808,-0.059
6.809,-0.059
6.810,-0.063
6.811,-0.063
6.812,-0.063
6.813,-0.063
6.814,-0.064
6.815,-0.066
6.816,-0.066
6.817,-0.066
6.818,-0.069
6.819,-0.069
6.820,-0.069
6.821,-0.069
6.822,-0.069
6.823,-0.069
6.824,-0.071
6.825,-0.069
6.826,-0.073
6.827,-0.075
6.828,-0.074
6.829,-0.072
6.830,-0.072
6.831,-0.072
6.832,-0.074
6.833,-0.072
6.834,-0.072
6.835,-0.075
6.836,-0.078
6.837,-0.084
6.838,-0.084
6.839,-0.084
6.840,-0.084
6.841,-0.088
6.842,-0.089
6.843,-0.091
6.844,-0.088
6.845,-0.088
6.846,-0.088
6.847,-0.088
6.848,-0.089
6.849,-0.091
6.850,-0.089
6.851,-0.088
6.852,-0.089
6.853,-0.091
6.854,-0.089
6.855,-0.091
6.856,-0.091
6.857,-0.091
6.858,-0.089
6.859,-0.091
6.860,-0.091
6.861,-0.091
6.862,-0.092
6.863,-0.094
6.864,-0.098
6.865,-0.100
6.866,-0.101
6.867,-0.100
6.868,-0.100
6.869,-0.103
6.870,-0.103
6.871,-0.103
6.872,-0.102
6.873,-0.100
6.874,-0.097
6.875,-0.094
6.876,-0.091
6.877,-0.091
6.878,-0.094
6.879,-0.094
6.880,-0.095
6.881,-0.094
6.882,-0.095
6.883,-0.097
6.884,-0.098
6.885,-0.097
6.886,-0.098
6.887,-0.103
6.888,-0.104
6.889,-0.103
6.890,-0.105
6.891,-0.103
6.892,-0.105
6.893,-0.103
6.894,-0.100
6.895,-0.094
6.896,-0.094
6.897,-0.094
6.898,-0.098
6.899,-0.100
6.900,-0.097
6.901,-0.094
6.902,-0.094
6.903,-0.094
6.904,-0.092
6.905,-0.097
6.906,-0.098
6.907,-0.100
6.908,-0.100
6.909,-0.100
6.910,-0.101
6.911,-0.100
6.912,-0.102
6.913,-0.100
6.914,-0.104
6.915,-0.103
6.916,-0.106
6.917,-0.106
6.918,-0.105
6.919,-0.103
6.920,-0.102
6.921,-0.103
6.922,-0.104
6.923,-0.103
6.924,-0.100
6.925,-0.094
6.926,-0.098
6.927,-0.097
6.928,-0.097
6.929,-0.097
6.930,-0.098
6.931,-0.100
6.932,-0.097
6.933,-0.094
6.934,-0.092
6.935,-0.091
6.936,-0.091
6.937,-0.088
6.938,-0.088
6.939,-0.088
6.940,-0.084
6.941,-0.081
6.942,-0.079
6.943,-0.075
6.944,-0.069
6.945,-0.056
6.946,-0.054
6.947,-0.056
6.948,-0.051
6.949,-0.047
6.950,-0.041
6.951,-0.037
6.952,-0.034
6.953,-0.031
6.954,-0.025
6.955,-0.022
6.956,-0.022
6.957,-0.022
6.958,-0.020
6.959,-0.028
6.960,-0.027
6.961,-0.028
6.962,-0.025
6.963,-0.025
6.964,-0.028
6.965,-0.031
6.966,-0.032
6.967,-0.034
6.968,-0.027
6.969,-0.022
6.970,-0.014
6.971,-0.003
6.972,0.000
6.973,0.013
6.974,0.022
6.975,0.031
6.976,0.033
6.977,0.037
6.978,0.036
6.979,0.031
6.980,0.033
6.981,0.031
6.982,0.027
6.983,0.025
6.984,0.023
6.985,0.019
6.986,0.019
6.987,0.019
6.988,0.017
6.989,0.016
6.990,-0.001
6.991,-0.016
6.992,-0.028
6.993,-0.041
6.994,-0.052
6.995,-0.056
6.996,-0.061
6.997,-0.066
6.998,-0.071
6.999,-0.072
7.000,-0.074
7.001,-0.072
7.002,-0.069
7.003,-0.069
7.004,-0.081
7.005,-0.094
7.006,-0.103
7.007,-0.112
7.008,-0.117
7.009,-0.122
7.010,-0.121
7.011,-0.119
7.012,-0.117
7.013,-0.116
7.014,-0.116
7.015,-0.119
7.016,-0.117
7.017,-0.119
7.018,-0.119
7.019,-0.122
7.020,-0.123
7.021,-0.125
7.022,-0.127
7.023,-0.125
7.024,-0.128
7.025,-0.128
7.026,-0.128
7.027,-0.131
7.028,-0.138
7.029,-0.141
7.030,-0.141
7.031,-0.141
7.032,-0.144
7.033,-0.144
7.034,-0.143
7.035,-0.141
7.036,-0.143
7.037,-0.141
7.038,-0.145
7.039,-0.144
7.040,-0.144
7.041,-0.144
7.042,-0.141
7.043,-0.141
7.044,-0.141
7.045,-0.141
7.046,-0.142
7.047,-0.144
7.048,-0.143
7.049,-0.141
7.050,-0.144
7.051,-0.144
7.052,-0.145
7.053,-0.144
7.054,-0.141
7.055,-0.141
7.056,-0.142
7.057,-0.141
7.058,-0.139
7.059,-0.141
7.060,-0.141
7.061,-0.141
7.062,-0.142
7.063,-0.141
7.064,-0.142
7.065,-0.141
7.066,-0.144
7.067,-0.141
7.068,-0.141
7.069,-0.141
7.070,-0.136
7.071,-0.131
7.072,-0.133
7.073,-0.134
7.074,-0.133
7.075,-0.134
7.076,-0.138
7.077,-0.141
7.078,-0.143
7.079,-0.144
7.080,-0.147
7.081,-0.156
7.082,-0.159
7.083,-0.162
7.084,-0.169
7.085,-0.181
7.086,-0.195
7.087,-0.206
7.088,-0.212
7.089,-0.212
7.090,-0.211
7.091,-0.209
7.092,-0.206
7.093,-0.188
7.094,-0.170
7.095,-0.150
7.096,-0.130
7.097,-0.116
7.098,-0.095
7.099,-0.059
7.100,-0.011
7.101,0.047
7.102,0.125
7.103,0.206
7.104,0.294
7.105,0.384
7.106,0.478
7.107,0.587
7.108,0.716
7.109,0.856
7.110,0.984
7.111,1.100
7.112,1.199
7.113,1.288
7.114,1.387
7.115,1.491
7.116,1.598
7.117,1.700
7.118,1.797
7.119,1.884
7.120,1.942
7.121,1.994
7.122,1.997
7.123,1.944
7.124,1.859
7.125,1.737
7.126,1.605
7.127,1.459
7.128,1.312
7.129,1.159
7.130,1.009
7.131,0.863
7.132,0.714
7.133,0.563
7.134,0.411
7.135,0.281
7.136,0.186
7.137,0.119
7.138,0.083
7.139,0.066
7.140,0.056
7.141,0.047
7.142,0.036
7.143,0.022
7.144,0.013
7.145,0.000
7.146,-0.009
7.147,-0.016
7.148,-0.022
7.149,-0.025
7.150,-0.032
7.151,-0.041
7.152,-0.050
7.153,-0.059
7.154,-0.064
7.155,-0.069
7.156,-0.075
7.157,-0.081
7.158,-0.081
7.159,-0.084
7.160,-0.086
7.161,-0.091
7.162,-0.089
7.163,-0.088
7.164,-0.094
7.165,-0.097
7.166,-0.101
7.167,-0.106
7.168,-0.106
7.169,-0.109
7.170,-0.117
7.171,-0.119
7.172,-0.121
7.173,-0.122
7.174,-0.122
7.175,-0.119
7.176,-0.122
7.177,-0.122
7.178,-0.122
7.179,-0.122
7.180,-0.124
7.181,-0.119
7.182,-0.117
7.183,-0.116
7.184,-0.116
7.185,-0.119
7.186,-0.119
7.187,-0.116
7.188,-0.119
7.189,-0.119
7.190,-0.120
7.191,-0.122
7.192,-0.121
7.193,-0.119
7.194,-0.120
7.195,-0.122
7.196,-0.123
7.197,-0.125
7.198,-0.122
7.199,-0.119
7.200,-0.119
7.201,-0.119
7.202,-0.120
7.203,-0.119
7.204,-0.121
7.205,-0.119
7.206,-0.114
7.207,-0.112
7.208,-0.116
7.209,-0.116
7.210,-0.117
7.211,-0.116
7.212,-0.112
7.213,-0.109
7.214,-0.112
7.215,-0.112
7.216,-0.111
7.217,-0.112
7.218,-0.112
7.219,-0.112
7.220,-0.108
7.221,-0.109
7.222,-0.109
7.223,-0.109
7.224,-0.109
7.225,-0.109
7.226,-0.111
7.227,-0.112
7.228,-0.111
7.229,-0.112
7.230,-0.108
7.231,-0.109
7.232,-0.109
7.233,-0.109
7.234,-0.106
7.235,-0.109
7.236,-0.109
7.237,-0.109
7.238,-0.106
7.239,-0.103
7.240,-0.106
7.241,-0.103
7.242,-0.103
7.243,-0.103
7.244,-0.103
7.245,-0.103
7.246,-0.101
7.247,-0.103
7.248,-0.103
7.249,-0.103
7.250,-0.103
7.251,-0.100
7.252,-0.104
7.253,-0.103
7.254,-0.106
7.255,-0.106
7.256,-0.100
7.257,-0.094
7.258,-0.092
7.259,-0.091
7.260,-0.092
7.261,-0.094
7.262,-0.092
7.263,-0.094
7.264,-0.094
7.265,-0.094
7.266,-0.091
7.267,-0.091
7.268,-0.097
7.269,-0.097
7.270,-0.098
7.271,-0.097
7.272,-0.097
7.273,-0.091
7.274,-0.089
7.275,-0.088
7.276,-0.086
7.277,-0.084
7.278,-0.084
7.279,-0.081
7.280,-0.081
7.281,-0.078
7.282,-0.078
7.283,-0.078
7.284,-0.074
7.285,-0.069
7.286,-0.070
7.287,-0.072
7.288,-0.073
7.289,-0.075
7.290,-0.073
7.291,-0.072
7.292,-0.072
7.293,-0.072
7.294,-0.069
7.295,-0.066
7.296,-0.067
7.297,-0.066
7.298,-0.066
7.299,-0.066
7.300,-0.064
7.301,-0.059
7.302,-0.059
7.303,-0.059
7.304,-0.056
7.305,-0.053
7.306,-0.053
7.307,-0.050
7.308,-0.046
7.309,-0.044
7.310,-0.048
7.311,-0.050
7.312,-0.047
7.313,-0.047
7.314,-0.047
7.315,-0.044
7.316,-0.039
7.317,-0.034
7.318,-0.036
7.319,-0.034
7.320,-0.032
7.321,-0.034
7.322,-0.031
7.323,-0.034
7.324,-0.031
7.325,-0.031
7.326,-0.027
7.327,-0.025
7.328,-0.022
7.329,-0.022
7.330,-0.022
7.331,-0.022
7.332,-0.023
7.333,-0.025
7.334,-0.025
7.335,-0.025
7.336,-0.021
7.337,-0.019
7.338,-0.014
7.339,-0.009
7.340,-0.013
7.341,-0.013
7.342,-0.013
7.343,-0.016
7.344,-0.011
7.345,-0.009
7.346,-0.006
7.347,-0.006
7.348,-0.003
7.349,0.000
7.350,0.002
7.351,0.003
7.352,0.002
7.353,0.000
7.354,0.003
7.355,0.003
7.356,0.003
7.357,0.006
7.358,0.006
7.359,0.006
7.360,0.009
7.361,0.013
7.362,0.017
7.363,0.019
7.364,0.019
7.365,0.019
7.366,0.018
7.367,0.016
7.368,0.014
7.369,0.016
7.370,0.020
7.371,0.025
7.372,0.028
7.373,0.031
7.374,0.030
7.375,0.031
7.376,0.027
7.377,0.028
7.378,0.025
7.379,0.025
7.380,0.031
7.381,0.034
7.382,0.034
7.383,0.034
7.384,0.034
7.385,0.034
7.386,0.036
7.387,0.034
7.388,0.034
7.389,0.034
7.390,0.039
7.391,0.041
7.392,0.041
7.393,0.041
7.394,0.048
7.395,0.056
7.396,0.055
7.397,0.056
7.398,0.061
7.399,0.066
7.400,0.069
7.401,0.069
7.402,0.072
7.403,0.075
7.404,0.075
7.405,0.075
7.406,0.078
7.407,0.078
7.408,0.078
7.409,0.078
7.410,0.078
7.411,0.078
7.412,0.083
7.413,0.088
7.414,0.092
7.415,0.097
7.416,0.101
7.417,0.103
7.418,0.107
7.419,0.112
7.420,0.117
7.421,0.116
7.422,0.119
7.423,0.119
7.424,0.116
7.425,0.119
7.426,0.122
7.427,0.125
7.428,0.125
7.429,0.125
7.430,0.126
7.431,0.128
7.432,0.125
7.433,0.125
7.434,0.128
7.435,0.125
7.436,0.129
7.437,0.128
7.438,0.127
7.439,0.125
7.440,0.124
7.441,0.122
7.442,0.123
7.443,0.122
7.444,0.125
7.445,0.125
7.446,0.125
7.447,0.122
7.448,0.114
7.449,0.106
7.450,0.103
7.451,0.103
7.452,0.101
7.453,0.100
7.454,0.097
7.455,0.094
7.456,0.092
7.457,0.091
7.458,0.089
7.459,0.088
7.460,0.078
7.461,0.072
7.462,0.064
7.463,0.063
7.464,0.056
7.465,0.050
7.466,0.042
7.467,0.041
7.468,0.036
7.469,0.031
7.470,0.027
7.471,0.022
7.472,0.019
7.473,0.013
7.474,0.013
7.475,0.006
7.476,0.004
7.477,0.003
7.478,0.000
7.479,0.000
7.480,-0.001
7.481,-0.003
7.482,-0.009
7.483,-0.013
7.484,-0.011
7.485,-0.016
7.486,-0.016
7.487,-0.019
7.488,-0.021
7.489,-0.022
7.490,-0.024
7.491,-0.022
7.492,-0.028
7.493,-0.031
7.494,-0.032
7.495,-0.034
7.496,-0.036
7.497,-0.034
7.498,-0.037
7.499,-0.041
7.500,-0.039
7.501,-0.037
7.502,-0.044
7.503,-0.047
7.504,-0.047
7.505,-0.047
7.506,-0.047
7.507,-0.050
7.508,-0.050
7.509,-0.053
7.510,-0.050
7.511,-0.050
7.512,-0.052
7.513,-0.050
7.514,-0.056
7.515,-0.059
7.516,-0.059
7.517,-0.059
7.518,-0.056
7.519,-0.056
7.520,-0.058
7.521,-0.056
7.522,-0.056
7.523,-0.056
7.524,-0.055
7.525,-0.053
7.526,-0.052
7.527,-0.050
7.528,-0.052
7.529,-0.047
7.530,-0.047
7.531,-0.047
7.532,-0.049
7.533,-0.050
7.534,-0.051
7.535,-0.053
7.536,-0.049
7.537,-0.050
7.538,-0.051
7.539,-0.050
7.540,-0.052
7.541,-0.050
7.542,-0.054
7.543,-0.056
7.544,-0.049
7.545,-0.044
7.546,-0.048
7.547,-0.047
7.548,-0.054
7.549,-0.059
7.550,-0.058
7.551,-0.056
7.552,-0.061
7.553,-0.063
7.554,-0.064
7.555,-0.066
7.556,-0.066
7.557,-0.066
7.558,-0.066
7.559,-0.063
7.560,-0.064
7.561,-0.066
7.562,-0.061
7.563,-0.056
7.564,-0.059
7.565,-0.066
7.566,-0.066
7.567,-0.066
7.568,-0.067
7.569,-0.069
7.570,-0.064
7.571,-0.063
7.572,-0.064
7.573,-0.066
7.574,-0.064
7.575,-0.066
7.576,-0.064
7.577,-0.066
7.578,-0.067
7.579,-0.069
7.580,-0.071
7.581,-0.069
7.582,-0.072
7.583,-0.072
7.584,-0.072
7.585,-0.072
7.586,-0.072
7.587,-0.072
7.588,-0.072
7.589,-0.072
7.590,-0.076
7.591,-0.078
7.592,-0.077
7.593,-0.075
7.594,-0.075
7.595,-0.075
7.596,-0.077
7.597,-0.075
7.598,-0.079
7.599,-0.081
7.600,-0.081
7.601,-0.081
7.602,-0.080
7.603,-0.078
7.604,-0.081
7.605,-0.081
7.606,-0.081
7.607,-0.084
7.608,-0.083
7.609,-0.084
7.610,-0.083
7.611,-0.081
7.612,-0.080
7.613,-0.081
7.614,-0.084
7.615,-0.088
7.616,-0.086
7.617,-0.088
7.618,-0.092
7.619,-0.097
7.620,-0.100
7.621,-0.103
7.622,-0.103
7.623,-0.103
7.624,-0.105
7.625,-0.106
7.626,-0.104
7.627,-0.106
7.628,-0.103
7.629,-0.100
7.630,-0.094
7.631,-0.091
7.632,-0.091
7.633,-0.091
7.634,-0.092
7.635,-0.094
7.636,-0.091
7.637,-0.091
7.638,-0.094
7.639,-0.094
7.640,-0.091
7.641,-0.094
7.642,-0.094
7.643,-0.097
7.644,-0.098
7.645,-0.100
7.646,-0.098
7.647,-0.100
7.648,-0.100
7.649,-0.103
7.650,-0.104
7.651,-0.106
7.652,-0.105
7.653,-0.103
7.654,-0.104
7.655,-0.103
7.656,-0.105
7.657,-0.103
7.658,-0.103
7.659,-0.103
7.660,-0.103
7.661,-0.103
7.662,-0.100
7.663,-0.103
7.664,-0.102
7.665,-0.103
7.666,-0.100
7.667,-0.103
7.668,-0.104
7.669,-0.106
7.670,-0.105
7.671,-0.103
7.672,-0.106
7.673,-0.106
7.674,-0.104
7.675,-0.106
7.676,-0.103
7.677,-0.106
7.678,-0.104
7.679,-0.106
7.680,-0.106
7.681,-0.106
7.682,-0.103
7.683,-0.100
7.684,-0.099
7.685,-0.097
7.686,-0.098
7.687,-0.097
7.688,-0.094
7.689,-0.094
7.690,-0.092
7.691,-0.094
7.692,-0.092
7.693,-0.088
7.694,-0.083
7.695,-0.081
7.696,-0.069
7.697,-0.059
7.698,-0.057
7.699,-0.053
7.700,-0.046
7.701,-0.037
7.702,-0.036
7.703,-0.031
7.704,-0.028
7.705,-0.028
7.706,-0.025
7.707,-0.019
7.708,-0.016
7.709,-0.013
7.710,-0.022
7.711,-0.025
7.712,-0.028
7.713,-0.028
7.714,-0.030
7.715,-0.031
7.716,-0.039
7.717,-0.044
7.718,-0.044
7.719,-0.041
7.720,-0.041
7.721,-0.034
7.722,-0.018
7.723,-0.009
7.724,0.006
7.725,0.022
7.726,0.027
7.727,0.028
7.728,0.036
7.729,0.037
7.730,0.037
7.731,0.041
7.732,0.034
7.733,0.028
7.734,0.028
7.735,0.022
7.736,0.019
7.737,0.016
7.738,0.011
7.739,0.009
7.740,0.009
7.741,0.000
7.742,-0.009
7.743,-0.022
7.744,-0.033
7.745,-0.044
7.746,-0.053
7.747,-0.063
7.748,-0.070
7.749,-0.078
7.750,-0.080
7.751,-0.081
7.752,-0.081
7.753,-0.084
7.754,-0.092
7.755,-0.100
7.756,-0.106
7.757,-0.112
7.758,-0.117
7.759,-0.119
7.760,-0.117
7.761,-0.116
7.762,-0.117
7.763,-0.116
7.764,-0.120
7.765,-0.122
7.766,-0.123
7.767,-0.125
7.768,-0.128
7.769,-0.131
7.770,-0.142
7.771,-0.147
7.772,-0.146
7.773,-0.147
7.774,-0.146
7.775,-0.147
7.776,-0.146
7.777,-0.144
7.778,-0.144
7.779,-0.144
7.780,-0.145
7.781,-0.147
7.782,-0.146
7.783,-0.147
7.784,-0.150
7.785,-0.153
7.786,-0.156
7.787,-0.162
7.788,-0.161
7.789,-0.162
7.790,-0.161
7.791,-0.162
7.792,-0.162
7.793,-0.159
7.794,-0.159
7.795,-0.159
7.796,-0.155
7.797,-0.150
7.798,-0.150
7.799,-0.150
7.800,-0.151
7.801,-0.156
7.802,-0.157
7.803,-0.159
7.804,-0.157
7.805,-0.156
7.806,-0.152
7.807,-0.147
7.808,-0.143
7.809,-0.141
7.810,-0.144
7.811,-0.144
7.812,-0.147
7.813,-0.150
7.814,-0.148
7.815,-0.150
7.816,-0.147
7.817,-0.150
7.818,-0.147
7.819,-0.147
7.820,-0.147
7.821,-0.147
7.822,-0.147
7.823,-0.147
7.824,-0.144
7.825,-0.141
7.826,-0.145
7.827,-0.150
7.828,-0.153
7.829,-0.156
7.830,-0.162
7.831,-0.169
7.832,-0.181
7.833,-0.191
7.834,-0.198
7.835,-0.203
7.836,-0.208
7.837,-0.216
7.838,-0.225
7.839,-0.234
7.840,-0.239
7.841,-0.241
7.842,-0.237
7.843,-0.231
7.844,-0.209
7.845,-0.188
7.846,-0.169
7.847,-0.153
7.848,-0.136
7.849,-0.109
7.850,-0.076
7.851,-0.025
7.852,0.036
7.853,0.103
7.854,0.186
7.855,0.281
7.856,0.376
7.857,0.475
7.858,0.587
7.859,0.716
7.860,0.844
7.861,0.966
7.862,1.074
7.863,1.163
7.864,1.254
7.865,1.353
7.866,1.461
7.867,1.572
7.868,1.678
7.869,1.788
7.870,1.886
7.871,1.966
7.872,1.999
7.873,1.991
7.874,1.936
7.875,1.828
7.876,1.705
7.877,1.572
7.878,1.434
7.879,1.291
7.880,1.139
7.881,0.994
7.882,0.844
7.883,0.688
7.884,0.530
7.885,0.375
7.886,0.251
7.887,0.153
7.888,0.094
7.889,0.069
7.890,0.051
7.891,0.044
7.892,0.034
7.893,0.028
7.894,0.016
7.895,0.009
7.896,-0.002
7.897,-0.009
7.898,-0.020
7.899,-0.031
7.900,-0.037
7.901,-0.047
7.902,-0.052
7.903,-0.056
7.904,-0.067
7.905,-0.075
7.906,-0.075
7.907,-0.078
7.908,-0.081
7.909,-0.081
7.910,-0.089
7.911,-0.094
7.912,-0.100
7.913,-0.100
7.914,-0.099
7.915,-0.100
7.916,-0.103
7.917,-0.106
7.918,-0.107
7.919,-0.109
7.920,-0.111
7.921,-0.112
7.922,-0.111
7.923,-0.116
7.924,-0.120
7.925,-0.125
7.926,-0.125
7.927,-0.128
7.928,-0.127
7.929,-0.125
7.930,-0.125
7.931,-0.128
7.932,-0.126
7.933,-0.128
7.934,-0.129
7.935,-0.131
7.936,-0.136
7.937,-0.138
7.938,-0.136
7.939,-0.141
7.940,-0.141
7.941,-0.141
7.942,-0.141
7.943,-0.141
7.944,-0.138
7.945,-0.134
7.946,-0.134
7.947,-0.134
7.948,-0.133
7.949,-0.131
7.950,-0.131
7.951,-0.131
7.952,-0.131
7.953,-0.131
7.954,-0.129
7.955,-0.134
7.956,-0.138
7.957,-0.138
7.958,-0.138
7.959,-0.141
7.960,-0.139
7.961,-0.138
7.962,-0.133
7.963,-0.128
7.964,-0.122
7.965,-0.122
7.966,-0.123
7.967,-0.122
7.968,-0.122
7.969,-0.122
7.970,-0.123
7.971,-0.122
7.972,-0.125
7.973,-0.125
7.974,-0.126
7.975,-0.128
7.976,-0.129
7.977,-0.131
7.978,-0.133
7.979,-0.131
7.980,-0.130
7.981,-0.125
7.982,-0.127
7.983,-0.125
7.984,-0.126
7.985,-0.125
7.986,-0.127
7.987,-0.122
7.988,-0.120
7.989,-0.122
7.990,-0.119
7.991,-0.119
7.992,-0.116
7.993,-0.116
7.994,-0.112
7.995,-0.109
7.996,-0.111
7.997,-0.109
7.998,-0.109
7.999,-0.109
8.000,-0.109
8.001,-0.109
8.002,-0.106
8.003,-0.109
8.004,-0.106
8.005,-0.109
8.006,-0.111
8.007,-0.109
8.008,-0.107
8.009,-0.109
8.010,-0.109
8.011,-0.109
8.012,-0.106
8.013,-0.100
8.014,-0.100
8.015,-0.100
8.016,-0.099
8.017,-0.094
8.018,-0.092
8.019,-0.094
8.020,-0.092
8.021,-0.094
8.022,-0.091
8.023,-0.094
8.024,-0.094
8.025,-0.097
8.026,-0.097
8.027,-0.094
8.028,-0.089
8.029,-0.091
8.030,-0.091
8.031,-0.091
8.032,-0.086
8.033,-0.081
8.034,-0.078
8.035,-0.078
8.036,-0.078
8.037,-0.078
8.038,-0.079
8.039,-0.081
8.040,-0.080
8.041,-0.075
8.042,-0.069
8.043,-0.066
8.044,-0.066
8.045,-0.066
8.046,-0.067
8.047,-0.069
8.048,-0.066
8.049,-0.066
8.050,-0.067
8.051,-0.069
8.052,-0.066
8.053,-0.066
8.054,-0.067
8.055,-0.066
8.056,-0.063
8.057,-0.063
8.058,-0.061
8.059,-0.059
8.060,-0.058
8.061,-0.059
8.062,-0.058
8.063,-0.053
8.064,-0.052
8.065,-0.050
8.066,-0.048
8.067,-0.050
8.068,-0.050
8.069,-0.050
8.070,-0.048
8.071,-0.047
8.072,-0.046
8.073,-0.041
8.074,-0.045
8.075,-0.044
8.076,-0.044
8.077,-0.041
8.078,-0.037
8.079,-0.031
8.080,-0.030
8.081,-0.025
8.082,-0.019
8.083,-0.016
8.084,-0.016
8.085,-0.016
8.086,-0.016
8.087,-0.013
8.088,-0.014
8.089,-0.013
8.090,-0.005
8.091,-0.003
8.092,-0.009
8.093,-0.013
8.094,-0.014
8.095,-0.013
8.096,-0.014
8.097,-0.013
8.098,-0.011
8.099,-0.009
8.100,-0.006
8.101,0.000
8.102,0.002
8.103,0.000
8.104,0.000
8.105,0.003
8.106,0.003
8.107,0.003
8.108,0.005
8.109,0.003
8.110,0.003
8.111,0.003
8.112,0.006
8.113,0.013
8.114,0.013
8.115,0.013
8.116,0.011
8.117,0.009
8.118,0.009
8.119,0.009
8.120,0.011
8.121,0.013
8.122,0.014
8.123,0.013
8.124,0.016
8.125,0.019
8.126,0.023
8.127,0.022
8.128,0.025
8.129,0.025
8.130,0.027
8.131,0.028
8.132,0.028
8.133,0.028
8.134,0.028
8.135,0.028
8.136,0.028
8.137,0.031
8.138,0.036
8.139,0.041
8.140,0.039
8.141,0.041
8.142,0.039
8.143,0.041
8.144,0.042
8.145,0.044
8.146,0.046
8.147,0.044
8.148,0.048
8.149,0.053
8.150,0.057
8.151,0.063
8.152,0.061
8.153,0.063
8.154,0.064
8.155,0.066
8.156,0.072
8.157,0.078
8.158,0.078
8.159,0.078
8.160,0.077
8.161,0.078
8.162,0.083
8.163,0.088
8.164,0.091
8.165,0.094
8.166,0.094
8.167,0.094
8.168,0.094
8.169,0.097
8.170,0.100
8.171,0.106
8.172,0.109
8.173,0.116
8.174,0.114
8.175,0.112
8.176,0.117
8.177,0.116
8.178,0.116
8.179,0.119
8.180,0.123
8.181,0.125
8.182,0.126
8.183,0.125
8.184,0.126
8.185,0.131
8.186,0.125
8.187,0.125
8.188,0.122
8.189,0.122
8.190,0.122
8.191,0.122
8.192,0.116
8.193,0.109
8.194,0.106
8.195,0.106
8.196,0.103
8.197,0.103
8.198,0.100
8.199,0.097
8.200,0.093
8.201,0.088
8.202,0.088
8.203,0.084
8.204,0.083
8.205,0.081
8.206,0.075
8.207,0.069
8.208,0.063
8.209,0.056
8.210,0.053
8.211,0.047
8.212,0.045
8.213,0.041
8.214,0.041
8.215,0.037
8.216,0.034
8.217,0.028
8.218,0.029
8.219,0.028
8.220,0.025
8.221,0.022
8.222,0.020
8.223,0.019
8.224,0.009
8.225,0.006
8.226,0.001
8.227,0.000
8.228,-0.002
8.229,-0.006
8.230,-0.009
8.231,-0.009
8.232,-0.008
8.233,-0.013
8.234,-0.017
8.235,-0.019
8.236,-0.028
8.237,-0.031
8.238,-0.033
8.239,-0.034
8.240,-0.036
8.241,-0.037
8.242,-0.036
8.243,-0.037
8.244,-0.036
8.245,-0.034
8.246,-0.033
8.247,-0.034
8.248,-0.037
8.249,-0.044
8.250,-0.046
8.251,-0.044
8.252,-0.044
8.253,-0.047
8.254,-0.048
8.255,-0.050
8.256,-0.050
8.257,-0.050
8.258,-0.054
8.259,-0.056
8.260,-0.061
8.261,-0.059
8.262,-0.053
8.263,-0.050
8.264,-0.049
8.265,-0.050
8.266,-0.051
8.267,-0.053
8.268,-0.053
8.269,-0.050
8.270,-0.049
8.271,-0.050
8.272,-0.050
8.273,-0.050
8.274,-0.050
8.275,-0.050
8.276,-0.050
8.277,-0.050
8.278,-0.050
8.279,-0.053
8.280,-0.051
8.281,-0.053
8.282,-0.053
8.283,-0.056
8.284,-0.058
8.285,-0.056
8.286,-0.057
8.287,-0.056
8.288,-0.059
8.289,-0.059
8.290,-0.056
8.291,-0.059
8.292,-0.058
8.293,-0.059
8.294,-0.059
8.295,-0.056
8.296,-0.055
8.297,-0.056
8.298,-0.053
8.299,-0.056
8.300,-0.057
8.301,-0.059
8.302,-0.056
8.303,-0.056
8.304,-0.057
8.305,-0.059
8.306,-0.063
8.307,-0.066
8.308,-0.066
8.309,-0.066
8.310,-0.064
8.311,-0.069
8.312,-0.071
8.313,-0.069
8.314,-0.069
8.315,-0.069
8.316,-0.071
8.317,-0.069
8.318,-0.069
8.319,-0.069
8.320,-0.069
8.321,-0.066
8.322,-0.066
8.323,-0.069
8.324,-0.071
8.325,-0.069
8.326,-0.072
8.327,-0.069
8.328,-0.069
8.329,-0.069
8.330,-0.069
8.331,-0.072
8.332,-0.076
8.333,-0.084
8.334,-0.084
8.335,-0.084
8.336,-0.084
8.337,-0.084
8.338,-0.086
8.339,-0.088
8.340,-0.086
8.341,-0.088
8.342,-0.088
8.343,-0.088
8.344,-0.089
8.345,-0.091
8.346,-0.089
8.347,-0.091
8.348,-0.089
8.349,-0.091
8.350,-0.094
8.351,-0.097
8.352,-0.098
8.353,-0.100
8.354,-0.099
8.355,-0.100
8.356,-0.101
8.357,-0.103
8.358,-0.106
8.359,-0.103
8.360,-0.103
8.361,-0.103
8.362,-0.099
8.363,-0.094
8.364,-0.100
8.365,-0.103
8.366,-0.105
8.367,-0.106
8.368,-0.105
8.369,-0.100
8.370,-0.099
8.371,-0.100
8.372,-0.103
8.373,-0.103
8.374,-0.105
8.375,-0.103
8.376,-0.106
8.377,-0.106
8.378,-0.107
8.379,-0.106
8.380,-0.106
8.381,-0.106
8.382,-0.111
8.383,-0.112
8.384,-0.112
8.385,-0.112
8.386,-0.114
8.387,-0.116
8.388,-0.112
8.389,-0.116
8.390,-0.116
8.391,-0.116
8.392,-0.116
8.393,-0.116
8.394,-0.116
8.395,-0.112
8.396,-0.114
8.397,-0.112
8.398,-0.117
8.399,-0.116
8.400,-0.119
8.401,-0.119
8.402,-0.117
8.403,-0.116
8.404,-0.116
8.405,-0.119
8.406,-0.117
8.407,-0.112
8.408,-0.114
8.409,-0.112
8.410,-0.117
8.411,-0.116
8.412,-0.114
8.413,-0.112
8.414,-0.112
8.415,-0.112
8.416,-0.111
8.417,-0.109
8.418,-0.109
8.419,-0.109
8.420,-0.107
8.421,-0.103
8.422,-0.103
8.423,-0.103
8.424,-0.100
8.425,-0.097
8.426,-0.089
8.427,-0.078
8.428,-0.072
8.429,-0.059
8.430,-0.052
8.431,-0.047
8.432,-0.041
8.433,-0.034
8.434,-0.029
8.435,-0.028
8.436,-0.019
8.437,-0.009
8.438,-0.008
8.439,-0.009
8.440,-0.016
8.441,-0.022
8.442,-0.018
8.443,-0.022
8.444,-0.019
8.445,-0.019
8.446,-0.018
8.447,-0.019
8.448,-0.018
8.449,-0.016
8.450,-0.008
8.451,0.000
8.452,0.003
8.453,0.003
8.454,0.008
8.455,0.016
8.456,0.020
8.457,0.034
8.458,0.039
8.459,0.044
8.460,0.042
8.461,0.044
8.462,0.050
8.463,0.053
8.464,0.052
8.465,0.047
8.466,0.044
8.467,0.044
8.468,0.044
8.469,0.041
8.470,0.033
8.471,0.025
8.472,0.013
8.473,0.000
8.474,-0.009
8.475,-0.016
8.476,-0.025
8.477,-0.034
8.478,-0.046
8.479,-0.050
8.480,-0.055
8.481,-0.059
8.482,-0.066
8.483,-0.069
8.484,-0.078
8.485,-0.084
8.486,-0.092
8.487,-0.103
8.488,-0.114
8.489,-0.125
8.490,-0.127
8.491,-0.128
8.492,-0.125
8.493,-0.122
8.494,-0.124
8.495,-0.125
8.496,-0.128
8.497,-0.131
8.498,-0.129
8.499,-0.131
8.500,-0.133
8.501,-0.138
8.502,-0.141
8.503,-0.147
8.504,-0.147
8.505,-0.147
8.506,-0.149
8.507,-0.147
8.508,-0.150
8.509,-0.150
8.510,-0.147
8.511,-0.147
8.512,-0.150
8.513,-0.150
8.514,-0.154
8.515,-0.159
8.516,-0.161
8.517,-0.159
8.518,-0.159
8.519,-0.159
8.520,-0.164
8.521,-0.166
8.522,-0.169
8.523,-0.166
8.524,-0.166
8.525,-0.166
8.526,-0.164
8.527,-0.166
8.528,-0.166
8.529,-0.166
8.530,-0.166
8.531,-0.166
8.532,-0.164
8.533,-0.162
8.534,-0.166
8.535,-0.166
8.536,-0.166
8.537,-0.162
8.538,-0.159
8.539,-0.159
8.540,-0.161
8.541,-0.159
8.542,-0.158
8.543,-0.159
8.544,-0.159
8.545,-0.159
8.546,-0.162
8.547,-0.162
8.548,-0.162
8.549,-0.159
8.550,-0.162
8.551,-0.159
8.552,-0.159
8.553,-0.159
8.554,-0.161
8.555,-0.162
8.556,-0.162
8.557,-0.162
8.558,-0.161
8.559,-0.162
8.560,-0.162
8.561,-0.162
8.562,-0.166
8.563,-0.169
8.564,-0.172
8.565,-0.181
8.566,-0.191
8.567,-0.200
8.568,-0.204
8.569,-0.216
8.570,-0.224
8.571,-0.228
8.572,-0.234
8.573,-0.234
8.574,-0.228
8.575,-0.222
8.576,-0.208
8.577,-0.178
8.578,-0.164
8.579,-0.147
8.580,-0.119
8.581,-0.097
8.582,-0.058
8.583,-0.003
8.584,0.056
8.585,0.125
8.586,0.206
8.587,0.291
8.588,0.383
8.589,0.478
8.590,0.587
8.591,0.712
8.592,0.834
8.593,0.969
8.594,1.084
8.595,1.188
8.596,1.291
8.597,1.384
8.598,1.478
8.599,1.575
8.600,1.671
8.601,1.759
8.602,1.849
8.603,1.928
8.604,1.969
8.605,2.003
8.606,1.989
8.607,1.919
8.608,1.827
8.609,1.697
8.610,1.552
8.611,1.394
8.612,1.243
8.613,1.084
8.614,0.927
8.615,0.772
8.616,0.626
8.617,0.478
8.618,0.351
8.619,0.247
8.620,0.161
8.621,0.103
8.622,0.058
8.623,0.031
8.624,0.020
8.625,0.009
8.626,0.000
8.627,-0.013
8.628,-0.019
8.629,-0.028
8.630,-0.034
8.631,-0.037
8.632,-0.042
8.633,-0.044
8.634,-0.047
8.635,-0.050
8.636,-0.059
8.637,-0.069
8.638,-0.076
8.639,-0.084
8.640,-0.086
8.641,-0.088
8.642,-0.089
8.643,-0.094
8.644,-0.097
8.645,-0.103
8.646,-0.104
8.647,-0.106
8.648,-0.112
8.649,-0.116
8.650,-0.117
8.651,-0.119
8.652,-0.117
8.653,-0.119
8.654,-0.122
8.655,-0.119
8.656,-0.121
8.657,-0.122
8.658,-0.125
8.659,-0.125
8.660,-0.129
8.661,-0.131
8.662,-0.128
8.663,-0.125
8.664,-0.129
8.665,-0.128
8.666,-0.128
8.667,-0.128
8.668,-0.129
8.669,-0.134
8.670,-0.136
8.671,-0.134
8.672,-0.138
8.673,-0.138
8.674,-0.138
8.675,-0.138
8.676,-0.134
8.677,-0.131
8.678,-0.131
8.679,-0.131
8.680,-0.130
8.681,-0.128
8.682,-0.128
8.683,-0.128
8.684,-0.129
8.685,-0.131
8.686,-0.133
8.687,-0.131
8.688,-0.136
8.689,-0.138
8.690,-0.134
8.691,-0.134
8.692,-0.138
8.693,-0.138
8.694,-0.138
8.695,-0.134
8.696,-0.130
8.697,-0.125
8.698,-0.129
8.699,-0.131
8.700,-0.128
8.701,-0.128
8.702,-0.129
8.703,-0.131
8.704,-0.128
8.705,-0.131
8.706,-0.130
8.707,-0.128
8.708,-0.128
8.709,-0.128
8.710,-0.131
8.711,-0.134
8.712,-0.133
8.713,-0.134
8.714,-0.127
8.715,-0.125
8.716,-0.126
8.717,-0.128
8.718,-0.125
8.719,-0.128
8.720,-0.126
8.721,-0.125
8.722,-0.124
8.723,-0.122
8.724,-0.126
8.725,-0.125
8.726,-0.122
8.727,-0.119
8.728,-0.119
8.729,-0.119
8.730,-0.114
8.731,-0.112
8.732,-0.112
8.733,-0.112
8.734,-0.112
8.735,-0.109
8.736,-0.114
8.737,-0.112
8.738,-0.116
8.739,-0.116
8.740,-0.112
8.741,-0.109
8.742,-0.108
8.743,-0.106
8.744,-0.107
8.745,-0.109
8.746,-0.106
8.747,-0.106
8.748,-0.107
8.749,-0.109
8.750,-0.105
8.751,-0.103
8.752,-0.106
8.753,-0.103
8.754,-0.103
8.755,-0.100
8.756,-0.100
8.757,-0.094
8.758,-0.094
8.759,-0.094
8.760,-0.091
8.761,-0.088
8.762,-0.086
8.763,-0.081
8.764,-0.084
8.765,-0.084
8.766,-0.083
8.767,-0.081
8.768,-0.080
8.769,-0.078
8.770,-0.075
8.771,-0.072
8.772,-0.072
8.773,-0.072
8.774,-0.072
8.775,-0.072
8.776,-0.072
8.777,-0.072
8.778,-0.069
8.779,-0.066
8.780,-0.067
8.781,-0.066
8.782,-0.067
8.783,-0.069
8.784,-0.070
8.785,-0.069
8.786,-0.069
8.787,-0.069
8.788,-0.069
8.789,-0.069
8.790,-0.070
8.791,-0.069
8.792,-0.063
8.793,-0.059
8.794,-0.061
8.795,-0.059
8.796,-0.055
8.797,-0.053
8.798,-0.053
8.799,-0.050
8.800,-0.049
8.801,-0.047
8.802,-0.048
8.803,-0.047
8.804,-0.042
8.805,-0.041
8.806,-0.037
8.807,-0.041
8.808,-0.037
8.809,-0.037
8.810,-0.034
8.811,-0.034
8.812,-0.031
8.813,-0.031
8.814,-0.029
8.815,-0.028
8.816,-0.022
8.817,-0.016
8.818,-0.014
8.819,-0.013
8.820,-0.011
8.821,-0.013
8.822,-0.011
8.823,-0.009
8.824,-0.013
8.825,-0.013
8.826,-0.006
8.827,-0.003
8.828,0.000
8.829,0.000
8.830,0.000
8.831,-0.003
8.832,-0.004
8.833,-0.006
8.834,-0.004
8.835,-0.003
8.836,-0.002
8.837,0.000
8.838,0.003
8.839,0.003
8.840,0.004
8.841,0.009
8.842,0.009
8.843,0.009
8.844,0.013
8.845,0.016
8.846,0.019
8.847,0.019
8.848,0.019
8.849,0.019
8.850,0.020
8.851,0.022
8.852,0.021
8.853,0.022
8.854,0.026
8.855,0.031
8.856,0.030
8.857,0.028
8.858,0.027
8.859,0.028
8.860,0.026
8.861,0.031
8.862,0.030
8.863,0.031
8.864,0.039
8.865,0.044
8.866,0.044
8.867,0.044
8.868,0.044
8.869,0.044
8.870,0.047
8.871,0.047
8.872,0.050
8.873,0.053
8.874,0.056
8.875,0.056
8.876,0.056
8.877,0.056
8.878,0.056
8.879,0.056
8.880,0.056
8.881,0.059
8.882,0.063
8.883,0.066
8.884,0.072
8.885,0.075
8.886,0.078
8.887,0.081
8.888,0.086
8.889,0.091
8.890,0.093
8.891,0.091
8.892,0.091
8.893,0.091
8.894,0.094
8.895,0.097
8.896,0.099
8.897,0.100
8.898,0.100
8.899,0.100
8.900,0.103
8.901,0.103
8.902,0.107
8.903,0.112
8.904,0.116
8.905,0.112
8.906,0.117
8.907,0.119
8.908,0.117
8.909,0.122
8.910,0.123
8.911,0.125
8.912,0.129
8.913,0.134
8.914,0.134
8.915,0.134
8.916,0.131
8.917,0.131
8.918,0.134
8.919,0.131
8.920,0.130
8.921,0.122
8.922,0.121
8.923,0.119
8.924,0.119
8.925,0.119
8.926,0.117
8.927,0.112
8.928,0.111
8.929,0.106
8.930,0.105
8.931,0.100
8.932,0.098
8.933,0.097
8.934,0.094
8.935,0.094
8.936,0.088
8.937,0.081
8.938,0.078
8.939,0.075
8.940,0.071
8.941,0.066
8.942,0.061
8.943,0.056
8.944,0.053
8.945,0.053
8.946,0.044
8.947,0.041
8.948,0.037
8.949,0.034
8.950,0.027
8.951,0.025
8.952,0.019
8.953,0.013
8.954,0.013
8.955,0.013
8.956,0.013
8.957,0.009
8.958,0.011
8.959,0.006
8.960,0.003
8.961,0.000
8.962,-0.006
8.963,-0.009
8.964,-0.011
8.965,-0.013
8.966,-0.020
8.967,-0.025
8.968,-0.025
8.969,-0.031
8.970,-0.030
8.971,-0.031
8.972,-0.036
8.973,-0.041
8.974,-0.044
8.975,-0.044
8.976,-0.047
8.977,-0.047
8.978,-0.046
8.979,-0.044
8.980,-0.046
8.981,-0.044
8.982,-0.044
8.983,-0.044
8.984,-0.045
8.985,-0.047
8.986,-0.051
8.987,-0.053
8.988,-0.053
8.989,-0.053
8.990,-0.053
8.991,-0.056
8.992,-0.055
8.993,-0.056
8.994,-0.054
8.995,-0.056
8.996,-0.058
8.997,-0.056
8.998,-0.061
8.999,-0.063
9.000,-0.066
9.001,-0.069
9.002,-0.066
9.003,-0.066
9.004,-0.068
9.005,-0.066
9.006,-0.066
9.007,-0.066
9.008,-0.066
9.009,-0.066
9.010,-0.066
9.011,-0.066
9.012,-0.069
9.013,-0.066
9.014,-0.066
9.015,-0.066
9.016,-0.068
9.017,-0.069
9.018,-0.069
9.019,-0.069
9.020,-0.066
9.021,-0.069
9.022,-0.069
9.023,-0.066
9.024,-0.068
9.025,-0.066
9.026,-0.069
9.027,-0.069
9.028,-0.064
9.029,-0.063
9.030,-0.067
9.031,-0.066
9.032,-0.069
9.033,-0.069
9.034,-0.070
9.035,-0.072
9.036,-0.074
9.037,-0.072
9.038,-0.072
9.039,-0.072
9.040,-0.072
9.041,-0.072
9.042,-0.075
9.043,-0.075
9.044,-0.075
9.045,-0.075
9.046,-0.074
9.047,-0.072
9.048,-0.071
9.049,-0.072
9.050,-0.073
9.051,-0.075
9.052,-0.075
9.053,-0.075
9.054,-0.073
9.055,-0.075
9.056,-0.077
9.057,-0.078
9.058,-0.077
9.059,-0.078
9.060,-0.076
9.061,-0.078
9.062,-0.081
9.063,-0.084
9.064,-0.086
9.065,-0.084
9.066,-0.089
9.067,-0.091
9.068,-0.091
9.069,-0.091
9.070,-0.091
9.071,-0.091
9.072,-0.091
9.073,-0.091
9.074,-0.094
9.075,-0.094
9.076,-0.094
9.077,-0.094
9.078,-0.094
9.079,-0.094
9.080,-0.096
9.081,-0.094
9.082,-0.097
9.083,-0.097
9.084,-0.097
9.085,-0.097
9.086,-0.100
9.087,-0.103
9.088,-0.105
9.089,-0.103
9.090,-0.104
9.091,-0.109
9.092,-0.106
9.093,-0.106
9.094,-0.107
9.095,-0.109
9.096,-0.108
9.097,-0.109
9.098,-0.109
9.099,-0.109
9.100,-0.108
9.101,-0.109
9.102,-0.106
9.103,-0.103
9.104,-0.104
9.105,-0.106
9.106,-0.106
9.107,-0.106
9.108,-0.109
9.109,-0.112
9.110,-0.108
9.111,-0.106
9.112,-0.106
9.113,-0.106
9.114,-0.105
9.115,-0.106
9.116,-0.108
9.117,-0.109
9.118,-0.109
9.119,-0.109
9.120,-0.109
9.121,-0.109
9.122,-0.109
9.123,-0.109
9.124,-0.106
9.125,-0.103
9.126,-0.103
9.127,-0.103
9.128,-0.104
9.129,-0.106
9.130,-0.106
9.131,-0.106
9.132,-0.109
9.133,-0.112
9.134,-0.116
9.135,-0.119
9.136,-0.119
9.137,-0.119
9.138,-0.119
9.139,-0.119
9.140,-0.119
9.141,-0.119
9.142,-0.117
9.143,-0.116
9.144,-0.116
9.145,-0.116
9.146,-0.114
9.147,-0.112
9.148,-0.112
9.149,-0.112
9.150,-0.112
9.151,-0.112
9.152,-0.112
9.153,-0.112
9.154,-0.116
9.155,-0.119
9.156,-0.119
9.157,-0.119
9.158,-0.117
9.159,-0.116
9.160,-0.117
9.161,-0.119
9.162,-0.116
9.163,-0.112
9.164,-0.114
9.165,-0.116
9.166,-0.116
9.167,-0.116
9.168,-0.111
9.169,-0.106
9.170,-0.103
9.171,-0.100
9.172,-0.094
9.173,-0.088
9.174,-0.084
9.175,-0.081
9.176,-0.077
9.177,-0.072
9.178,-0.064
9.179,-0.056
9.180,-0.050
9.181,-0.044
9.182,-0.037
9.183,-0.031
9.184,-0.025
9.185,-0.019
9.186,-0.016
9.187,-0.013
9.188,-0.011
9.189,-0.009
9.190,-0.009
9.191,-0.009
9.192,-0.014
9.193,-0.019
9.194,-0.023
9.195,-0.028
9.196,-0.028
9.197,-0.028
9.198,-0.027
9.199,-0.025
9.200,-0.019
9.201,-0.013
9.202,-0.009
9.203,-0.006
9.204,-0.002
9.205,0.003
9.206,0.011
9.207,0.019
9.208,0.023
9.209,0.028
9.210,0.031
9.211,0.034
9.212,0.041
9.213,0.047
9.214,0.042
9.215,0.037
9.216,0.025
9.217,0.013
9.218,0.008
9.219,0.003
9.220,0.003
9.221,0.003
9.222,-0.006
9.223,-0.016
9.224,-0.028
9.225,-0.041
9.226,-0.048
9.227,-0.056
9.228,-0.061
9.229,-0.066
9.230,-0.072
9.231,-0.078
9.232,-0.083
9.233,-0.088
9.234,-0.091
9.235,-0.094
9.236,-0.103
9.237,-0.112
9.238,-0.120
9.239,-0.128
9.240,-0.128
9.241,-0.128
9.242,-0.129
9.243,-0.131
9.244,-0.128
9.245,-0.125
9.246,-0.125
9.247,-0.125
9.248,-0.133
9.249,-0.141
9.250,-0.142
9.251,-0.144
9.252,-0.145
9.253,-0.147
9.254,-0.148
9.255,-0.150
9.256,-0.150
9.257,-0.150
9.258,-0.153
9.259,-0.156
9.260,-0.157
9.261,-0.159
9.262,-0.158
9.263,-0.156
9.264,-0.156
9.265,-0.156
9.266,-0.156
9.267,-0.156
9.268,-0.157
9.269,-0.159
9.270,-0.159
9.271,-0.159
9.272,-0.159
9.273,-0.159
9.274,-0.161
9.275,-0.162
9.276,-0.162
9.277,-0.162
9.278,-0.164
9.279,-0.166
9.280,-0.166
9.281,-0.166
9.282,-0.166
9.283,-0.166
9.284,-0.166
9.285,-0.166
9.286,-0.164
9.287,-0.162
9.288,-0.162
9.289,-0.162
9.290,-0.159
9.291,-0.156
9.292,-0.156
9.293,-0.156
9.294,-0.156
9.295,-0.156
9.296,-0.152
9.297,-0.147
9.298,-0.147
9.299,-0.147
9.300,-0.148
9.301,-0.150
9.302,-0.153
9.303,-0.156
9.304,-0.157
9.305,-0.159
9.306,-0.162
9.307,-0.166
9.308,-0.170
9.309,-0.175
9.310,-0.176
9.311,-0.178
9.312,-0.179
9.313,-0.181
9.314,-0.182
9.315,-0.184
9.316,-0.195
9.317,-0.206
9.318,-0.211
9.319,-0.216
9.320,-0.216
9.321,-0.216
9.322,-0.209
9.323,-0.203
9.324,-0.186
9.325,-0.169
9.326,-0.152
9.327,-0.134
9.328,-0.097
9.329,-0.059
9.330,0.004
9.331,0.069
9.332,0.144
9.333,0.219
9.334,0.303
9.335,0.388
9.336,0.491
9.337,0.594
9.338,0.725
9.339,0.856
9.340,0.689
9.341,0.522
9.342,0.261
9.343,0.000
9.344,0.000
9.345,0.000
9.346,0.000
9.347,0.000
9.348,0.478
9.349,0.956
9.350,1.476
9.351,1.997
9.352,1.997
9.353,1.997
9.354,1.903
9.355,1.809
9.356,1.675
9.357,1.541
9.358,1.384
9.359,1.228
9.360,1.075
9.361,0.922
9.362,0.766
9.363,0.609
9.364,0.475
9.365,0.341
9.366,0.252
9.367,0.162
9.368,0.122
9.369,0.081
9.370,0.059
9.371,0.037
9.372,0.024
9.373,0.009
9.374,-0.003
9.375,-0.016
9.376,-0.022
9.377,-0.028
9.378,-0.034
9.379,-0.041
9.380,-0.042
9.381,-0.044
9.382,-0.047
9.383,-0.050
9.384,-0.057
9.385,-0.066
9.386,-0.070
9.387,-0.075
9.388,-0.081
9.389,-0.088
9.390,-0.094
9.391,-0.100
9.392,-0.103
9.393,-0.106
9.394,-0.107
9.395,-0.109
9.396,-0.114
9.397,-0.119
9.398,-0.120
9.399,-0.122
9.400,-0.122
9.401,-0.122
9.402,-0.122
9.403,-0.122
9.404,-0.126
9.405,-0.131
9.406,-0.131
9.407,-0.131
9.408,-0.133
9.409,-0.134
9.410,-0.134
