'Elapsed time','II'
'seconds','mV'
0.000,-0.045
0.001,0.034
0.002,0.039
0.003,0.044
0.004,0.044
0.005,0.044
0.006,0.051
0.007,0.053
0.008,0.056
0.009,0.059
0.010,0.061
0.011,0.059
0.012,0.062
0.013,0.066
0.014,0.067
0.015,0.072
0.016,0.072
0.017,0.072
0.018,0.071
0.019,0.069
0.020,0.076
0.021,0.078
0.022,0.078
0.023,0.081
0.024,0.081
0.025,0.081
0.026,0.080
0.027,0.081
0.028,0.081
0.029,0.081
0.030,0.088
0.031,0.091
0.032,0.092
0.033,0.094
0.034,0.091
0.035,0.091
0.036,0.092
0.037,0.094
0.038,0.096
0.039,0.094
0.040,0.091
0.041,0.088
0.042,0.084
0.043,0.088
0.044,0.094
0.045,0.097
0.046,0.096
0.047,0.094
0.048,0.091
0.049,0.091
0.050,0.084
0.051,0.081
0.052,0.083
0.053,0.081
0.054,0.082
0.055,0.088
0.056,0.088
0.057,0.088
0.058,0.091
0.059,0.088
0.060,0.086
0.061,0.088
0.062,0.083
0.063,0.084
0.064,0.088
0.065,0.091
0.066,0.091
0.067,0.094
0.068,0.091
0.069,0.088
0.070,0.091
0.071,0.097
0.072,0.094
0.073,0.097
0.074,0.097
0.075,0.094
0.076,0.097
0.077,0.094
0.078,0.097
0.079,0.097
0.080,0.092
0.081,0.094
0.082,0.092
0.083,0.091
0.084,0.092
0.085,0.091
0.086,0.092
0.087,0.091
0.088,0.089
0.089,0.091
0.090,0.092
0.091,0.091
0.092,0.086
0.093,0.084
0.094,0.082
0.095,0.084
0.096,0.080
0.097,0.078
0.098,0.069
0.099,0.066
0.100,0.066
0.101,0.062
0.102,0.062
0.103,0.062
0.104,0.056
0.105,0.050
0.106,0.046
0.107,0.044
0.108,0.045
0.109,0.047
0.110,0.039
0.111,0.037
0.112,0.036
0.113,0.034
0.114,0.031
0.115,0.028
0.116,0.022
0.117,0.019
0.118,0.014
0.119,0.009
0.120,0.007
0.121,0.003
0.122,0.002
0.123,-0.003
0.124,-0.004
0.125,-0.009
0.126,-0.008
0.127,-0.009
0.128,-0.009
0.129,-0.013
0.130,-0.009
0.131,-0.013
0.132,-0.014
0.133,-0.016
0.134,-0.020
0.135,-0.025
0.136,-0.031
0.137,-0.034
0.138,-0.033
0.139,-0.034
0.140,-0.034
0.141,-0.034
0.142,-0.037
0.143,-0.037
0.144,-0.041
0.145,-0.044
0.146,-0.044
0.147,-0.047
0.148,-0.046
0.149,-0.047
0.150,-0.049
0.151,-0.047
0.152,-0.047
0.153,-0.047
0.154,-0.047
0.155,-0.047
0.156,-0.047
0.157,-0.044
0.158,-0.046
0.159,-0.044
0.160,-0.048
0.161,-0.050
0.162,-0.052
0.163,-0.053
0.164,-0.050
0.165,-0.050
0.166,-0.056
0.167,-0.059
0.168,-0.061
0.169,-0.062
0.170,-0.059
0.171,-0.056
0.172,-0.056
0.173,-0.056
0.174,-0.056
0.175,-0.053
0.176,-0.055
0.177,-0.053
0.178,-0.054
0.179,-0.053
0.180,-0.055
0.181,-0.056
0.182,-0.058
0.183,-0.059
0.184,-0.056
0.185,-0.056
0.186,-0.059
0.187,-0.059
0.188,-0.058
0.189,-0.059
0.190,-0.056
0.191,-0.053
0.192,-0.053
0.193,-0.053
0.194,-0.054
0.195,-0.056
0.196,-0.055
0.197,-0.053
0.198,-0.053
0.199,-0.053
0.200,-0.056
0.201,-0.056
0.202,-0.055
0.203,-0.053
0.204,-0.054
0.205,-0.056
0.206,-0.059
0.207,-0.066
0.208,-0.067
0.209,-0.069
0.210,-0.067
0.211,-0.066
0.212,-0.066
0.213,-0.069
0.214,-0.072
0.215,-0.072
0.216,-0.075
0.217,-0.075
0.218,-0.074
0.219,-0.072
0.220,-0.078
0.221,-0.081
0.222,-0.081
0.223,-0.075
0.224,-0.079
0.225,-0.081
0.226,-0.084
0.227,-0.088
0.228,-0.086
0.229,-0.088
0.230,-0.091
0.231,-0.094
0.232,-0.092
0.233,-0.091
0.234,-0.086
0.235,-0.084
0.236,-0.081
0.237,-0.084
0.238,-0.088
0.239,-0.088
0.240,-0.088
0.241,-0.088
0.242,-0.092
0.243,-0.097
0.244,-0.098
0.245,-0.100
0.246,-0.097
0.247,-0.097
0.248,-0.092
0.249,-0.094
0.250,-0.101
0.251,-0.103
0.252,-0.099
0.253,-0.094
0.254,-0.097
0.255,-0.103
0.256,-0.102
0.257,-0.100
0.258,-0.097
0.259,-0.097
0.260,-0.097
0.261,-0.097
0.262,-0.097
0.263,-0.097
0.264,-0.094
0.265,-0.094
0.266,-0.083
0.267,-0.078
0.268,-0.071
0.269,-0.066
0.270,-0.047
0.271,-0.034
0.272,-0.024
0.273,-0.016
0.274,-0.014
0.275,-0.009
0.276,-0.003
0.277,0.000
0.278,0.002
0.279,0.003
0.280,0.007
0.281,0.009
0.282,0.009
0.283,0.009
0.284,0.005
0.285,0.003
0.286,0.014
0.287,0.022
0.288,0.024
0.289,0.025
0.290,0.029
0.291,0.037
0.292,0.046
0.293,0.050
0.294,0.059
0.295,0.069
0.296,0.077
0.297,0.084
0.298,0.092
0.299,0.100
0.300,0.107
0.301,0.116
0.302,0.126
0.303,0.128
0.304,0.129
0.305,0.131
0.306,0.125
0.307,0.119
0.308,0.121
0.309,0.119
0.310,0.120
0.311,0.119
0.312,0.119
0.313,0.119
0.314,0.114
0.315,0.109
0.316,0.103
0.317,0.097
0.318,0.089
0.319,0.081
0.320,0.079
0.321,0.081
0.322,0.081
0.323,0.081
0.324,0.078
0.325,0.075
0.326,0.064
0.327,0.056
0.328,0.037
0.329,0.025
0.330,0.008
0.331,-0.006
0.332,-0.016
0.333,-0.022
0.334,-0.021
0.335,-0.025
0.336,-0.032
0.337,-0.044
0.338,-0.053
0.339,-0.059
0.340,-0.072
0.341,-0.081
0.342,-0.092
0.343,-0.100
0.344,-0.109
0.345,-0.119
0.346,-0.122
0.347,-0.122
0.348,-0.138
0.349,-0.147
0.350,-0.153
0.351,-0.156
0.352,-0.159
0.353,-0.163
0.354,-0.166
0.355,-0.169
0.356,-0.171
0.357,-0.166
0.358,-0.166
0.359,-0.163
0.360,-0.169
0.361,-0.172
0.362,-0.175
0.363,-0.178
0.364,-0.177
0.365,-0.175
0.366,-0.175
0.367,-0.178
0.368,-0.178
0.369,-0.181
0.370,-0.184
0.371,-0.184
0.372,-0.187
0.373,-0.191
0.374,-0.192
0.375,-0.194
0.376,-0.195
0.377,-0.197
0.378,-0.196
0.379,-0.194
0.380,-0.193
0.381,-0.191
0.382,-0.191
0.383,-0.194
0.384,-0.194
0.385,-0.197
0.386,-0.195
0.387,-0.197
0.388,-0.198
0.389,-0.197
0.390,-0.197
0.391,-0.197
0.392,-0.197
0.393,-0.197
0.394,-0.197
0.395,-0.197
0.396,-0.197
0.397,-0.194
0.398,-0.194
0.399,-0.194
0.400,-0.194
0.401,-0.197
0.402,-0.198
0.403,-0.197
0.404,-0.197
0.405,-0.197
0.406,-0.197
0.407,-0.197
0.408,-0.200
0.409,-0.203
0.410,-0.203
0.411,-0.209
0.412,-0.217
0.413,-0.228
0.414,-0.238
0.415,-0.238
0.416,-0.229
0.417,-0.225
0.418,-0.216
0.419,-0.206
0.420,-0.198
0.421,-0.184
0.422,-0.172
0.423,-0.147
0.424,-0.109
0.425,-0.069
0.426,-0.027
0.427,0.025
0.428,0.081
0.429,0.144
0.430,0.211
0.431,0.294
0.432,0.378
0.433,0.472
0.434,0.564
0.435,0.669
0.436,0.775
0.437,0.875
0.438,0.981
0.439,1.081
0.440,1.186
0.441,1.275
0.442,1.361
0.443,1.422
0.444,1.486
0.445,1.525
0.446,1.548
0.447,1.513
0.448,1.456
0.449,1.369
0.450,1.273
0.451,1.156
0.452,1.034
0.453,0.897
0.454,0.749
0.455,0.584
0.456,0.425
0.457,0.288
0.458,0.152
0.459,0.041
0.460,-0.066
0.461,-0.122
0.462,-0.159
0.463,-0.184
0.464,-0.184
0.465,-0.181
0.466,-0.181
0.467,-0.175
0.468,-0.175
0.469,-0.178
0.470,-0.179
0.471,-0.178
0.472,-0.179
0.473,-0.178
0.474,-0.175
0.475,-0.172
0.476,-0.169
0.477,-0.163
0.478,-0.161
0.479,-0.159
0.480,-0.156
0.481,-0.153
0.482,-0.153
0.483,-0.156
0.484,-0.156
0.485,-0.159
0.486,-0.161
0.487,-0.163
0.488,-0.163
0.489,-0.163
0.490,-0.161
0.491,-0.163
0.492,-0.163
0.493,-0.163
0.494,-0.167
0.495,-0.166
0.496,-0.167
0.497,-0.169
0.498,-0.172
0.499,-0.175
0.500,-0.181
0.501,-0.178
0.502,-0.181
0.503,-0.181
0.504,-0.178
0.505,-0.178
0.506,-0.178
0.507,-0.178
0.508,-0.178
0.509,-0.181
0.510,-0.178
0.511,-0.178
0.512,-0.177
0.513,-0.175
0.514,-0.172
0.515,-0.172
0.516,-0.176
0.517,-0.181
0.518,-0.179
0.519,-0.181
0.520,-0.177
0.521,-0.175
0.522,-0.171
0.523,-0.169
0.524,-0.168
0.525,-0.169
0.526,-0.170
0.527,-0.169
0.528,-0.170
0.529,-0.169
0.530,-0.168
0.531,-0.166
0.532,-0.167
0.533,-0.166
0.534,-0.166
0.535,-0.166
0.536,-0.164
0.537,-0.159
0.538,-0.159
0.539,-0.156
0.540,-0.153
0.541,-0.153
0.542,-0.153
0.543,-0.150
0.544,-0.147
0.545,-0.144
0.546,-0.145
0.547,-0.147
0.548,-0.145
0.549,-0.147
0.550,-0.147
0.551,-0.147
0.552,-0.147
0.553,-0.150
0.554,-0.147
0.555,-0.144
0.556,-0.147
0.557,-0.147
0.558,-0.142
0.559,-0.138
0.560,-0.139
0.561,-0.141
0.562,-0.139
0.563,-0.141
0.564,-0.141
0.565,-0.141
0.566,-0.138
0.567,-0.141
0.568,-0.139
0.569,-0.141
0.570,-0.141
0.571,-0.141
0.572,-0.136
0.573,-0.128
0.574,-0.127
0.575,-0.125
0.576,-0.126
0.577,-0.128
0.578,-0.129
0.579,-0.131
0.580,-0.130
0.581,-0.128
0.582,-0.128
0.583,-0.128
0.584,-0.124
0.585,-0.125
0.586,-0.122
0.587,-0.122
0.588,-0.123
0.589,-0.125
0.590,-0.122
0.591,-0.122
0.592,-0.121
0.593,-0.119
0.594,-0.117
0.595,-0.119
0.596,-0.119
0.597,-0.122
0.598,-0.120
0.599,-0.122
0.600,-0.117
0.601,-0.119
0.602,-0.114
0.603,-0.112
0.604,-0.114
0.605,-0.112
0.606,-0.112
0.607,-0.109
0.608,-0.109
0.609,-0.109
0.610,-0.102
0.611,-0.094
0.612,-0.092
0.613,-0.091
0.614,-0.089
0.615,-0.091
0.616,-0.092
0.617,-0.088
0.618,-0.086
0.619,-0.081
0.620,-0.080
0.621,-0.075
0.622,-0.073
0.623,-0.072
0.624,-0.075
0.625,-0.075
0.626,-0.071
0.627,-0.059
0.628,-0.056
0.629,-0.050
0.630,-0.054
0.631,-0.053
0.632,-0.056
0.633,-0.056
0.634,-0.050
0.635,-0.044
0.636,-0.044
0.637,-0.041
0.638,-0.036
0.639,-0.031
0.640,-0.025
0.641,-0.019
0.642,-0.016
0.643,-0.013
0.644,-0.011
0.645,-0.006
0.646,-0.004
0.647,-0.003
0.648,-0.001
0.649,-0.003
0.650,0.000
0.651,0.003
0.652,0.003
0.653,0.006
0.654,0.006
0.655,0.009
0.656,0.011
0.657,0.009
0.658,0.009
0.659,0.009
0.660,0.014
0.661,0.016
0.662,0.023
0.663,0.028
0.664,0.025
0.665,0.028
0.666,0.029
0.667,0.028
0.668,0.030
0.669,0.025
0.670,0.025
0.671,0.028
0.672,0.025
0.673,0.025
0.674,0.022
0.675,0.022
0.676,0.025
0.677,0.025
0.678,0.026
0.679,0.028
0.680,0.025
0.681,0.025
0.682,0.029
0.683,0.031
0.684,0.031
0.685,0.031
0.686,0.031
0.687,0.031
0.688,0.031
0.689,0.031
0.690,0.036
0.691,0.041
0.692,0.042
0.693,0.044
0.694,0.043
0.695,0.041
0.696,0.039
0.697,0.037
0.698,0.039
0.699,0.037
0.700,0.041
0.701,0.041
0.702,0.039
0.703,0.037
0.704,0.037
0.705,0.037
0.706,0.036
0.707,0.037
0.708,0.041
0.709,0.044
0.710,0.045
0.711,0.044
0.712,0.046
0.713,0.044
0.714,0.044
0.715,0.044
0.716,0.043
0.717,0.044
0.718,0.047
0.719,0.053
0.720,0.052
0.721,0.047
0.722,0.049
0.723,0.044
0.724,0.042
0.725,0.044
0.726,0.043
0.727,0.041
0.728,0.041
0.729,0.041
0.730,0.042
0.731,0.044
0.732,0.037
0.733,0.034
0.734,0.032
0.735,0.031
0.736,0.036
0.737,0.034
0.738,0.032
0.739,0.031
0.740,0.030
0.741,0.025
0.742,0.021
0.743,0.016
0.744,0.014
0.745,0.016
0.746,0.014
0.747,0.013
0.748,0.006
0.749,0.003
0.750,-0.003
0.751,-0.006
0.752,-0.009
0.753,-0.013
0.754,-0.013
0.755,-0.013
0.756,-0.019
0.757,-0.019
0.758,-0.025
0.759,-0.028
0.760,-0.033
0.761,-0.034
0.762,-0.037
0.763,-0.044
0.764,-0.048
0.765,-0.050
0.766,-0.050
0.767,-0.050
0.768,-0.052
0.769,-0.050
0.770,-0.053
0.771,-0.053
0.772,-0.058
0.773,-0.062
0.774,-0.067
0.775,-0.072
0.776,-0.074
0.777,-0.072
0.778,-0.071
0.779,-0.072
0.780,-0.069
0.781,-0.069
0.782,-0.069
0.783,-0.069
0.784,-0.076
0.785,-0.081
0.786,-0.081
0.787,-0.081
0.788,-0.084
0.789,-0.084
0.790,-0.083
0.791,-0.084
0.792,-0.084
0.793,-0.084
0.794,-0.086
0.795,-0.084
0.796,-0.086
0.797,-0.088
0.798,-0.089
0.799,-0.091
0.800,-0.089
0.801,-0.088
0.802,-0.089
0.803,-0.088
0.804,-0.088
0.805,-0.091
0.806,-0.091
0.807,-0.091
0.808,-0.091
0.809,-0.088
0.810,-0.091
0.811,-0.091
0.812,-0.089
0.813,-0.091
0.814,-0.092
0.815,-0.094
0.816,-0.091
0.817,-0.094
0.818,-0.097
0.819,-0.100
0.820,-0.097
0.821,-0.094
0.822,-0.096
0.823,-0.094
0.824,-0.095
0.825,-0.097
0.826,-0.096
0.827,-0.094
0.828,-0.094
0.829,-0.091
0.830,-0.098
0.831,-0.103
0.832,-0.103
0.833,-0.103
0.834,-0.106
0.835,-0.106
0.836,-0.103
0.837,-0.103
0.838,-0.107
0.839,-0.106
0.840,-0.104
0.841,-0.109
0.842,-0.106
0.843,-0.103
0.844,-0.106
0.845,-0.106
0.846,-0.105
0.847,-0.106
0.848,-0.111
0.849,-0.109
0.850,-0.109
0.851,-0.109
0.852,-0.109
0.853,-0.109
0.854,-0.109
0.855,-0.112
0.856,-0.109
0.857,-0.112
0.858,-0.109
0.859,-0.109
0.860,-0.114
0.861,-0.119
0.862,-0.119
0.863,-0.122
0.864,-0.122
0.865,-0.119
0.866,-0.119
0.867,-0.119
0.868,-0.119
0.869,-0.122
0.870,-0.122
0.871,-0.119
0.872,-0.122
0.873,-0.122
0.874,-0.122
0.875,-0.122
0.876,-0.124
0.877,-0.122
0.878,-0.125
0.879,-0.122
0.880,-0.128
0.881,-0.131
0.882,-0.131
0.883,-0.131
0.884,-0.128
0.885,-0.128
0.886,-0.128
0.887,-0.128
0.888,-0.128
0.889,-0.128
0.890,-0.129
0.891,-0.134
0.892,-0.133
0.893,-0.138
0.894,-0.139
0.895,-0.138
0.896,-0.136
0.897,-0.134
0.898,-0.136
0.899,-0.138
0.900,-0.138
0.901,-0.138
0.902,-0.136
0.903,-0.138
0.904,-0.131
0.905,-0.131
0.906,-0.136
0.907,-0.134
0.908,-0.134
0.909,-0.134
0.910,-0.134
0.911,-0.138
0.912,-0.138
0.913,-0.138
0.914,-0.131
0.915,-0.128
0.916,-0.128
0.917,-0.128
0.918,-0.124
0.919,-0.119
0.920,-0.111
0.921,-0.106
0.922,-0.097
0.923,-0.094
0.924,-0.088
0.925,-0.084
0.926,-0.071
0.927,-0.062
0.928,-0.050
0.929,-0.041
0.930,-0.036
0.931,-0.028
0.932,-0.026
0.933,-0.028
0.934,-0.024
0.935,-0.019
0.936,-0.013
0.937,-0.009
0.938,-0.011
0.939,-0.013
0.940,-0.019
0.941,-0.022
0.942,-0.019
0.943,-0.019
0.944,-0.009
0.945,0.000
0.946,0.003
0.947,0.009
0.948,0.017
0.949,0.022
0.950,0.034
0.951,0.047
0.952,0.052
0.953,0.056
0.954,0.067
0.955,0.078
0.956,0.089
0.957,0.100
0.958,0.106
0.959,0.103
0.960,0.097
0.961,0.091
0.962,0.088
0.963,0.084
0.964,0.086
0.965,0.084
0.966,0.086
0.967,0.084
0.968,0.086
0.969,0.088
0.970,0.086
0.971,0.084
0.972,0.074
0.973,0.062
0.974,0.056
0.975,0.050
0.976,0.047
0.977,0.047
0.978,0.047
0.979,0.047
0.980,0.044
0.981,0.041
0.982,0.028
0.983,0.019
0.984,0.002
0.985,-0.009
0.986,-0.021
0.987,-0.028
0.988,-0.037
0.989,-0.044
0.990,-0.048
0.991,-0.059
0.992,-0.069
0.993,-0.081
0.994,-0.088
0.995,-0.091
0.996,-0.097
0.997,-0.100
0.998,-0.108
0.999,-0.112
1.000,-0.119
1.001,-0.125
1.002,-0.131
1.003,-0.134
1.004,-0.145
1.005,-0.150
1.006,-0.156
1.007,-0.159
1.008,-0.161
1.009,-0.163
1.010,-0.166
1.011,-0.169
1.012,-0.174
1.013,-0.172
1.014,-0.178
1.015,-0.181
1.016,-0.184
1.017,-0.184
1.018,-0.183
1.019,-0.181
1.020,-0.181
1.021,-0.181
1.022,-0.181
1.023,-0.184
1.024,-0.183
1.025,-0.184
1.026,-0.187
1.027,-0.187
1.028,-0.191
1.029,-0.194
1.030,-0.195
1.031,-0.197
1.032,-0.197
1.033,-0.197
1.034,-0.198
1.035,-0.200
1.036,-0.197
1.037,-0.194
1.038,-0.193
1.039,-0.194
1.040,-0.194
1.041,-0.197
1.042,-0.195
1.043,-0.197
1.044,-0.194
1.045,-0.187
1.046,-0.189
1.047,-0.191
1.048,-0.189
1.049,-0.187
1.050,-0.187
1.051,-0.187
1.052,-0.191
1.053,-0.191
1.054,-0.191
1.055,-0.191
1.056,-0.189
1.057,-0.191
1.058,-0.191
1.059,-0.187
1.060,-0.187
1.061,-0.187
1.062,-0.187
1.063,-0.187
1.064,-0.191
1.065,-0.194
1.066,-0.198
1.067,-0.209
1.068,-0.211
1.069,-0.216
1.070,-0.223
1.071,-0.222
1.072,-0.213
1.073,-0.206
1.074,-0.194
1.075,-0.181
1.076,-0.166
1.077,-0.144
1.078,-0.121
1.079,-0.084
1.080,-0.050
1.081,-0.013
1.082,0.029
1.083,0.081
1.084,0.136
1.085,0.197
1.086,0.270
1.087,0.359
1.088,0.444
1.089,0.537
1.090,0.638
1.091,0.750
1.092,0.859
1.093,0.963
1.094,1.069
1.095,1.169
1.096,1.264
1.097,1.344
1.098,1.421
1.099,1.472
1.100,1.508
1.101,1.519
1.102,1.517
1.103,1.456
1.104,1.389
1.105,1.291
1.106,1.195
1.107,1.078
1.108,0.953
1.109,0.812
1.110,0.670
1.111,0.513
1.112,0.361
1.113,0.231
1.114,0.112
1.115,0.019
1.116,-0.064
1.117,-0.097
1.118,-0.122
1.119,-0.134
1.120,-0.138
1.121,-0.138
1.122,-0.142
1.123,-0.141
1.124,-0.141
1.125,-0.144
1.126,-0.145
1.127,-0.144
1.128,-0.145
1.129,-0.144
1.130,-0.138
1.131,-0.131
1.132,-0.128
1.133,-0.122
1.134,-0.119
1.135,-0.116
1.136,-0.116
1.137,-0.116
1.138,-0.114
1.139,-0.116
1.140,-0.119
1.141,-0.125
1.142,-0.128
1.143,-0.131
1.144,-0.131
1.145,-0.131
1.146,-0.130
1.147,-0.131
1.148,-0.130
1.149,-0.128
1.150,-0.133
1.151,-0.131
1.152,-0.131
1.153,-0.131
1.154,-0.134
1.155,-0.138
1.156,-0.142
1.157,-0.138
1.158,-0.139
1.159,-0.138
1.160,-0.133
1.161,-0.131
1.162,-0.131
1.163,-0.131
1.164,-0.130
1.165,-0.131
1.166,-0.129
1.167,-0.131
1.168,-0.131
1.169,-0.131
1.170,-0.133
1.171,-0.138
1.172,-0.139
1.173,-0.141
1.174,-0.138
1.175,-0.138
1.176,-0.131
1.177,-0.128
1.178,-0.126
1.179,-0.128
1.180,-0.127
1.181,-0.128
1.182,-0.129
1.183,-0.128
1.184,-0.129
1.185,-0.128
1.186,-0.127
1.187,-0.125
1.188,-0.125
1.189,-0.122
1.190,-0.122
1.191,-0.122
1.192,-0.123
1.193,-0.122
1.194,-0.124
1.195,-0.122
1.196,-0.116
1.197,-0.112
1.198,-0.112
1.199,-0.109
1.200,-0.106
1.201,-0.103
1.202,-0.104
1.203,-0.106
1.204,-0.104
1.205,-0.106
1.206,-0.106
1.207,-0.106
1.208,-0.102
1.209,-0.100
1.210,-0.098
1.211,-0.097
1.212,-0.101
1.213,-0.103
1.214,-0.103
1.215,-0.103
1.216,-0.102
1.217,-0.100
1.218,-0.092
1.219,-0.088
1.220,-0.089
1.221,-0.091
1.222,-0.088
1.223,-0.091
1.224,-0.088
1.225,-0.088
1.226,-0.088
1.227,-0.088
1.228,-0.089
1.229,-0.088
1.230,-0.088
1.231,-0.088
1.232,-0.088
1.233,-0.088
1.234,-0.088
1.235,-0.088
1.236,-0.088
1.237,-0.088
1.238,-0.088
1.239,-0.088
1.240,-0.083
1.241,-0.084
1.242,-0.081
1.243,-0.081
1.244,-0.082
1.245,-0.084
1.246,-0.081
1.247,-0.081
1.248,-0.078
1.249,-0.075
1.250,-0.071
1.251,-0.069
1.252,-0.067
1.253,-0.069
1.254,-0.069
1.255,-0.072
1.256,-0.067
1.257,-0.069
1.258,-0.062
1.259,-0.059
1.260,-0.059
1.261,-0.056
1.262,-0.058
1.263,-0.056
1.264,-0.056
1.265,-0.056
1.266,-0.056
1.267,-0.056
1.268,-0.052
1.269,-0.047
1.270,-0.043
1.271,-0.041
1.272,-0.039
1.273,-0.031
1.274,-0.031
1.275,-0.028
1.276,-0.029
1.277,-0.028
1.278,-0.024
1.279,-0.019
1.280,-0.019
1.281,-0.016
1.282,-0.014
1.283,-0.006
1.284,-0.006
1.285,-0.003
1.286,-0.003
1.287,0.003
1.288,0.003
1.289,0.006
1.290,0.011
1.291,0.016
1.292,0.017
1.293,0.022
1.294,0.025
1.295,0.028
1.296,0.030
1.297,0.031
1.298,0.036
1.299,0.041
1.300,0.039
1.301,0.041
1.302,0.045
1.303,0.050
1.304,0.054
1.305,0.056
1.306,0.055
1.307,0.053
1.308,0.054
1.309,0.059
1.310,0.058
1.311,0.059
1.312,0.062
1.313,0.062
1.314,0.062
1.315,0.062
1.316,0.069
1.317,0.072
1.318,0.076
1.319,0.078
1.320,0.075
1.321,0.078
1.322,0.079
1.323,0.078
1.324,0.082
1.325,0.081
1.326,0.082
1.327,0.088
1.328,0.084
1.329,0.084
1.330,0.081
1.331,0.081
1.332,0.084
1.333,0.084
1.334,0.086
1.335,0.088
1.336,0.084
1.337,0.084
1.338,0.086
1.339,0.084
1.340,0.084
1.341,0.084
1.342,0.088
1.343,0.091
1.344,0.088
1.345,0.084
1.346,0.088
1.347,0.091
1.348,0.091
1.349,0.091
1.350,0.089
1.351,0.088
1.352,0.088
1.353,0.088
1.354,0.094
1.355,0.097
1.356,0.099
1.357,0.097
1.358,0.098
1.359,0.100
1.360,0.100
1.361,0.100
1.362,0.099
1.363,0.100
1.364,0.099
1.365,0.097
1.366,0.098
1.367,0.097
1.368,0.100
1.369,0.100
1.370,0.100
1.371,0.100
1.372,0.100
1.373,0.103
1.374,0.102
1.375,0.103
1.376,0.103
1.377,0.100
1.378,0.106
1.379,0.106
1.380,0.104
1.381,0.106
1.382,0.106
1.383,0.106
1.384,0.105
1.385,0.103
1.386,0.104
1.387,0.106
1.388,0.103
1.389,0.103
1.390,0.099
1.391,0.094
1.392,0.096
1.393,0.091
1.394,0.089
1.395,0.088
1.396,0.091
1.397,0.091
1.398,0.089
1.399,0.088
1.400,0.081
1.401,0.078
1.402,0.076
1.403,0.075
1.404,0.072
1.405,0.072
1.406,0.066
1.407,0.062
1.408,0.058
1.409,0.053
1.410,0.049
1.411,0.044
1.412,0.036
1.413,0.034
1.414,0.032
1.415,0.034
1.416,0.031
1.417,0.031
1.418,0.031
1.419,0.028
1.420,0.019
1.421,0.013
1.422,0.013
1.423,0.013
1.424,0.009
1.425,0.009
1.426,0.005
1.427,0.003
1.428,0.003
1.429,0.003
1.430,0.001
1.431,0.000
1.432,-0.007
1.433,-0.013
1.434,-0.011
1.435,-0.013
1.436,-0.013
1.437,-0.016
1.438,-0.017
1.439,-0.019
1.440,-0.023
1.441,-0.025
1.442,-0.025
1.443,-0.025
1.444,-0.025
1.445,-0.022
1.446,-0.021
1.447,-0.022
1.448,-0.023
1.449,-0.025
1.450,-0.029
1.451,-0.031
1.452,-0.032
1.453,-0.034
1.454,-0.039
1.455,-0.044
1.456,-0.043
1.457,-0.041
1.458,-0.041
1.459,-0.037
1.460,-0.033
1.461,-0.031
1.462,-0.032
1.463,-0.034
1.464,-0.034
1.465,-0.031
1.466,-0.034
1.467,-0.034
1.468,-0.033
1.469,-0.034
1.470,-0.039
1.471,-0.044
1.472,-0.041
1.473,-0.044
1.474,-0.044
1.475,-0.044
1.476,-0.044
1.477,-0.044
1.478,-0.047
1.479,-0.047
1.480,-0.047
1.481,-0.047
1.482,-0.046
1.483,-0.044
1.484,-0.045
1.485,-0.044
1.486,-0.046
1.487,-0.044
1.488,-0.045
1.489,-0.047
1.490,-0.050
1.491,-0.050
1.492,-0.049
1.493,-0.050
1.494,-0.054
1.495,-0.053
1.496,-0.050
1.497,-0.053
1.498,-0.052
1.499,-0.050
1.500,-0.052
1.501,-0.050
1.502,-0.050
1.503,-0.053
1.504,-0.059
1.505,-0.059
1.506,-0.059
1.507,-0.059
1.508,-0.059
1.509,-0.059
1.510,-0.061
1.511,-0.066
1.512,-0.064
1.513,-0.069
1.514,-0.066
1.515,-0.066
1.516,-0.067
1.517,-0.069
1.518,-0.067
1.519,-0.069
1.520,-0.072
1.521,-0.072
1.522,-0.073
1.523,-0.075
1.524,-0.076
1.525,-0.081
1.526,-0.081
1.527,-0.078
1.528,-0.080
1.529,-0.078
1.530,-0.077
1.531,-0.075
1.532,-0.078
1.533,-0.078
1.534,-0.082
1.535,-0.081
1.536,-0.086
1.537,-0.088
1.538,-0.089
1.539,-0.091
1.540,-0.089
1.541,-0.091
1.542,-0.089
1.543,-0.088
1.544,-0.088
1.545,-0.088
1.546,-0.088
1.547,-0.091
1.548,-0.089
1.549,-0.094
1.550,-0.098
1.551,-0.100
1.552,-0.100
1.553,-0.100
1.554,-0.099
1.555,-0.097
1.556,-0.096
1.557,-0.094
1.558,-0.097
1.559,-0.103
1.560,-0.099
1.561,-0.100
1.562,-0.103
1.563,-0.100
1.564,-0.100
1.565,-0.100
1.566,-0.096
1.567,-0.094
1.568,-0.095
1.569,-0.097
1.570,-0.097
1.571,-0.100
1.572,-0.098
1.573,-0.097
1.574,-0.092
1.575,-0.088
1.576,-0.081
1.577,-0.078
1.578,-0.061
1.579,-0.050
1.580,-0.044
1.581,-0.041
1.582,-0.028
1.583,-0.022
1.584,-0.009
1.585,0.000
1.586,0.003
1.587,0.009
1.588,0.014
1.589,0.016
1.590,0.017
1.591,0.019
1.592,0.023
1.593,0.025
1.594,0.023
1.595,0.022
1.596,0.017
1.597,0.016
1.598,0.021
1.599,0.022
1.600,0.024
1.601,0.025
1.602,0.027
1.603,0.031
1.604,0.041
1.605,0.047
1.606,0.056
1.607,0.066
1.608,0.076
1.609,0.088
1.610,0.098
1.611,0.109
1.612,0.114
1.613,0.119
1.614,0.126
1.615,0.125
1.616,0.125
1.617,0.125
1.618,0.121
1.619,0.116
1.620,0.119
1.621,0.119
1.622,0.120
1.623,0.119
1.624,0.117
1.625,0.116
1.626,0.112
1.627,0.109
1.628,0.103
1.629,0.097
1.630,0.091
1.631,0.084
1.632,0.081
1.633,0.081
1.634,0.078
1.635,0.075
1.636,0.072
1.637,0.069
1.638,0.061
1.639,0.056
1.640,0.039
1.641,0.028
1.642,0.014
1.643,0.003
1.644,-0.006
1.645,-0.013
1.646,-0.014
1.647,-0.022
1.648,-0.029
1.649,-0.041
1.650,-0.051
1.651,-0.059
1.652,-0.069
1.653,-0.075
1.654,-0.084
1.655,-0.091
1.656,-0.096
1.657,-0.100
1.658,-0.107
1.659,-0.112
1.660,-0.122
1.661,-0.125
1.662,-0.133
1.663,-0.138
1.664,-0.141
1.665,-0.144
1.666,-0.144
1.667,-0.144
1.668,-0.153
1.669,-0.156
1.670,-0.163
1.671,-0.166
1.672,-0.168
1.673,-0.166
1.674,-0.169
1.675,-0.172
1.676,-0.169
1.677,-0.166
1.678,-0.164
1.679,-0.166
1.680,-0.167
1.681,-0.172
1.682,-0.175
1.683,-0.175
1.684,-0.176
1.685,-0.178
1.686,-0.178
1.687,-0.178
1.688,-0.178
1.689,-0.178
1.690,-0.178
1.691,-0.178
1.692,-0.178
1.693,-0.178
1.694,-0.178
1.695,-0.181
1.696,-0.180
1.697,-0.181
1.698,-0.179
1.699,-0.181
1.700,-0.184
1.701,-0.184
1.702,-0.183
1.703,-0.181
1.704,-0.180
1.705,-0.178
1.706,-0.178
1.707,-0.178
1.708,-0.179
1.709,-0.178
1.710,-0.177
1.711,-0.175
1.712,-0.171
1.713,-0.169
1.714,-0.169
1.715,-0.166
1.716,-0.167
1.717,-0.169
1.718,-0.170
1.719,-0.172
1.720,-0.175
1.721,-0.178
1.722,-0.177
1.723,-0.181
1.724,-0.186
1.725,-0.194
1.726,-0.203
1.727,-0.203
1.728,-0.198
1.729,-0.197
1.730,-0.181
1.731,-0.166
1.732,-0.157
1.733,-0.144
1.734,-0.128
1.735,-0.100
1.736,-0.067
1.737,-0.031
1.738,0.008
1.739,0.056
1.740,0.106
1.741,0.163
1.742,0.225
1.743,0.303
1.744,0.384
1.745,0.475
1.746,0.567
1.747,0.672
1.748,0.781
1.749,0.884
1.750,0.994
1.751,1.097
1.752,1.201
1.753,1.291
1.754,1.373
1.755,1.431
1.756,1.492
1.757,1.528
1.758,1.548
1.759,1.509
1.760,1.457
1.761,1.375
1.762,1.283
1.763,1.169
1.764,1.051
1.765,0.919
1.766,0.775
1.767,0.616
1.768,0.461
1.769,0.328
1.770,0.199
1.771,0.094
1.772,-0.009
1.773,-0.062
1.774,-0.104
1.775,-0.134
1.776,-0.134
1.777,-0.131
1.778,-0.136
1.779,-0.134
1.780,-0.134
1.781,-0.138
1.782,-0.141
1.783,-0.141
1.784,-0.144
1.785,-0.144
1.786,-0.138
1.787,-0.131
1.788,-0.129
1.789,-0.125
1.790,-0.118
1.791,-0.109
1.792,-0.109
1.793,-0.109
1.794,-0.112
1.795,-0.119
1.796,-0.116
1.797,-0.116
1.798,-0.120
1.799,-0.125
1.800,-0.128
1.801,-0.131
1.802,-0.130
1.803,-0.131
1.804,-0.130
1.805,-0.128
1.806,-0.133
1.807,-0.131
1.808,-0.131
1.809,-0.131
1.810,-0.130
1.811,-0.128
1.812,-0.133
1.813,-0.128
1.814,-0.131
1.815,-0.131
1.816,-0.129
1.817,-0.131
1.818,-0.131
1.819,-0.131
1.820,-0.131
1.821,-0.134
1.822,-0.131
1.823,-0.131
1.824,-0.131
1.825,-0.131
1.826,-0.130
1.827,-0.131
1.828,-0.130
1.829,-0.128
1.830,-0.126
1.831,-0.128
1.832,-0.126
1.833,-0.128
1.834,-0.125
1.835,-0.125
1.836,-0.128
1.837,-0.134
1.838,-0.133
1.839,-0.128
1.840,-0.128
1.841,-0.125
1.842,-0.122
1.843,-0.119
1.844,-0.122
1.845,-0.122
1.846,-0.121
1.847,-0.119
1.848,-0.118
1.849,-0.112
1.850,-0.116
1.851,-0.116
1.852,-0.114
1.853,-0.116
1.854,-0.117
1.855,-0.116
1.856,-0.116
1.857,-0.116
1.858,-0.114
1.859,-0.112
1.860,-0.111
1.861,-0.112
1.862,-0.111
1.863,-0.109
1.864,-0.108
1.865,-0.109
1.866,-0.106
1.867,-0.103
1.868,-0.105
1.869,-0.103
1.870,-0.103
1.871,-0.103
1.872,-0.103
1.873,-0.103
1.874,-0.101
1.875,-0.103
1.876,-0.104
1.877,-0.106
1.878,-0.102
1.879,-0.103
1.880,-0.101
1.881,-0.103
1.882,-0.103
1.883,-0.103
1.884,-0.100
1.885,-0.094
1.886,-0.095
1.887,-0.097
1.888,-0.096
1.889,-0.094
1.890,-0.094
1.891,-0.094
1.892,-0.094
1.893,-0.094
1.894,-0.094
1.895,-0.094
1.896,-0.089
1.897,-0.091
1.898,-0.088
1.899,-0.088
1.900,-0.089
1.901,-0.091
1.902,-0.088
1.903,-0.088
1.904,-0.089
1.905,-0.091
1.906,-0.088
1.907,-0.088
1.908,-0.086
1.909,-0.088
1.910,-0.088
1.911,-0.091
1.912,-0.083
1.913,-0.081
1.914,-0.078
1.915,-0.078
1.916,-0.077
1.917,-0.072
1.918,-0.075
1.919,-0.075
1.920,-0.074
1.921,-0.072
1.922,-0.070
1.923,-0.069
1.924,-0.069
1.925,-0.069
1.926,-0.064
1.927,-0.062
1.928,-0.062
1.929,-0.056
1.930,-0.056
1.931,-0.053
1.932,-0.050
1.933,-0.044
1.934,-0.041
1.935,-0.037
1.936,-0.041
1.937,-0.041
1.938,-0.039
1.939,-0.031
1.940,-0.028
1.941,-0.022
1.942,-0.021
1.943,-0.013
1.944,-0.014
1.945,-0.013
1.946,-0.011
1.947,-0.009
1.948,-0.005
1.949,0.003
1.950,0.003
1.951,0.003
1.952,0.002
1.953,0.000
1.954,0.006
1.955,0.013
1.956,0.016
1.957,0.022
1.958,0.024
1.959,0.025
1.960,0.028
1.961,0.028
1.962,0.030
1.963,0.031
1.964,0.031
1.965,0.034
1.966,0.036
1.967,0.041
1.968,0.044
1.969,0.044
1.970,0.045
1.971,0.047
1.972,0.050
1.973,0.050
1.974,0.052
1.975,0.050
1.976,0.049
1.977,0.053
1.978,0.058
1.979,0.059
1.980,0.064
1.981,0.062
1.982,0.059
1.983,0.059
1.984,0.056
1.985,0.056
1.986,0.055
1.987,0.056
1.988,0.062
1.989,0.066
1.990,0.066
1.991,0.066
1.992,0.064
1.993,0.066
1.994,0.069
1.995,0.069
1.996,0.069
1.997,0.069
1.998,0.069
1.999,0.069
2.000,0.067
2.001,0.066
2.002,0.066
2.003,0.066
2.004,0.066
2.005,0.066
2.006,0.066
2.007,0.066
2.008,0.066
2.009,0.066
2.010,0.067
2.011,0.066
2.012,0.069
2.013,0.069
2.014,0.070
2.015,0.072
2.016,0.073
2.017,0.075
2.018,0.074
2.019,0.075
2.020,0.078
2.021,0.081
2.022,0.081
2.023,0.078
2.024,0.080
2.025,0.078
2.026,0.079
2.027,0.081
2.028,0.080
2.029,0.081
2.030,0.080
2.031,0.081
2.032,0.082
2.033,0.081
2.034,0.086
2.035,0.084
2.036,0.082
2.037,0.084
2.038,0.083
2.039,0.081
2.040,0.081
2.041,0.081
2.042,0.082
2.043,0.084
2.044,0.082
2.045,0.084
2.046,0.082
2.047,0.081
2.048,0.084
2.049,0.081
2.050,0.077
2.051,0.072
2.052,0.073
2.053,0.072
2.054,0.070
2.055,0.069
2.056,0.062
2.057,0.059
2.058,0.055
2.059,0.050
2.060,0.048
2.061,0.050
2.062,0.044
2.063,0.041
2.064,0.036
2.065,0.031
2.066,0.029
2.067,0.028
2.068,0.022
2.069,0.022
2.070,0.019
2.071,0.019
2.072,0.013
2.073,0.009
2.074,0.008
2.075,0.003
2.076,0.001
2.077,0.003
2.078,0.000
2.079,-0.003
2.080,-0.006
2.081,-0.006
2.082,-0.009
2.083,-0.009
2.084,-0.013
2.085,-0.016
2.086,-0.020
2.087,-0.025
2.088,-0.028
2.089,-0.028
2.090,-0.027
2.091,-0.028
2.092,-0.028
2.093,-0.031
2.094,-0.032
2.095,-0.034
2.096,-0.037
2.097,-0.037
2.098,-0.036
2.099,-0.034
2.100,-0.039
2.101,-0.041
2.102,-0.041
2.103,-0.044
2.104,-0.044
2.105,-0.044
2.106,-0.047
2.107,-0.047
2.108,-0.047
2.109,-0.047
2.110,-0.047
2.111,-0.047
2.112,-0.048
2.113,-0.050
2.114,-0.053
2.115,-0.053
2.116,-0.052
2.117,-0.053
2.118,-0.053
2.119,-0.053
2.120,-0.054
2.121,-0.053
2.122,-0.056
2.123,-0.056
2.124,-0.056
2.125,-0.059
2.126,-0.059
2.127,-0.059
2.128,-0.056
2.129,-0.059
2.130,-0.059
2.131,-0.059
2.132,-0.058
2.133,-0.056
2.134,-0.061
2.135,-0.062
2.136,-0.062
2.137,-0.062
2.138,-0.064
2.139,-0.066
2.140,-0.064
2.141,-0.059
2.142,-0.062
2.143,-0.062
2.144,-0.064
2.145,-0.066
2.146,-0.070
2.147,-0.072
2.148,-0.071
2.149,-0.072
2.150,-0.075
2.151,-0.072
2.152,-0.067
2.153,-0.069
2.154,-0.070
2.155,-0.072
2.156,-0.075
2.157,-0.075
2.158,-0.076
2.159,-0.081
2.160,-0.081
2.161,-0.075
2.162,-0.075
2.163,-0.075
2.164,-0.078
2.165,-0.081
2.166,-0.081
2.167,-0.084
2.168,-0.081
2.169,-0.084
2.170,-0.080
2.171,-0.078
2.172,-0.081
2.173,-0.084
2.174,-0.084
2.175,-0.088
2.176,-0.091
2.177,-0.091
2.178,-0.091
2.179,-0.091
2.180,-0.089
2.181,-0.091
2.182,-0.094
2.183,-0.094
2.184,-0.096
2.185,-0.094
2.186,-0.094
2.187,-0.094
2.188,-0.097
2.189,-0.097
2.190,-0.103
2.191,-0.103
2.192,-0.105
2.193,-0.103
2.194,-0.103
2.195,-0.103
2.196,-0.102
2.197,-0.103
2.198,-0.103
2.199,-0.103
2.200,-0.103
2.201,-0.103
2.202,-0.106
2.203,-0.112
2.204,-0.108
2.205,-0.109
2.206,-0.111
2.207,-0.109
2.208,-0.108
2.209,-0.106
2.210,-0.111
2.211,-0.116
2.212,-0.116
2.213,-0.116
2.214,-0.114
2.215,-0.116
2.216,-0.111
2.217,-0.112
2.218,-0.114
2.219,-0.109
2.220,-0.109
2.221,-0.109
2.222,-0.108
2.223,-0.109
2.224,-0.112
2.225,-0.116
2.226,-0.112
2.227,-0.112
2.228,-0.111
2.229,-0.109
2.230,-0.105
2.231,-0.100
2.232,-0.092
2.233,-0.088
2.234,-0.077
2.235,-0.072
2.236,-0.062
2.237,-0.056
2.238,-0.045
2.239,-0.041
2.240,-0.028
2.241,-0.019
2.242,-0.016
2.243,-0.009
2.244,-0.004
2.245,-0.003
2.246,0.001
2.247,0.006
2.248,0.008
2.249,0.006
2.250,0.004
2.251,0.003
2.252,-0.001
2.253,-0.003
2.254,0.005
2.255,0.009
2.256,0.014
2.257,0.019
2.258,0.019
2.259,0.022
2.260,0.034
2.261,0.044
2.262,0.053
2.263,0.062
2.264,0.069
2.265,0.075
2.266,0.084
2.267,0.094
2.268,0.099
2.269,0.103
2.270,0.109
2.271,0.106
2.272,0.099
2.273,0.091
2.274,0.088
2.275,0.084
2.276,0.089
2.277,0.091
2.278,0.095
2.279,0.097
2.280,0.097
2.281,0.097
2.282,0.091
2.283,0.084
2.284,0.079
2.285,0.075
2.286,0.070
2.287,0.066
2.288,0.064
2.289,0.066
2.290,0.062
2.291,0.059
2.292,0.053
2.293,0.047
2.294,0.037
2.295,0.031
2.296,0.017
2.297,0.009
2.298,-0.003
2.299,-0.013
2.300,-0.023
2.301,-0.031
2.302,-0.036
2.303,-0.047
2.304,-0.047
2.305,-0.050
2.306,-0.066
2.307,-0.078
2.308,-0.086
2.309,-0.091
2.310,-0.103
2.311,-0.112
2.312,-0.112
2.313,-0.112
2.314,-0.118
2.315,-0.119
2.316,-0.131
2.317,-0.138
2.318,-0.141
2.319,-0.141
2.320,-0.145
2.321,-0.150
2.322,-0.157
2.323,-0.166
2.324,-0.171
2.325,-0.169
2.326,-0.171
2.327,-0.169
2.328,-0.172
2.329,-0.172
2.330,-0.172
2.331,-0.172
2.332,-0.171
2.333,-0.169
2.334,-0.169
2.335,-0.172
2.336,-0.172
2.337,-0.175
2.338,-0.177
2.339,-0.175
2.340,-0.176
2.341,-0.178
2.342,-0.178
2.343,-0.178
2.344,-0.178
2.345,-0.178
2.346,-0.178
2.347,-0.178
2.348,-0.179
2.349,-0.181
2.350,-0.180
2.351,-0.181
2.352,-0.181
2.353,-0.184
2.354,-0.181
2.355,-0.181
2.356,-0.183
2.357,-0.181
2.358,-0.181
2.359,-0.181
2.360,-0.180
2.361,-0.178
2.362,-0.178
2.363,-0.178
2.364,-0.175
2.365,-0.169
2.366,-0.170
2.367,-0.172
2.368,-0.173
2.369,-0.178
2.370,-0.181
2.371,-0.181
2.372,-0.180
2.373,-0.178
2.374,-0.178
2.375,-0.178
2.376,-0.180
2.377,-0.181
2.378,-0.184
2.379,-0.194
2.380,-0.200
2.381,-0.209
2.382,-0.217
2.383,-0.216
2.384,-0.205
2.385,-0.197
2.386,-0.184
2.387,-0.172
2.388,-0.158
2.389,-0.138
2.390,-0.112
2.391,-0.075
2.392,-0.042
2.393,-0.006
2.394,0.034
2.395,0.084
2.396,0.136
2.397,0.194
2.398,0.264
2.399,0.350
2.400,0.436
2.401,0.531
2.402,0.626
2.403,0.734
2.404,0.844
2.405,0.947
2.406,1.054
2.407,1.156
2.408,1.252
2.409,1.331
2.410,1.406
2.411,1.456
2.412,1.491
2.413,1.500
2.414,1.500
2.415,1.441
2.416,1.380
2.417,1.287
2.418,1.189
2.419,1.069
2.420,0.946
2.421,0.806
2.422,0.667
2.423,0.513
2.424,0.369
2.425,0.247
2.426,0.128
2.427,0.034
2.428,-0.059
2.429,-0.103
2.430,-0.130
2.431,-0.144
2.432,-0.144
2.433,-0.141
2.434,-0.145
2.435,-0.144
2.436,-0.142
2.437,-0.144
2.438,-0.145
2.439,-0.144
2.440,-0.142
2.441,-0.138
2.442,-0.134
2.443,-0.131
2.444,-0.129
2.445,-0.125
2.446,-0.125
2.447,-0.125
2.448,-0.125
2.449,-0.125
2.450,-0.124
2.451,-0.125
2.452,-0.124
2.453,-0.125
2.454,-0.127
2.455,-0.128
2.456,-0.128
2.457,-0.128
2.458,-0.131
2.459,-0.138
2.460,-0.141
2.461,-0.144
2.462,-0.148
2.463,-0.147
2.464,-0.147
2.465,-0.147
2.466,-0.147
2.467,-0.147
2.468,-0.150
2.469,-0.144
2.470,-0.139
2.471,-0.131
2.472,-0.128
2.473,-0.128
2.474,-0.128
2.475,-0.128
2.476,-0.128
2.477,-0.131
2.478,-0.133
2.479,-0.138
2.480,-0.138
2.481,-0.138
2.482,-0.133
2.483,-0.131
2.484,-0.131
2.485,-0.131
2.486,-0.131
2.487,-0.134
2.488,-0.133
2.489,-0.134
2.490,-0.131
2.491,-0.131
2.492,-0.130
2.493,-0.131
2.494,-0.131
2.495,-0.128
2.496,-0.128
2.497,-0.125
2.498,-0.125
2.499,-0.125
2.500,-0.124
2.501,-0.119
2.502,-0.119
2.503,-0.119
2.504,-0.120
2.505,-0.119
2.506,-0.122
2.507,-0.122
2.508,-0.120
2.509,-0.122
2.510,-0.122
2.511,-0.119
2.512,-0.118
2.513,-0.116
2.514,-0.120
2.515,-0.125
2.516,-0.122
2.517,-0.122
2.518,-0.116
2.519,-0.109
2.520,-0.106
2.521,-0.106
2.522,-0.103
2.523,-0.100
2.524,-0.103
2.525,-0.103
2.526,-0.103
2.527,-0.103
2.528,-0.104
2.529,-0.106
2.530,-0.103
2.531,-0.103
2.532,-0.103
2.533,-0.103
2.534,-0.100
2.535,-0.103
2.536,-0.101
2.537,-0.103
2.538,-0.102
2.539,-0.100
2.540,-0.100
2.541,-0.097
2.542,-0.097
2.543,-0.097
2.544,-0.096
2.545,-0.094
2.546,-0.094
2.547,-0.094
2.548,-0.094
2.549,-0.094
2.550,-0.094
2.551,-0.094
2.552,-0.092
2.553,-0.097
2.554,-0.097
2.555,-0.100
2.556,-0.097
2.557,-0.094
2.558,-0.089
2.559,-0.088
2.560,-0.088
2.561,-0.088
2.562,-0.086
2.563,-0.088
2.564,-0.086
2.565,-0.088
2.566,-0.088
2.567,-0.091
2.568,-0.086
2.569,-0.088
2.570,-0.084
2.571,-0.084
2.572,-0.081
2.573,-0.075
2.574,-0.075
2.575,-0.072
2.576,-0.072
2.577,-0.072
2.578,-0.067
2.579,-0.062
2.580,-0.059
2.581,-0.056
2.582,-0.054
2.583,-0.056
2.584,-0.053
2.585,-0.044
2.586,-0.047
2.587,-0.047
2.588,-0.046
2.589,-0.041
2.590,-0.041
2.591,-0.041
2.592,-0.041
2.593,-0.037
2.594,-0.033
2.595,-0.022
2.596,-0.019
2.597,-0.013
2.598,-0.017
2.599,-0.016
2.600,-0.016
2.601,-0.013
2.602,-0.011
2.603,-0.009
2.604,-0.009
2.605,-0.006
2.606,-0.003
2.607,0.000
2.608,0.006
2.609,0.013
2.610,0.019
2.611,0.025
2.612,0.024
2.613,0.025
2.614,0.029
2.615,0.034
2.616,0.037
2.617,0.037
2.618,0.041
2.619,0.044
2.620,0.044
2.621,0.047
2.622,0.048
2.623,0.053
2.624,0.055
2.625,0.053
2.626,0.053
2.627,0.053
2.628,0.056
2.629,0.056
2.630,0.062
2.631,0.066
2.632,0.062
2.633,0.066
2.634,0.067
2.635,0.066
2.636,0.070
2.637,0.069
2.638,0.069
2.639,0.072
2.640,0.069
2.641,0.069
2.642,0.067
2.643,0.069
2.644,0.073
2.645,0.075
2.646,0.076
2.647,0.078
2.648,0.075
2.649,0.075
2.650,0.077
2.651,0.075
2.652,0.074
2.653,0.072
2.654,0.076
2.655,0.081
2.656,0.081
2.657,0.081
2.658,0.080
2.659,0.078
2.660,0.081
2.661,0.084
2.662,0.084
2.663,0.084
2.664,0.084
2.665,0.084
2.666,0.086
2.667,0.084
2.668,0.086
2.669,0.084
2.670,0.084
2.671,0.084
2.672,0.088
2.673,0.091
2.674,0.089
2.675,0.091
2.676,0.091
2.677,0.091
2.678,0.091
2.679,0.088
2.680,0.091
2.681,0.091
2.682,0.094
2.683,0.097
2.684,0.098
2.685,0.103
2.686,0.102
2.687,0.103
2.688,0.104
2.689,0.103
2.690,0.107
2.691,0.106
2.692,0.103
2.693,0.103
2.694,0.103
2.695,0.103
2.696,0.102
2.697,0.100
2.698,0.101
2.699,0.103
2.700,0.097
2.701,0.094
2.702,0.091
2.703,0.088
2.704,0.088
2.705,0.081
2.706,0.081
2.707,0.081
2.708,0.082
2.709,0.081
2.710,0.079
2.711,0.078
2.712,0.072
2.713,0.069
2.714,0.067
2.715,0.066
2.716,0.064
2.717,0.066
2.718,0.058
2.719,0.053
2.720,0.051
2.721,0.050
2.722,0.048
2.723,0.047
2.724,0.039
2.725,0.037
2.726,0.036
2.727,0.037
2.728,0.032
2.729,0.031
2.730,0.032
2.731,0.031
2.732,0.027
2.733,0.025
2.734,0.021
2.735,0.016
2.736,0.014
2.737,0.016
2.738,0.011
2.739,0.009
2.740,0.009
2.741,0.009
2.742,0.003
2.743,-0.003
2.744,-0.007
2.745,-0.009
2.746,-0.011
2.747,-0.016
2.748,-0.014
2.749,-0.016
2.750,-0.014
2.751,-0.013
2.752,-0.017
2.753,-0.019
2.754,-0.019
2.755,-0.019
2.756,-0.025
2.757,-0.028
2.758,-0.028
2.759,-0.031
2.760,-0.030
2.761,-0.028
2.762,-0.030
2.763,-0.028
2.764,-0.028
2.765,-0.028
2.766,-0.032
2.767,-0.037
2.768,-0.039
2.769,-0.041
2.770,-0.037
2.771,-0.031
2.772,-0.030
2.773,-0.031
2.774,-0.032
2.775,-0.034
2.776,-0.037
2.777,-0.037
2.778,-0.039
2.779,-0.037
2.780,-0.037
2.781,-0.041
2.782,-0.042
2.783,-0.044
2.784,-0.041
2.785,-0.044
2.786,-0.044
2.787,-0.044
2.788,-0.041
2.789,-0.037
2.790,-0.044
2.791,-0.047
2.792,-0.048
2.793,-0.050
2.794,-0.050
2.795,-0.050
2.796,-0.051
2.797,-0.050
2.798,-0.053
2.799,-0.053
2.800,-0.052
2.801,-0.050
2.802,-0.054
2.803,-0.056
2.804,-0.058
2.805,-0.062
2.806,-0.066
2.807,-0.062
2.808,-0.056
2.809,-0.056
2.810,-0.056
2.811,-0.056
2.812,-0.064
2.813,-0.069
2.814,-0.067
2.815,-0.069
2.816,-0.073
2.817,-0.072
2.818,-0.072
2.819,-0.072
2.820,-0.073
2.821,-0.075
2.822,-0.072
2.823,-0.072
2.824,-0.070
2.825,-0.072
2.826,-0.072
2.827,-0.072
2.828,-0.075
2.829,-0.078
2.830,-0.081
2.831,-0.081
2.832,-0.077
2.833,-0.078
2.834,-0.079
2.835,-0.081
2.836,-0.081
2.837,-0.084
2.838,-0.083
2.839,-0.084
2.840,-0.081
2.841,-0.084
2.842,-0.086
2.843,-0.088
2.844,-0.088
2.845,-0.088
2.846,-0.091
2.847,-0.091
2.848,-0.094
2.849,-0.097
2.850,-0.097
2.851,-0.097
2.852,-0.099
2.853,-0.094
2.854,-0.096
2.855,-0.094
2.856,-0.094
2.857,-0.097
2.858,-0.094
2.859,-0.094
2.860,-0.094
2.861,-0.091
2.862,-0.091
2.863,-0.091
2.864,-0.094
2.865,-0.091
2.866,-0.092
2.867,-0.094
2.868,-0.094
2.869,-0.097
2.870,-0.100
2.871,-0.103
2.872,-0.105
2.873,-0.103
2.874,-0.100
2.875,-0.094
2.876,-0.095
2.877,-0.094
2.878,-0.092
2.879,-0.091
2.880,-0.086
2.881,-0.078
2.882,-0.076
2.883,-0.069
2.884,-0.062
2.885,-0.053
2.886,-0.053
2.887,-0.044
2.888,-0.036
2.889,-0.025
2.890,-0.016
2.891,-0.013
2.892,-0.008
2.893,0.000
2.894,0.002
2.895,0.003
2.896,0.005
2.897,0.006
2.898,0.009
2.899,0.009
2.900,0.006
2.901,0.006
2.902,0.009
2.903,0.019
2.904,0.022
2.905,0.022
2.906,0.025
2.907,0.028
2.908,0.034
2.909,0.044
2.910,0.050
2.911,0.059
2.912,0.072
2.913,0.084
2.914,0.095
2.915,0.106
2.916,0.114
2.917,0.119
2.918,0.121
2.919,0.122
2.920,0.119
2.921,0.119
2.922,0.122
2.923,0.122
2.924,0.118
2.925,0.119
2.926,0.118
2.927,0.116
2.928,0.111
2.929,0.106
2.930,0.106
2.931,0.106
2.932,0.106
2.933,0.103
2.934,0.096
2.935,0.088
2.936,0.082
2.937,0.081
2.938,0.081
2.939,0.078
2.940,0.074
2.941,0.066
2.942,0.059
2.943,0.050
2.944,0.045
2.945,0.031
2.946,0.022
2.947,0.009
2.948,-0.003
2.949,-0.016
2.950,-0.022
2.951,-0.025
2.952,-0.036
2.953,-0.044
2.954,-0.052
2.955,-0.059
2.956,-0.064
2.957,-0.072
2.958,-0.078
2.959,-0.088
2.960,-0.094
2.961,-0.100
2.962,-0.107
2.963,-0.116
2.964,-0.114
2.965,-0.119
2.966,-0.121
2.967,-0.125
2.968,-0.133
2.969,-0.141
2.970,-0.147
2.971,-0.153
2.972,-0.153
2.973,-0.156
2.974,-0.156
2.975,-0.159
2.976,-0.158
2.977,-0.159
2.978,-0.161
2.979,-0.163
2.980,-0.164
2.981,-0.166
2.982,-0.166
2.983,-0.166
2.984,-0.168
2.985,-0.166
2.986,-0.168
2.987,-0.169
2.988,-0.172
2.989,-0.175
2.990,-0.174
2.991,-0.172
2.992,-0.173
2.993,-0.175
2.994,-0.172
2.995,-0.169
2.996,-0.168
2.997,-0.166
2.998,-0.170
2.999,-0.175
3.000,-0.178
3.001,-0.178
3.002,-0.183
3.003,-0.181
3.004,-0.177
3.005,-0.172
3.006,-0.169
3.007,-0.169
3.008,-0.169
3.009,-0.169
3.010,-0.169
3.011,-0.169
3.012,-0.169
3.013,-0.169
3.014,-0.167
3.015,-0.169
3.016,-0.169
3.017,-0.169
3.018,-0.172
3.019,-0.172
3.020,-0.169
3.021,-0.169
3.022,-0.168
3.023,-0.166
3.024,-0.164
3.025,-0.166
3.026,-0.170
3.027,-0.175
3.028,-0.189
3.029,-0.200
3.030,-0.205
3.031,-0.206
3.032,-0.204
3.033,-0.197
3.034,-0.187
3.035,-0.172
3.036,-0.158
3.037,-0.144
3.038,-0.122
3.039,-0.100
3.040,-0.066
3.041,-0.028
3.042,0.003
3.043,0.037
3.044,0.088
3.045,0.141
3.046,0.203
3.047,0.275
3.048,0.359
3.049,0.444
3.050,0.541
3.051,0.638
3.052,0.739
3.053,0.844
3.054,0.951
3.055,1.062
3.056,1.158
3.057,1.253
3.058,1.334
3.059,1.409
3.060,1.458
3.061,1.500
3.062,1.506
3.063,1.497
3.064,1.441
3.065,1.378
3.066,1.289
3.067,1.194
3.068,1.074
3.069,0.950
3.070,0.806
3.071,0.656
3.072,0.511
3.073,0.375
3.074,0.250
3.075,0.128
3.076,0.031
3.077,-0.062
3.078,-0.105
3.079,-0.138
3.080,-0.159
3.081,-0.153
3.082,-0.148
3.083,-0.150
3.084,-0.147
3.085,-0.147
3.086,-0.142
3.087,-0.138
3.088,-0.133
3.089,-0.131
3.090,-0.128
3.091,-0.125
3.092,-0.125
3.093,-0.125
3.094,-0.119
3.095,-0.116
3.096,-0.112
3.097,-0.112
3.098,-0.109
3.099,-0.106
3.100,-0.109
3.101,-0.109
3.102,-0.111
3.103,-0.112
3.104,-0.117
3.105,-0.119
3.106,-0.120
3.107,-0.122
3.108,-0.125
3.109,-0.125
3.110,-0.125
3.111,-0.128
3.112,-0.126
3.113,-0.128
3.114,-0.128
3.115,-0.128
3.116,-0.128
3.117,-0.131
3.118,-0.125
3.119,-0.128
3.120,-0.129
3.121,-0.128
3.122,-0.128
3.123,-0.128
3.124,-0.129
3.125,-0.131
3.126,-0.134
3.127,-0.131
3.128,-0.130
3.129,-0.128
3.130,-0.129
3.131,-0.131
3.132,-0.133
3.133,-0.131
3.134,-0.128
3.135,-0.122
3.136,-0.121
3.137,-0.116
3.138,-0.114
3.139,-0.109
3.140,-0.109
3.141,-0.109
3.142,-0.112
3.143,-0.112
3.144,-0.111
3.145,-0.112
3.146,-0.111
3.147,-0.112
3.148,-0.111
3.149,-0.109
3.150,-0.107
3.151,-0.109
3.152,-0.111
3.153,-0.112
3.154,-0.108
3.155,-0.109
3.156,-0.112
3.157,-0.112
3.158,-0.111
3.159,-0.109
3.160,-0.105
3.161,-0.103
3.162,-0.099
3.163,-0.094
3.164,-0.098
3.165,-0.100
3.166,-0.103
3.167,-0.103
3.168,-0.101
3.169,-0.103
3.170,-0.106
3.171,-0.103
3.172,-0.096
3.173,-0.094
3.174,-0.094
3.175,-0.094
3.176,-0.094
3.177,-0.094
3.178,-0.095
3.179,-0.094
3.180,-0.094
3.181,-0.094
3.182,-0.092
3.183,-0.088
3.184,-0.091
3.185,-0.088
3.186,-0.088
3.187,-0.088
3.188,-0.088
3.189,-0.088
3.190,-0.086
3.191,-0.088
3.192,-0.088
3.193,-0.088
3.194,-0.084
3.195,-0.081
3.196,-0.081
3.197,-0.081
3.198,-0.082
3.199,-0.084
3.200,-0.084
3.201,-0.081
3.202,-0.083
3.203,-0.078
3.204,-0.077
3.205,-0.075
3.206,-0.076
3.207,-0.075
3.208,-0.076
3.209,-0.078
3.210,-0.079
3.211,-0.078
3.212,-0.077
3.213,-0.075
3.214,-0.077
3.215,-0.072
3.216,-0.075
3.217,-0.072
3.218,-0.071
3.219,-0.066
3.220,-0.066
3.221,-0.066
3.222,-0.061
3.223,-0.059
3.224,-0.056
3.225,-0.056
3.226,-0.056
3.227,-0.053
3.228,-0.051
3.229,-0.050
3.230,-0.047
3.231,-0.044
3.232,-0.041
3.233,-0.037
3.234,-0.032
3.235,-0.034
3.236,-0.032
3.237,-0.034
3.238,-0.030
3.239,-0.025
3.240,-0.021
3.241,-0.019
3.242,-0.020
3.243,-0.022
3.244,-0.011
3.245,-0.009
3.246,-0.003
3.247,0.000
3.248,0.009
3.249,0.013
3.250,0.016
3.251,0.019
3.252,0.022
3.253,0.022
3.254,0.024
3.255,0.025
3.256,0.027
3.257,0.028
3.258,0.032
3.259,0.037
3.260,0.041
3.261,0.041
3.262,0.041
3.263,0.041
3.264,0.044
3.265,0.047
3.266,0.051
3.267,0.059
3.268,0.062
3.269,0.062
3.270,0.064
3.271,0.062
3.272,0.069
3.273,0.075
3.274,0.074
3.275,0.072
3.276,0.071
3.277,0.072
3.278,0.073
3.279,0.078
3.280,0.079
3.281,0.081
3.282,0.086
3.283,0.084
3.284,0.081
3.285,0.084
3.286,0.082
3.287,0.084
3.288,0.088
3.289,0.084
3.290,0.084
3.291,0.084
3.292,0.084
3.293,0.084
3.294,0.084
3.295,0.084
3.296,0.088
3.297,0.088
3.298,0.086
3.299,0.088
3.300,0.086
3.301,0.084
3.302,0.088
3.303,0.091
3.304,0.092
3.305,0.094
3.306,0.092
3.307,0.091
3.308,0.089
3.309,0.088
3.310,0.086
3.311,0.084
3.312,0.086
3.313,0.088
3.314,0.088
3.315,0.091
3.316,0.092
3.317,0.097
3.318,0.097
3.319,0.097
3.320,0.096
3.321,0.094
3.322,0.094
3.323,0.094
3.324,0.098
3.325,0.100
3.326,0.100
3.327,0.100
3.328,0.097
3.329,0.100
3.330,0.097
3.331,0.094
3.332,0.094
3.333,0.094
3.334,0.098
3.335,0.100
3.336,0.104
3.337,0.106
3.338,0.103
3.339,0.106
3.340,0.104
3.341,0.103
3.342,0.103
3.343,0.103
3.344,0.102
3.345,0.100
3.346,0.103
3.347,0.106
3.348,0.106
3.349,0.103
3.350,0.103
3.351,0.100
3.352,0.097
3.353,0.100
3.354,0.098
3.355,0.097
3.356,0.089
3.357,0.084
3.358,0.082
3.359,0.081
3.360,0.078
3.361,0.075
3.362,0.076
3.363,0.075
3.364,0.072
3.365,0.069
3.366,0.067
3.367,0.059
3.368,0.053
3.369,0.047
3.370,0.045
3.371,0.044
3.372,0.041
3.373,0.034
3.374,0.036
3.375,0.034
3.376,0.034
3.377,0.028
3.378,0.019
3.379,0.013
3.380,0.013
3.381,0.013
3.382,0.011
3.383,0.006
3.384,0.004
3.385,0.003
3.386,0.003
3.387,0.000
3.388,0.003
3.389,0.003
3.390,-0.003
3.391,-0.009
3.392,-0.011
3.393,-0.013
3.394,-0.014
3.395,-0.016
3.396,-0.017
3.397,-0.016
3.398,-0.020
3.399,-0.022
3.400,-0.026
3.401,-0.034
3.402,-0.033
3.403,-0.031
3.404,-0.031
3.405,-0.034
3.406,-0.033
3.407,-0.031
3.408,-0.034
3.409,-0.034
3.410,-0.039
3.411,-0.047
3.412,-0.047
3.413,-0.047
3.414,-0.047
3.415,-0.047
3.416,-0.048
3.417,-0.050
3.418,-0.049
3.419,-0.050
3.420,-0.050
3.421,-0.050
3.422,-0.053
3.423,-0.053
3.424,-0.054
3.425,-0.056
3.426,-0.054
3.427,-0.059
3.428,-0.059
3.429,-0.059
3.430,-0.061
3.431,-0.059
3.432,-0.059
3.433,-0.056
3.434,-0.059
3.435,-0.059
3.436,-0.056
3.437,-0.053
3.438,-0.052
3.439,-0.053
3.440,-0.056
3.441,-0.059
3.442,-0.061
3.443,-0.062
3.444,-0.062
3.445,-0.062
3.446,-0.059
3.447,-0.062
3.448,-0.059
3.449,-0.056
3.450,-0.058
3.451,-0.062
3.452,-0.062
3.453,-0.062
3.454,-0.062
3.455,-0.062
3.456,-0.059
3.457,-0.056
3.458,-0.061
3.459,-0.062
3.460,-0.066
3.461,-0.069
3.462,-0.072
3.463,-0.075
3.464,-0.078
3.465,-0.078
3.466,-0.072
3.467,-0.072
3.468,-0.073
3.469,-0.075
3.470,-0.074
3.471,-0.075
3.472,-0.078
3.473,-0.084
3.474,-0.081
3.475,-0.084
3.476,-0.080
3.477,-0.075
3.478,-0.076
3.479,-0.078
3.480,-0.081
3.481,-0.081
3.482,-0.081
3.483,-0.081
3.484,-0.082
3.485,-0.084
3.486,-0.089
3.487,-0.088
3.488,-0.091
3.489,-0.091
3.490,-0.084
3.491,-0.081
3.492,-0.080
3.493,-0.081
3.494,-0.086
3.495,-0.088
3.496,-0.089
3.497,-0.091
3.498,-0.094
3.499,-0.091
3.500,-0.092
3.501,-0.094
3.502,-0.092
3.503,-0.094
3.504,-0.097
3.505,-0.100
3.506,-0.099
3.507,-0.094
3.508,-0.094
3.509,-0.091
3.510,-0.089
3.511,-0.084
3.512,-0.084
3.513,-0.084
3.514,-0.082
3.515,-0.078
3.516,-0.074
3.517,-0.062
3.518,-0.058
3.519,-0.050
3.520,-0.048
3.521,-0.037
3.522,-0.036
3.523,-0.031
3.524,-0.019
3.525,-0.013
3.526,-0.011
3.527,-0.006
3.528,-0.004
3.529,-0.003
3.530,0.000
3.531,0.003
3.532,0.004
3.533,0.003
3.534,0.000
3.535,0.000
3.536,-0.001
3.537,0.003
3.538,0.014
3.539,0.022
3.540,0.025
3.541,0.028
3.542,0.033
3.543,0.041
3.544,0.048
3.545,0.059
3.546,0.070
3.547,0.081
3.548,0.094
3.549,0.106
3.550,0.112
3.551,0.116
3.552,0.121
3.553,0.125
3.554,0.123
3.555,0.125
3.556,0.125
3.557,0.122
3.558,0.119
3.559,0.122
3.560,0.122
3.561,0.122
3.562,0.120
3.563,0.119
3.564,0.108
3.565,0.097
3.566,0.095
3.567,0.091
3.568,0.088
3.569,0.084
3.570,0.081
3.571,0.081
3.572,0.084
3.573,0.084
3.574,0.081
3.575,0.075
3.576,0.062
3.577,0.047
3.578,0.039
3.579,0.022
3.580,0.016
3.581,0.006
3.582,0.001
3.583,-0.003
3.584,-0.013
3.585,-0.019
3.586,-0.034
3.587,-0.047
3.588,-0.055
3.589,-0.062
3.590,-0.066
3.591,-0.072
3.592,-0.078
3.593,-0.088
3.594,-0.094
3.595,-0.100
3.596,-0.107
3.597,-0.116
3.598,-0.118
3.599,-0.125
3.600,-0.129
3.601,-0.138
3.602,-0.141
3.603,-0.144
3.604,-0.150
3.605,-0.156
3.606,-0.155
3.607,-0.156
3.608,-0.156
3.609,-0.159
3.610,-0.159
3.611,-0.163
3.612,-0.161
3.613,-0.159
3.614,-0.161
3.615,-0.163
3.616,-0.163
3.617,-0.163
3.618,-0.166
3.619,-0.166
3.620,-0.168
3.621,-0.169
3.622,-0.168
3.623,-0.166
3.624,-0.164
3.625,-0.163
3.626,-0.164
3.627,-0.166
3.628,-0.166
3.629,-0.166
3.630,-0.166
3.631,-0.166
3.632,-0.166
3.633,-0.166
3.634,-0.168
3.635,-0.166
3.636,-0.176
3.637,-0.181
3.638,-0.183
3.639,-0.184
3.640,-0.177
3.641,-0.172
3.642,-0.169
3.643,-0.166
3.644,-0.166
3.645,-0.166
3.646,-0.164
3.647,-0.163
3.648,-0.164
3.649,-0.169
3.650,-0.170
3.651,-0.172
3.652,-0.175
3.653,-0.175
3.654,-0.169
3.655,-0.166
3.656,-0.167
3.657,-0.169
3.658,-0.168
3.659,-0.169
3.660,-0.172
3.661,-0.175
3.662,-0.183
3.663,-0.187
3.664,-0.193
3.665,-0.194
3.666,-0.197
3.667,-0.194
3.668,-0.183
3.669,-0.166
3.670,-0.152
3.671,-0.138
3.672,-0.112
3.673,-0.088
3.674,-0.050
3.675,-0.009
3.676,0.031
3.677,0.075
3.678,0.131
3.679,0.191
3.680,0.256
3.681,0.331
3.682,0.417
3.683,0.503
3.684,0.596
3.685,0.688
3.686,0.780
3.687,0.875
3.688,0.975
3.689,1.078
3.690,1.169
3.691,1.259
3.692,1.337
3.693,1.409
3.694,1.461
3.695,1.506
3.696,1.503
3.697,1.484
3.698,1.414
3.699,1.337
3.700,1.236
3.701,1.128
3.702,0.999
3.703,0.866
3.704,0.713
3.705,0.553
3.706,0.406
3.707,0.269
3.708,0.156
3.709,0.047
3.710,-0.031
3.711,-0.106
3.712,-0.138
3.713,-0.159
3.714,-0.180
3.715,-0.172
3.716,-0.167
3.717,-0.169
3.718,-0.161
3.719,-0.156
3.720,-0.153
3.721,-0.150
3.722,-0.147
3.723,-0.147
3.724,-0.141
3.725,-0.134
3.726,-0.133
3.727,-0.131
3.728,-0.126
3.729,-0.125
3.730,-0.119
3.731,-0.116
3.732,-0.114
3.733,-0.112
3.734,-0.119
3.735,-0.122
3.736,-0.122
3.737,-0.122
3.738,-0.122
3.739,-0.119
3.740,-0.120
3.741,-0.122
3.742,-0.125
3.743,-0.125
3.744,-0.121
3.745,-0.119
3.746,-0.117
3.747,-0.119
3.748,-0.119
3.749,-0.119
3.750,-0.119
3.751,-0.122
3.752,-0.114
3.753,-0.116
3.754,-0.119
3.755,-0.119
3.756,-0.120
3.757,-0.122
3.758,-0.121
3.759,-0.119
3.760,-0.119
3.761,-0.112
3.762,-0.112
3.763,-0.112
3.764,-0.116
3.765,-0.119
3.766,-0.122
3.767,-0.122
3.768,-0.122
3.769,-0.119
3.770,-0.118
3.771,-0.112
3.772,-0.111
3.773,-0.106
3.774,-0.103
3.775,-0.100
3.776,-0.104
3.777,-0.106
3.778,-0.104
3.779,-0.106
3.780,-0.103
3.781,-0.103
3.782,-0.104
3.783,-0.106
3.784,-0.102
3.785,-0.100
3.786,-0.099
3.787,-0.097
3.788,-0.094
3.789,-0.097
3.790,-0.100
3.791,-0.100
3.792,-0.100
3.793,-0.100
3.794,-0.098
3.795,-0.100
3.796,-0.097
3.797,-0.094
3.798,-0.092
3.799,-0.088
3.800,-0.089
3.801,-0.088
3.802,-0.086
3.803,-0.088
3.804,-0.091
3.805,-0.088
3.806,-0.083
3.807,-0.084
3.808,-0.084
3.809,-0.084
3.810,-0.084
3.811,-0.084
3.812,-0.088
3.813,-0.088
3.814,-0.088
3.815,-0.088
3.816,-0.088
3.817,-0.084
3.818,-0.088
3.819,-0.084
3.820,-0.086
3.821,-0.088
3.822,-0.086
3.823,-0.084
3.824,-0.081
3.825,-0.081
3.826,-0.081
3.827,-0.081
3.828,-0.080
3.829,-0.078
3.830,-0.078
3.831,-0.078
3.832,-0.074
3.833,-0.069
3.834,-0.070
3.835,-0.069
3.836,-0.073
3.837,-0.072
3.838,-0.072
3.839,-0.072
3.840,-0.073
3.841,-0.072
3.842,-0.072
3.843,-0.072
3.844,-0.073
3.845,-0.072
3.846,-0.072
3.847,-0.072
3.848,-0.076
3.849,-0.075
3.850,-0.076
3.851,-0.072
3.852,-0.072
3.853,-0.069
3.854,-0.067
3.855,-0.066
3.856,-0.059
3.857,-0.056
3.858,-0.054
3.859,-0.056
3.860,-0.055
3.861,-0.050
3.862,-0.044
3.863,-0.037
3.864,-0.037
3.865,-0.037
3.866,-0.036
3.867,-0.034
3.868,-0.031
3.869,-0.034
3.870,-0.032
3.871,-0.034
3.872,-0.031
3.873,-0.028
3.874,-0.021
3.875,-0.016
3.876,-0.011
3.877,-0.006
3.878,0.002
3.879,0.000
3.880,0.002
3.881,0.000
3.882,0.006
3.883,0.006
3.884,0.014
3.885,0.022
3.886,0.024
3.887,0.022
3.888,0.024
3.889,0.025
3.890,0.025
3.891,0.025
3.892,0.027
3.893,0.028
3.894,0.032
3.895,0.034
3.896,0.037
3.897,0.041
3.898,0.044
3.899,0.047
3.900,0.046
3.901,0.047
3.902,0.051
3.903,0.053
3.904,0.056
3.905,0.056
3.906,0.058
3.907,0.059
3.908,0.061
3.909,0.062
3.910,0.064
3.911,0.069
3.912,0.067
3.913,0.069
3.914,0.067
3.915,0.066
3.916,0.071
3.917,0.069
3.918,0.066
3.919,0.069
3.920,0.069
3.921,0.072
3.922,0.076
3.923,0.075
3.924,0.075
3.925,0.075
3.926,0.079
3.927,0.084
3.928,0.084
3.929,0.084
3.930,0.084
3.931,0.081
3.932,0.077
3.933,0.075
3.934,0.074
3.935,0.072
3.936,0.075
3.937,0.078
3.938,0.079
3.939,0.081
3.940,0.081
3.941,0.081
3.942,0.081
3.943,0.081
3.944,0.082
3.945,0.084
3.946,0.084
3.947,0.084
3.948,0.083
3.949,0.084
3.950,0.083
3.951,0.084
3.952,0.083
3.953,0.081
3.954,0.081
3.955,0.081
3.956,0.081
3.957,0.081
3.958,0.083
3.959,0.081
3.960,0.082
3.961,0.084
3.962,0.082
3.963,0.088
3.964,0.088
3.965,0.088
3.966,0.088
3.967,0.088
3.968,0.089
3.969,0.088
3.970,0.094
3.971,0.097
3.972,0.094
3.973,0.097
3.974,0.098
3.975,0.100
3.976,0.099
3.977,0.097
3.978,0.097
3.979,0.097
3.980,0.097
3.981,0.097
3.982,0.096
3.983,0.091
3.984,0.092
3.985,0.091
3.986,0.086
3.987,0.088
3.988,0.086
3.989,0.084
3.990,0.077
3.991,0.072
3.992,0.066
3.993,0.059
3.994,0.056
3.995,0.053
3.996,0.058
3.997,0.059
3.998,0.059
3.999,0.059
4.000,0.061
4.001,0.056
4.002,0.052
4.003,0.047
4.004,0.041
4.005,0.034
4.006,0.032
4.007,0.028
4.008,0.025
4.009,0.019
4.010,0.019
4.011,0.013
4.012,0.011
4.013,0.013
4.014,0.011
4.015,0.009
4.016,0.008
4.017,0.003
4.018,-0.001
4.019,-0.006
4.020,-0.007
4.021,-0.013
4.022,-0.011
4.023,-0.013
4.024,-0.013
4.025,-0.013
4.026,-0.019
4.027,-0.025
4.028,-0.025
4.029,-0.025
4.030,-0.028
4.031,-0.028
4.032,-0.031
4.033,-0.031
4.034,-0.034
4.035,-0.041
4.036,-0.039
4.037,-0.037
4.038,-0.037
4.039,-0.041
4.040,-0.042
4.041,-0.044
4.042,-0.046
4.043,-0.044
4.044,-0.045
4.045,-0.050
4.046,-0.051
4.047,-0.053
4.048,-0.053
4.049,-0.053
4.050,-0.049
4.051,-0.044
4.052,-0.047
4.053,-0.053
4.054,-0.053
4.055,-0.053
4.056,-0.056
4.057,-0.056
4.058,-0.058
4.059,-0.059
4.060,-0.058
4.061,-0.062
4.062,-0.061
4.063,-0.059
4.064,-0.062
4.065,-0.062
4.066,-0.064
4.067,-0.062
4.068,-0.064
4.069,-0.062
4.070,-0.061
4.071,-0.059
4.072,-0.061
4.073,-0.066
4.074,-0.066
4.075,-0.066
4.076,-0.066
4.077,-0.066
4.078,-0.067
4.079,-0.069
4.080,-0.067
4.081,-0.069
4.082,-0.069
4.083,-0.069
4.084,-0.067
4.085,-0.066
4.086,-0.070
4.087,-0.072
4.088,-0.069
4.089,-0.072
4.090,-0.072
4.091,-0.072
4.092,-0.069
4.093,-0.069
4.094,-0.069
4.095,-0.072
4.096,-0.070
4.097,-0.075
4.098,-0.078
4.099,-0.081
4.100,-0.081
4.101,-0.081
4.102,-0.086
4.103,-0.088
4.104,-0.084
4.105,-0.081
4.106,-0.080
4.107,-0.078
4.108,-0.082
4.109,-0.081
4.110,-0.088
4.111,-0.091
4.112,-0.088
4.113,-0.088
4.114,-0.084
4.115,-0.084
4.116,-0.088
4.117,-0.088
4.118,-0.088
4.119,-0.088
4.120,-0.094
4.121,-0.094
4.122,-0.096
4.123,-0.097
4.124,-0.097
4.125,-0.100
4.126,-0.097
4.127,-0.094
4.128,-0.097
4.129,-0.097
4.130,-0.098
4.131,-0.097
4.132,-0.096
4.133,-0.091
4.134,-0.091
4.135,-0.091
4.136,-0.086
4.137,-0.078
4.138,-0.074
4.139,-0.062
4.140,-0.059
4.141,-0.053
4.142,-0.050
4.143,-0.037
4.144,-0.032
4.145,-0.025
4.146,-0.019
4.147,-0.019
4.148,-0.019
4.149,-0.016
4.150,-0.009
4.151,-0.003
4.152,-0.001
4.153,0.000
4.154,0.001
4.155,0.000
4.156,-0.003
4.157,-0.003
4.158,0.003
4.159,0.016
4.160,0.022
4.161,0.025
4.162,0.024
4.163,0.022
4.164,0.029
4.165,0.041
4.166,0.047
4.167,0.056
4.168,0.062
4.169,0.069
4.170,0.077
4.171,0.084
4.172,0.100
4.173,0.112
4.174,0.119
4.175,0.125
4.176,0.123
4.177,0.125
4.178,0.128
4.179,0.128
4.180,0.124
4.181,0.125
4.182,0.125
4.183,0.125
4.184,0.125
4.185,0.125
4.186,0.121
4.187,0.116
4.188,0.111
4.189,0.103
4.190,0.097
4.191,0.091
4.192,0.088
4.193,0.088
4.194,0.084
4.195,0.078
4.196,0.075
4.197,0.069
4.198,0.066
4.199,0.059
4.200,0.056
4.201,0.044
4.202,0.031
4.203,0.016
4.204,0.002
4.205,-0.013
4.206,-0.020
4.207,-0.025
4.208,-0.033
4.209,-0.037
4.210,-0.048
4.211,-0.059
4.212,-0.062
4.213,-0.069
4.214,-0.071
4.215,-0.075
4.216,-0.084
4.217,-0.094
4.218,-0.100
4.219,-0.106
4.220,-0.108
4.221,-0.116
4.222,-0.122
4.223,-0.131
4.224,-0.133
4.225,-0.134
4.226,-0.139
4.227,-0.144
4.228,-0.148
4.229,-0.156
4.230,-0.156
4.231,-0.159
4.232,-0.158
4.233,-0.159
4.234,-0.161
4.235,-0.163
4.236,-0.166
4.237,-0.169
4.238,-0.169
4.239,-0.169
4.240,-0.169
4.241,-0.166
4.242,-0.172
4.243,-0.178
4.244,-0.178
4.245,-0.178
4.246,-0.175
4.247,-0.172
4.248,-0.171
4.249,-0.169
4.250,-0.169
4.251,-0.169
4.252,-0.172
4.253,-0.175
4.254,-0.174
4.255,-0.172
4.256,-0.172
4.257,-0.169
4.258,-0.173
4.259,-0.172
4.260,-0.172
4.261,-0.172
4.262,-0.172
4.263,-0.175
4.264,-0.175
4.265,-0.175
4.266,-0.176
4.267,-0.178
4.268,-0.177
4.269,-0.175
4.270,-0.172
4.271,-0.172
4.272,-0.172
4.273,-0.172
4.274,-0.175
4.275,-0.175
4.276,-0.175
4.277,-0.178
4.278,-0.175
4.279,-0.172
4.280,-0.171
4.281,-0.172
4.282,-0.175
4.283,-0.178
4.284,-0.189
4.285,-0.197
4.286,-0.203
4.287,-0.206
4.288,-0.213
4.289,-0.213
4.290,-0.211
4.291,-0.203
4.292,-0.189
4.293,-0.175
4.294,-0.153
4.295,-0.131
4.296,-0.096
4.297,-0.056
4.298,-0.020
4.299,0.019
4.300,0.064
4.301,0.112
4.302,0.166
4.303,0.228
4.304,0.311
4.305,0.394
4.306,0.484
4.307,0.575
4.308,0.674
4.309,0.775
4.310,0.874
4.311,0.975
4.312,1.072
4.313,1.169
4.314,1.254
4.315,1.334
4.316,1.404
4.317,1.469
4.318,1.509
4.319,1.534
4.320,1.487
4.321,1.434
4.322,1.345
4.323,1.250
4.324,1.134
4.325,1.016
4.326,0.875
4.327,0.728
4.328,0.564
4.329,0.409
4.330,0.281
4.331,0.156
4.332,0.047
4.333,-0.059
4.334,-0.114
4.335,-0.159
4.336,-0.184
4.337,-0.181
4.338,-0.176
4.339,-0.178
4.340,-0.171
4.341,-0.166
4.342,-0.163
4.343,-0.159
4.344,-0.150
4.345,-0.144
4.346,-0.144
4.347,-0.144
4.348,-0.142
4.349,-0.141
4.350,-0.133
4.351,-0.128
4.352,-0.126
4.353,-0.128
4.354,-0.127
4.355,-0.125
4.356,-0.128
4.357,-0.128
4.358,-0.128
4.359,-0.128
4.360,-0.133
4.361,-0.134
4.362,-0.133
4.363,-0.131
4.364,-0.133
4.365,-0.131
4.366,-0.130
4.367,-0.131
4.368,-0.131
4.369,-0.134
4.370,-0.133
4.371,-0.131
4.372,-0.133
4.373,-0.138
4.374,-0.133
4.375,-0.138
4.376,-0.139
4.377,-0.138
4.378,-0.134
4.379,-0.131
4.380,-0.130
4.381,-0.128
4.382,-0.133
4.383,-0.131
4.384,-0.130
4.385,-0.128
4.386,-0.128
4.387,-0.128
4.388,-0.131
4.389,-0.131
4.390,-0.134
4.391,-0.134
4.392,-0.133
4.393,-0.128
4.394,-0.128
4.395,-0.125
4.396,-0.124
4.397,-0.122
4.398,-0.122
4.399,-0.119
4.400,-0.117
4.401,-0.119
4.402,-0.117
4.403,-0.119
4.404,-0.120
4.405,-0.122
4.406,-0.120
4.407,-0.122
4.408,-0.121
4.409,-0.119
4.410,-0.114
4.411,-0.116
4.412,-0.112
4.413,-0.106
4.414,-0.106
4.415,-0.106
4.416,-0.104
4.417,-0.106
4.418,-0.106
4.419,-0.106
4.420,-0.106
4.421,-0.103
4.422,-0.103
4.423,-0.100
4.424,-0.094
4.425,-0.091
4.426,-0.095
4.427,-0.094
4.428,-0.091
4.429,-0.094
4.430,-0.094
4.431,-0.094
4.432,-0.097
4.433,-0.100
4.434,-0.100
4.435,-0.097
4.436,-0.092
4.437,-0.088
4.438,-0.089
4.439,-0.088
4.440,-0.091
4.441,-0.088
4.442,-0.088
4.443,-0.088
4.444,-0.086
4.445,-0.084
4.446,-0.081
4.447,-0.081
4.448,-0.084
4.449,-0.088
4.450,-0.088
4.451,-0.088
4.452,-0.086
4.453,-0.084
4.454,-0.084
4.455,-0.084
4.456,-0.081
4.457,-0.075
4.458,-0.079
4.459,-0.078
4.460,-0.078
4.461,-0.078
4.462,-0.079
4.463,-0.078
4.464,-0.077
4.465,-0.075
4.466,-0.074
4.467,-0.069
4.468,-0.069
4.469,-0.069
4.470,-0.073
4.471,-0.072
4.472,-0.075
4.473,-0.072
4.474,-0.071
4.475,-0.066
4.476,-0.066
4.477,-0.066
4.478,-0.064
4.479,-0.066
4.480,-0.058
4.481,-0.053
4.482,-0.053
4.483,-0.050
4.484,-0.048
4.485,-0.047
4.486,-0.041
4.487,-0.034
4.488,-0.036
4.489,-0.037
4.490,-0.032
4.491,-0.034
4.492,-0.028
4.493,-0.025
4.494,-0.021
4.495,-0.016
4.496,-0.009
4.497,-0.006
4.498,-0.004
4.499,-0.003
4.500,0.003
4.501,0.000
4.502,0.003
4.503,0.003
4.504,0.008
4.505,0.006
4.506,0.008
4.507,0.009
4.508,0.016
4.509,0.019
4.510,0.022
4.511,0.025
4.512,0.027
4.513,0.028
4.514,0.030
4.515,0.031
4.516,0.036
4.517,0.037
4.518,0.044
4.519,0.050
4.520,0.056
4.521,0.062
4.522,0.061
4.523,0.062
4.524,0.064
4.525,0.062
4.526,0.064
4.527,0.062
4.528,0.062
4.529,0.062
4.530,0.064
4.531,0.066
4.532,0.064
4.533,0.066
4.534,0.069
4.535,0.075
4.536,0.072
4.537,0.069
4.538,0.075
4.539,0.075
4.540,0.075
4.541,0.081
4.542,0.078
4.543,0.078
4.544,0.080
4.545,0.075
4.546,0.076
4.547,0.078
4.548,0.081
4.549,0.084
4.550,0.086
4.551,0.088
4.552,0.089
4.553,0.088
4.554,0.084
4.555,0.084
4.556,0.088
4.557,0.091
4.558,0.091
4.559,0.091
4.560,0.089
4.561,0.088
4.562,0.088
4.563,0.088
4.564,0.086
4.565,0.084
4.566,0.086
4.567,0.088
4.568,0.088
4.569,0.088
4.570,0.088
4.571,0.091
4.572,0.089
4.573,0.091
4.574,0.091
4.575,0.091
4.576,0.092
4.577,0.094
4.578,0.094
4.579,0.094
4.580,0.096
4.581,0.094
4.582,0.092
4.583,0.091
4.584,0.088
4.585,0.091
4.586,0.092
4.587,0.094
4.588,0.094
4.589,0.094
4.590,0.097
4.591,0.097
4.592,0.100
4.593,0.100
4.594,0.097
4.595,0.100
4.596,0.101
4.597,0.103
4.598,0.103
4.599,0.103
4.600,0.099
4.601,0.094
4.602,0.091
4.603,0.088
4.604,0.089
4.605,0.088
4.606,0.091
4.607,0.091
4.608,0.084
4.609,0.084
4.610,0.084
4.611,0.084
4.612,0.082
4.613,0.084
4.614,0.082
4.615,0.081
4.616,0.075
4.617,0.069
4.618,0.067
4.619,0.062
4.620,0.055
4.621,0.047
4.622,0.051
4.623,0.050
4.624,0.048
4.625,0.047
4.626,0.041
4.627,0.034
4.628,0.034
4.629,0.031
4.630,0.031
4.631,0.028
4.632,0.025
4.633,0.016
4.634,0.013
4.635,0.013
4.636,0.011
4.637,0.009
4.638,0.011
4.639,0.009
4.640,0.006
4.641,0.003
4.642,-0.001
4.643,-0.009
4.644,-0.011
4.645,-0.016
4.646,-0.019
4.647,-0.022
4.648,-0.024
4.649,-0.025
4.650,-0.024
4.651,-0.022
4.652,-0.028
4.653,-0.031
4.654,-0.034
4.655,-0.034
4.656,-0.036
4.657,-0.041
4.658,-0.044
4.659,-0.047
4.660,-0.046
4.661,-0.047
4.662,-0.043
4.663,-0.037
4.664,-0.041
4.665,-0.041
4.666,-0.041
4.667,-0.044
4.668,-0.044
4.669,-0.044
4.670,-0.045
4.671,-0.047
4.672,-0.047
4.673,-0.047
4.674,-0.044
4.675,-0.044
4.676,-0.045
4.677,-0.047
4.678,-0.050
4.679,-0.050
4.680,-0.051
4.681,-0.053
4.682,-0.049
4.683,-0.050
4.684,-0.053
4.685,-0.056
4.686,-0.056
4.687,-0.053
4.688,-0.052
4.689,-0.047
4.690,-0.050
4.691,-0.050
4.692,-0.051
4.693,-0.053
4.694,-0.052
4.695,-0.053
4.696,-0.056
4.697,-0.059
4.698,-0.058
4.699,-0.056
4.700,-0.056
4.701,-0.056
4.702,-0.055
4.703,-0.053
4.704,-0.061
4.705,-0.066
4.706,-0.062
4.707,-0.066
4.708,-0.062
4.709,-0.059
4.710,-0.058
4.711,-0.059
4.712,-0.058
4.713,-0.059
4.714,-0.059
4.715,-0.066
4.716,-0.067
4.717,-0.069
4.718,-0.067
4.719,-0.066
4.720,-0.067
4.721,-0.066
4.722,-0.069
4.723,-0.072
4.724,-0.076
4.725,-0.081
4.726,-0.081
4.727,-0.075
4.728,-0.077
4.729,-0.075
4.730,-0.073
4.731,-0.075
4.732,-0.074
4.733,-0.075
4.734,-0.079
4.735,-0.081
4.736,-0.080
4.737,-0.078
4.738,-0.080
4.739,-0.075
4.740,-0.078
4.741,-0.081
4.742,-0.079
4.743,-0.081
4.744,-0.084
4.745,-0.088
4.746,-0.091
4.747,-0.091
4.748,-0.091
4.749,-0.088
4.750,-0.086
4.751,-0.081
4.752,-0.079
4.753,-0.078
4.754,-0.076
4.755,-0.072
4.756,-0.070
4.757,-0.062
4.758,-0.061
4.759,-0.056
4.760,-0.054
4.761,-0.044
4.762,-0.034
4.763,-0.022
4.764,-0.013
4.765,-0.009
4.766,-0.006
4.767,0.000
4.768,0.003
4.769,0.006
4.770,0.008
4.771,0.009
4.772,0.011
4.773,0.009
4.774,0.006
4.775,0.006
4.776,0.006
4.777,0.013
4.778,0.017
4.779,0.019
4.780,0.023
4.781,0.028
4.782,0.033
4.783,0.041
4.784,0.044
4.785,0.050
4.786,0.064
4.787,0.078
4.788,0.088
4.789,0.097
4.790,0.107
4.791,0.116
4.792,0.123
4.793,0.131
4.794,0.128
4.795,0.128
4.796,0.129
4.797,0.128
4.798,0.124
4.799,0.125
4.800,0.126
4.801,0.128
4.802,0.124
4.803,0.119
4.804,0.114
4.805,0.109
4.806,0.109
4.807,0.106
4.808,0.104
4.809,0.103
4.810,0.092
4.811,0.084
4.812,0.080
4.813,0.072
4.814,0.070
4.815,0.066
4.816,0.059
4.817,0.050
4.818,0.045
4.819,0.031
4.820,0.022
4.821,0.009
4.822,0.000
4.823,-0.009
4.824,-0.017
4.825,-0.022
4.826,-0.031
4.827,-0.037
4.828,-0.047
4.829,-0.056
4.830,-0.064
4.831,-0.075
4.832,-0.078
4.833,-0.084
4.834,-0.089
4.835,-0.094
4.836,-0.103
4.837,-0.112
4.838,-0.120
4.839,-0.134
4.840,-0.136
4.841,-0.141
4.842,-0.147
4.843,-0.153
4.844,-0.153
4.845,-0.153
4.846,-0.156
4.847,-0.163
4.848,-0.166
4.849,-0.172
4.850,-0.171
4.851,-0.172
4.852,-0.172
4.853,-0.172
4.854,-0.172
4.855,-0.172
4.856,-0.171
4.857,-0.169
4.858,-0.175
4.859,-0.178
4.860,-0.181
4.861,-0.184
4.862,-0.183
4.863,-0.181
4.864,-0.181
4.865,-0.181
4.866,-0.181
4.867,-0.181
4.868,-0.183
4.869,-0.184
4.870,-0.184
4.871,-0.184
4.872,-0.184
4.873,-0.184
4.874,-0.186
4.875,-0.184
4.876,-0.191
4.877,-0.191
4.878,-0.191
4.879,-0.191
4.880,-0.184
4.881,-0.181
4.882,-0.183
4.883,-0.184
4.884,-0.186
4.885,-0.187
4.886,-0.187
4.887,-0.187
4.888,-0.186
4.889,-0.187
4.890,-0.183
4.891,-0.178
4.892,-0.181
4.893,-0.181
4.894,-0.179
4.895,-0.181
4.896,-0.181
4.897,-0.181
4.898,-0.180
4.899,-0.181
4.900,-0.180
4.901,-0.178
4.902,-0.194
4.903,-0.206
4.904,-0.214
4.905,-0.219
4.906,-0.219
4.907,-0.213
4.908,-0.206
4.909,-0.194
4.910,-0.180
4.911,-0.166
4.912,-0.150
4.913,-0.134
4.914,-0.102
4.915,-0.066
4.916,-0.029
4.917,0.009
4.918,0.062
4.919,0.119
4.920,0.177
4.921,0.244
4.922,0.331
4.923,0.419
4.924,0.511
4.925,0.603
4.926,0.703
4.927,0.806
4.928,0.908
4.929,1.012
4.930,1.114
4.931,1.216
4.932,1.300
4.933,1.378
4.934,1.441
4.935,1.497
4.936,1.526
4.937,1.541
4.938,1.491
4.939,1.434
4.940,1.341
4.941,1.241
4.942,1.123
4.943,1.003
4.944,0.861
4.945,0.713
4.946,0.556
4.947,0.409
4.948,0.271
4.949,0.134
4.950,0.033
4.951,-0.066
4.952,-0.117
4.953,-0.159
4.954,-0.184
4.955,-0.181
4.956,-0.174
4.957,-0.172
4.958,-0.166
4.959,-0.163
4.960,-0.163
4.961,-0.163
4.962,-0.158
4.963,-0.156
4.964,-0.153
4.965,-0.150
4.966,-0.147
4.967,-0.144
4.968,-0.141
4.969,-0.141
4.970,-0.134
4.971,-0.131
4.972,-0.131
4.973,-0.131
4.974,-0.134
4.975,-0.134
4.976,-0.138
4.977,-0.141
4.978,-0.141
4.979,-0.138
4.980,-0.138
4.981,-0.138
4.982,-0.141
4.983,-0.141
4.984,-0.141
4.985,-0.144
4.986,-0.142
4.987,-0.144
4.988,-0.145
4.989,-0.147
4.990,-0.146
4.991,-0.147
4.992,-0.142
4.993,-0.147
4.994,-0.150
4.995,-0.150
4.996,-0.150
4.997,-0.150
4.998,-0.149
4.999,-0.147
5.000,-0.150
5.001,-0.147
5.002,-0.144
5.003,-0.141
5.004,-0.142
5.005,-0.144
5.006,-0.147
5.007,-0.147
5.008,-0.144
5.009,-0.138
5.010,-0.142
5.011,-0.144
5.012,-0.145
5.013,-0.144
5.014,-0.142
5.015,-0.141
5.016,-0.147
5.017,-0.150
5.018,-0.148
5.019,-0.150
5.020,-0.147
5.021,-0.147
5.022,-0.142
5.023,-0.138
5.024,-0.134
5.025,-0.134
5.026,-0.134
5.027,-0.134
5.028,-0.131
5.029,-0.134
5.030,-0.139
5.031,-0.141
5.032,-0.142
5.033,-0.144
5.034,-0.141
5.035,-0.141
5.036,-0.138
5.037,-0.134
5.038,-0.136
5.039,-0.134
5.040,-0.136
5.041,-0.134
5.042,-0.131
5.043,-0.131
5.044,-0.133
5.045,-0.128
5.046,-0.124
5.047,-0.125
5.048,-0.128
5.049,-0.131
5.050,-0.130
5.051,-0.128
5.052,-0.129
5.053,-0.128
5.054,-0.128
5.055,-0.128
5.056,-0.129
5.057,-0.128
5.058,-0.128
5.059,-0.122
5.060,-0.119
5.061,-0.116
5.062,-0.119
5.063,-0.122
5.064,-0.119
5.065,-0.119
5.066,-0.120
5.067,-0.122
5.068,-0.123
5.069,-0.125
5.070,-0.125
5.071,-0.125
5.072,-0.124
5.073,-0.122
5.074,-0.122
5.075,-0.119
5.076,-0.123
5.077,-0.122
5.078,-0.122
5.079,-0.122
5.080,-0.122
5.081,-0.119
5.082,-0.118
5.083,-0.116
5.084,-0.117
5.085,-0.116
5.086,-0.116
5.087,-0.116
5.088,-0.118
5.089,-0.112
5.090,-0.116
5.091,-0.112
5.092,-0.112
5.093,-0.109
5.094,-0.111
5.095,-0.112
5.096,-0.111
5.097,-0.112
5.098,-0.106
5.099,-0.103
5.100,-0.100
5.101,-0.094
5.102,-0.091
5.103,-0.088
5.104,-0.089
5.105,-0.091
5.106,-0.092
5.107,-0.094
5.108,-0.088
5.109,-0.088
5.110,-0.083
5.111,-0.081
5.112,-0.075
5.113,-0.069
5.114,-0.066
5.115,-0.066
5.116,-0.064
5.117,-0.062
5.118,-0.053
5.119,-0.053
5.120,-0.049
5.121,-0.047
5.122,-0.041
5.123,-0.041
5.124,-0.039
5.125,-0.037
5.126,-0.033
5.127,-0.031
5.128,-0.027
5.129,-0.022
5.130,-0.020
5.131,-0.019
5.132,-0.019
5.133,-0.019
5.134,-0.013
5.135,-0.009
5.136,-0.006
5.137,-0.003
5.138,-0.003
5.139,-0.003
5.140,-0.003
5.141,0.000
5.142,0.004
5.143,0.006
5.144,0.009
5.145,0.009
5.146,0.013
5.147,0.016
5.148,0.017
5.149,0.019
5.150,0.017
5.151,0.019
5.152,0.017
5.153,0.019
5.154,0.020
5.155,0.022
5.156,0.028
5.157,0.028
5.158,0.025
5.159,0.028
5.160,0.025
5.161,0.025
5.162,0.029
5.163,0.028
5.164,0.028
5.165,0.028
5.166,0.028
5.167,0.028
5.168,0.027
5.169,0.025
5.170,0.031
5.171,0.034
5.172,0.033
5.173,0.034
5.174,0.036
5.175,0.037
5.176,0.033
5.177,0.028
5.178,0.031
5.179,0.034
5.180,0.033
5.181,0.031
5.182,0.031
5.183,0.031
5.184,0.031
5.185,0.031
5.186,0.031
5.187,0.031
5.188,0.034
5.189,0.041
5.190,0.037
5.191,0.037
5.192,0.039
5.193,0.041
5.194,0.039
5.195,0.037
5.196,0.037
5.197,0.037
5.198,0.041
5.199,0.041
5.200,0.041
5.201,0.041
5.202,0.039
5.203,0.044
5.204,0.045
5.205,0.047
5.206,0.047
5.207,0.047
5.208,0.049
5.209,0.047
5.210,0.050
5.211,0.050
5.212,0.046
5.213,0.047
5.214,0.047
5.215,0.047
5.216,0.048
5.217,0.050
5.218,0.050
5.219,0.050
5.220,0.050
5.221,0.050
5.222,0.050
5.223,0.047
5.224,0.048
5.225,0.047
5.226,0.043
5.227,0.044
5.228,0.042
5.229,0.041
5.230,0.037
5.231,0.037
5.232,0.033
5.233,0.028
5.234,0.022
5.235,0.016
5.236,0.020
5.237,0.022
5.238,0.017
5.239,0.013
5.240,0.016
5.241,0.013
5.242,0.009
5.243,0.006
5.244,-0.001
5.245,-0.009
5.246,-0.011
5.247,-0.016
5.248,-0.014
5.249,-0.016
5.250,-0.013
5.251,-0.016
5.252,-0.019
5.253,-0.019
5.254,-0.023
5.255,-0.028
5.256,-0.032
5.257,-0.041
5.258,-0.044
5.259,-0.047
5.260,-0.046
5.261,-0.047
5.262,-0.046
5.263,-0.047
5.264,-0.047
5.265,-0.047
5.266,-0.050
5.267,-0.053
5.268,-0.054
5.269,-0.056
5.270,-0.058
5.271,-0.056
5.272,-0.058
5.273,-0.056
5.274,-0.055
5.275,-0.056
5.276,-0.059
5.277,-0.062
5.278,-0.062
5.279,-0.066
5.280,-0.064
5.281,-0.062
5.282,-0.066
5.283,-0.066
5.284,-0.064
5.285,-0.066
5.286,-0.069
5.287,-0.072
5.288,-0.075
5.289,-0.078
5.290,-0.077
5.291,-0.075
5.292,-0.072
5.293,-0.072
5.294,-0.072
5.295,-0.072
5.296,-0.078
5.297,-0.081
5.298,-0.081
5.299,-0.081
5.300,-0.078
5.301,-0.081
5.302,-0.081
5.303,-0.081
5.304,-0.084
5.305,-0.084
5.306,-0.084
5.307,-0.081
5.308,-0.083
5.309,-0.081
5.310,-0.081
5.311,-0.081
5.312,-0.081
5.313,-0.084
5.314,-0.084
5.315,-0.084
5.316,-0.086
5.317,-0.088
5.318,-0.088
5.319,-0.088
5.320,-0.086
5.321,-0.088
5.322,-0.088
5.323,-0.088
5.324,-0.088
5.325,-0.088
5.326,-0.088
5.327,-0.084
5.328,-0.080
5.329,-0.081
5.330,-0.082
5.331,-0.084
5.332,-0.084
5.333,-0.088
5.334,-0.089
5.335,-0.094
5.336,-0.092
5.337,-0.097
5.338,-0.096
5.339,-0.094
5.340,-0.092
5.341,-0.091
5.342,-0.092
5.343,-0.091
5.344,-0.091
5.345,-0.091
5.346,-0.088
5.347,-0.084
5.348,-0.086
5.349,-0.081
5.350,-0.086
5.351,-0.088
5.352,-0.086
5.353,-0.088
5.354,-0.091
5.355,-0.097
5.356,-0.100
5.357,-0.100
5.358,-0.097
5.359,-0.094
5.360,-0.097
5.361,-0.094
5.362,-0.097
5.363,-0.100
5.364,-0.098
5.365,-0.100
5.366,-0.099
5.367,-0.097
5.368,-0.103
5.369,-0.106
5.370,-0.107
5.371,-0.106
5.372,-0.103
5.373,-0.097
5.374,-0.095
5.375,-0.094
5.376,-0.091
5.377,-0.084
5.378,-0.080
5.379,-0.069
5.380,-0.062
5.381,-0.053
5.382,-0.053
5.383,-0.044
5.384,-0.037
5.385,-0.028
5.386,-0.022
5.387,-0.022
5.388,-0.020
5.389,-0.016
5.390,-0.009
5.391,-0.003
5.392,-0.001
5.393,0.000
5.394,0.000
5.395,-0.003
5.396,-0.006
5.397,-0.006
5.398,-0.006
5.399,0.000
5.400,0.006
5.401,0.009
5.402,0.016
5.403,0.022
5.404,0.029
5.405,0.041
5.406,0.047
5.407,0.056
5.408,0.062
5.409,0.069
5.410,0.079
5.411,0.091
5.412,0.101
5.413,0.109
5.414,0.109
5.415,0.109
5.416,0.105
5.417,0.103
5.418,0.103
5.419,0.100
5.420,0.096
5.421,0.097
5.422,0.100
5.423,0.103
5.424,0.101
5.425,0.100
5.426,0.097
5.427,0.094
5.428,0.091
5.429,0.084
5.430,0.078
5.431,0.072
5.432,0.066
5.433,0.062
5.434,0.062
5.435,0.059
5.436,0.056
5.437,0.050
5.438,0.044
5.439,0.034
5.440,0.024
5.441,0.003
5.442,-0.006
5.443,-0.019
5.444,-0.025
5.445,-0.031
5.446,-0.034
5.447,-0.034
5.448,-0.047
5.449,-0.056
5.450,-0.062
5.451,-0.069
5.452,-0.075
5.453,-0.084
5.454,-0.089
5.455,-0.097
5.456,-0.103
5.457,-0.109
5.458,-0.116
5.459,-0.122
5.460,-0.125
5.461,-0.134
5.462,-0.139
5.463,-0.147
5.464,-0.151
5.465,-0.156
5.466,-0.156
5.467,-0.156
5.468,-0.158
5.469,-0.163
5.470,-0.163
5.471,-0.166
5.472,-0.166
5.473,-0.169
5.474,-0.172
5.475,-0.175
5.476,-0.176
5.477,-0.178
5.478,-0.177
5.479,-0.175
5.480,-0.174
5.481,-0.169
5.482,-0.172
5.483,-0.175
5.484,-0.176
5.485,-0.178
5.486,-0.178
5.487,-0.178
5.488,-0.178
5.489,-0.178
5.490,-0.179
5.491,-0.181
5.492,-0.181
5.493,-0.181
5.494,-0.180
5.495,-0.178
5.496,-0.180
5.497,-0.178
5.498,-0.183
5.499,-0.181
5.500,-0.180
5.501,-0.178
5.502,-0.175
5.503,-0.175
5.504,-0.175
5.505,-0.175
5.506,-0.175
5.507,-0.175
5.508,-0.175
5.509,-0.175
5.510,-0.173
5.511,-0.175
5.512,-0.175
5.513,-0.175
5.514,-0.178
5.515,-0.178
5.516,-0.176
5.517,-0.178
5.518,-0.178
5.519,-0.178
5.520,-0.175
5.521,-0.175
5.522,-0.179
5.523,-0.184
5.524,-0.194
5.525,-0.200
5.526,-0.205
5.527,-0.206
5.528,-0.208
5.529,-0.203
5.530,-0.196
5.531,-0.181
5.532,-0.172
5.533,-0.163
5.534,-0.142
5.535,-0.122
5.536,-0.094
5.537,-0.062
5.538,-0.022
5.539,0.022
5.540,0.073
5.541,0.128
5.542,0.197
5.543,0.275
5.544,0.364
5.545,0.453
5.546,0.548
5.547,0.644
5.548,0.749
5.549,0.856
5.550,0.963
5.551,1.072
5.552,1.172
5.553,1.272
5.554,1.355
5.555,1.431
5.556,1.483
5.557,1.528
5.558,1.541
5.559,1.538
5.560,1.483
5.561,1.422
5.562,1.328
5.563,1.228
5.564,1.106
5.565,0.981
5.566,0.838
5.567,0.688
5.568,0.533
5.569,0.387
5.570,0.256
5.571,0.128
5.572,0.037
5.573,-0.050
5.574,-0.091
5.575,-0.122
5.576,-0.146
5.577,-0.141
5.578,-0.139
5.579,-0.144
5.580,-0.141
5.581,-0.141
5.582,-0.142
5.583,-0.144
5.584,-0.142
5.585,-0.144
5.586,-0.141
5.587,-0.138
5.588,-0.134
5.589,-0.131
5.590,-0.125
5.591,-0.122
5.592,-0.114
5.593,-0.109
5.594,-0.109
5.595,-0.109
5.596,-0.114
5.597,-0.116
5.598,-0.123
5.599,-0.131
5.600,-0.133
5.601,-0.131
5.602,-0.130
5.603,-0.128
5.604,-0.131
5.605,-0.131
5.606,-0.130
5.607,-0.131
5.608,-0.129
5.609,-0.131
5.610,-0.131
5.611,-0.131
5.612,-0.131
5.613,-0.134
5.614,-0.129
5.615,-0.134
5.616,-0.133
5.617,-0.128
5.618,-0.128
5.619,-0.128
5.620,-0.127
5.621,-0.125
5.622,-0.129
5.623,-0.128
5.624,-0.125
5.625,-0.122
5.626,-0.122
5.627,-0.122
5.628,-0.125
5.629,-0.125
5.630,-0.128
5.631,-0.128
5.632,-0.127
5.633,-0.122
5.634,-0.122
5.635,-0.119
5.636,-0.118
5.637,-0.116
5.638,-0.119
5.639,-0.119
5.640,-0.117
5.641,-0.119
5.642,-0.114
5.643,-0.112
5.644,-0.112
5.645,-0.112
5.646,-0.109
5.647,-0.109
5.648,-0.112
5.649,-0.116
5.650,-0.111
5.651,-0.112
5.652,-0.109
5.653,-0.103
5.654,-0.103
5.655,-0.103
5.656,-0.101
5.657,-0.103
5.658,-0.103
5.659,-0.103
5.660,-0.104
5.661,-0.103
5.662,-0.102
5.663,-0.097
5.664,-0.094
5.665,-0.094
5.666,-0.098
5.667,-0.097
5.668,-0.092
5.669,-0.094
5.670,-0.091
5.671,-0.088
5.672,-0.089
5.673,-0.091
5.674,-0.094
5.675,-0.094
5.676,-0.092
5.677,-0.091
5.678,-0.091
5.679,-0.088
5.680,-0.091
5.681,-0.088
5.682,-0.088
5.683,-0.088
5.684,-0.088
5.685,-0.088
5.686,-0.086
5.687,-0.088
5.688,-0.088
5.689,-0.088
5.690,-0.086
5.691,-0.084
5.692,-0.084
5.693,-0.084
5.694,-0.084
5.695,-0.084
5.696,-0.086
5.697,-0.084
5.698,-0.088
5.699,-0.084
5.700,-0.084
5.701,-0.084
5.702,-0.088
5.703,-0.088
5.704,-0.083
5.705,-0.078
5.706,-0.075
5.707,-0.069
5.708,-0.069
5.709,-0.069
5.710,-0.071
5.711,-0.066
5.712,-0.064
5.713,-0.056
5.714,-0.061
5.715,-0.062
5.716,-0.062
5.717,-0.062
5.718,-0.058
5.719,-0.056
5.720,-0.053
5.721,-0.053
5.722,-0.056
5.723,-0.056
5.724,-0.056
5.725,-0.056
5.726,-0.050
5.727,-0.044
5.728,-0.043
5.729,-0.041
5.730,-0.036
5.731,-0.037
5.732,-0.034
5.733,-0.034
5.734,-0.030
5.735,-0.025
5.736,-0.019
5.737,-0.016
5.738,-0.017
5.739,-0.019
5.740,-0.011
5.741,-0.013
5.742,-0.006
5.743,-0.003
5.744,0.002
5.745,0.000
5.746,0.004
5.747,0.009
5.748,0.013
5.749,0.013
5.750,0.013
5.751,0.013
5.752,0.016
5.753,0.019
5.754,0.021
5.755,0.022
5.756,0.029
5.757,0.034
5.758,0.037
5.759,0.041
5.760,0.043
5.761,0.044
5.762,0.041
5.763,0.041
5.764,0.045
5.765,0.047
5.766,0.054
5.767,0.059
5.768,0.059
5.769,0.059
5.770,0.061
5.771,0.062
5.772,0.061
5.773,0.062
5.774,0.062
5.775,0.066
5.776,0.064
5.777,0.062
5.778,0.066
5.779,0.062
5.780,0.064
5.781,0.072
5.782,0.072
5.783,0.075
5.784,0.079
5.785,0.078
5.786,0.077
5.787,0.075
5.788,0.075
5.789,0.075
5.790,0.075
5.791,0.075
5.792,0.076
5.793,0.075
5.794,0.075
5.795,0.078
5.796,0.077
5.797,0.075
5.798,0.075
5.799,0.075
5.800,0.076
5.801,0.078
5.802,0.078
5.803,0.078
5.804,0.078
5.805,0.078
5.806,0.079
5.807,0.081
5.808,0.080
5.809,0.078
5.810,0.078
5.811,0.081
5.812,0.081
5.813,0.084
5.814,0.084
5.815,0.084
5.816,0.084
5.817,0.084
5.818,0.084
5.819,0.084
5.820,0.088
5.821,0.088
5.822,0.088
5.823,0.088
5.824,0.084
5.825,0.088
5.826,0.086
5.827,0.084
5.828,0.084
5.829,0.084
5.830,0.089
5.831,0.091
5.832,0.091
5.833,0.088
5.834,0.084
5.835,0.088
5.836,0.086
5.837,0.084
5.838,0.084
5.839,0.084
5.840,0.086
5.841,0.088
5.842,0.088
5.843,0.088
5.844,0.089
5.845,0.088
5.846,0.088
5.847,0.084
5.848,0.081
5.849,0.084
5.850,0.078
5.851,0.072
5.852,0.070
5.853,0.072
5.854,0.069
5.855,0.066
5.856,0.064
5.857,0.062
5.858,0.059
5.859,0.053
5.860,0.050
5.861,0.047
5.862,0.050
5.863,0.047
5.864,0.041
5.865,0.034
5.866,0.032
5.867,0.031
5.868,0.027
5.869,0.019
5.870,0.022
5.871,0.022
5.872,0.023
5.873,0.019
5.874,0.013
5.875,0.009
5.876,0.007
5.877,0.006
5.878,0.007
5.879,0.006
5.880,0.004
5.881,0.003
5.882,0.000
5.883,-0.006
5.884,-0.006
5.885,-0.009
5.886,-0.009
5.887,-0.009
5.888,-0.014
5.889,-0.019
5.890,-0.020
5.891,-0.022
5.892,-0.022
5.893,-0.019
5.894,-0.023
5.895,-0.025
5.896,-0.024
5.897,-0.025
5.898,-0.025
5.899,-0.025
5.900,-0.025
5.901,-0.028
5.902,-0.029
5.903,-0.031
5.904,-0.036
5.905,-0.037
5.906,-0.036
5.907,-0.037
5.908,-0.034
5.909,-0.031
5.910,-0.031
5.911,-0.031
5.912,-0.032
5.913,-0.034
5.914,-0.033
5.915,-0.034
5.916,-0.036
5.917,-0.037
5.918,-0.042
5.919,-0.044
5.920,-0.041
5.921,-0.037
5.922,-0.034
5.923,-0.037
5.924,-0.037
5.925,-0.037
5.926,-0.041
5.927,-0.041
5.928,-0.045
5.929,-0.047
5.930,-0.047
5.931,-0.044
5.932,-0.043
5.933,-0.041
5.934,-0.042
5.935,-0.047
5.936,-0.048
5.937,-0.050
5.938,-0.050
5.939,-0.050
5.940,-0.050
5.941,-0.050
5.942,-0.047
5.943,-0.050
5.944,-0.050
5.945,-0.050
5.946,-0.050
5.947,-0.050
5.948,-0.050
5.949,-0.050
5.950,-0.049
5.951,-0.050
5.952,-0.050
5.953,-0.047
5.954,-0.050
5.955,-0.050
5.956,-0.050
5.957,-0.050
5.958,-0.054
5.959,-0.056
5.960,-0.061
5.961,-0.059
5.962,-0.062
5.963,-0.062
5.964,-0.064
5.965,-0.066
5.966,-0.067
5.967,-0.072
5.968,-0.072
5.969,-0.072
5.970,-0.072
5.971,-0.072
5.972,-0.071
5.973,-0.072
5.974,-0.069
5.975,-0.072
5.976,-0.073
5.977,-0.072
5.978,-0.072
5.979,-0.072
5.980,-0.074
5.981,-0.075
5.982,-0.075
5.983,-0.075
5.984,-0.074
5.985,-0.075
5.986,-0.076
5.987,-0.084
5.988,-0.088
5.989,-0.084
5.990,-0.084
5.991,-0.084
5.992,-0.081
5.993,-0.081
5.994,-0.080
5.995,-0.078
5.996,-0.076
5.997,-0.078
5.998,-0.076
5.999,-0.075
6.000,-0.066
6.001,-0.056
6.002,-0.050
6.003,-0.047
6.004,-0.039
6.005,-0.037
6.006,-0.025
6.007,-0.016
6.008,-0.007
6.009,-0.006
6.010,0.000
6.011,0.003
6.012,0.003
6.013,0.006
6.014,0.013
6.015,0.016
6.016,0.017
6.017,0.019
6.018,0.019
6.019,0.016
6.020,0.016
6.021,0.016
6.022,0.019
6.023,0.025
6.024,0.030
6.025,0.031
6.026,0.041
6.027,0.050
6.028,0.054
6.029,0.062
6.030,0.067
6.031,0.069
6.032,0.078
6.033,0.088
6.034,0.103
6.035,0.119
6.036,0.124
6.037,0.128
6.038,0.128
6.039,0.128
6.040,0.130
6.041,0.122
6.042,0.122
6.043,0.122
6.044,0.118
6.045,0.112
6.046,0.116
6.047,0.116
6.048,0.117
6.049,0.116
6.050,0.109
6.051,0.103
6.052,0.096
6.053,0.088
6.054,0.086
6.055,0.084
6.056,0.081
6.057,0.078
6.058,0.072
6.059,0.069
6.060,0.067
6.061,0.066
6.062,0.055
6.063,0.044
6.064,0.030
6.065,0.019
6.066,0.004
6.067,-0.003
6.068,-0.009
6.069,-0.013
6.070,-0.025
6.071,-0.034
6.072,-0.037
6.073,-0.047
6.074,-0.052
6.075,-0.059
6.076,-0.070
6.077,-0.078
6.078,-0.088
6.079,-0.094
6.080,-0.102
6.081,-0.106
6.082,-0.117
6.083,-0.128
6.084,-0.134
6.085,-0.138
6.086,-0.144
6.087,-0.144
6.088,-0.147
6.089,-0.147
6.090,-0.149
6.091,-0.150
6.092,-0.157
6.093,-0.166
6.094,-0.169
6.095,-0.166
6.096,-0.164
6.097,-0.159
6.098,-0.161
6.099,-0.159
6.100,-0.159
6.101,-0.159
6.102,-0.161
6.103,-0.163
6.104,-0.163
6.105,-0.166
6.106,-0.169
6.107,-0.175
6.108,-0.177
6.109,-0.175
6.110,-0.175
6.111,-0.175
6.112,-0.175
6.113,-0.175
6.114,-0.175
6.115,-0.175
6.116,-0.172
6.117,-0.169
6.118,-0.170
6.119,-0.172
6.120,-0.172
6.121,-0.175
6.122,-0.174
6.123,-0.175
6.124,-0.171
6.125,-0.169
6.126,-0.170
6.127,-0.169
6.128,-0.169
6.129,-0.169
6.130,-0.170
6.131,-0.172
6.132,-0.173
6.133,-0.175
6.134,-0.175
6.135,-0.172
6.136,-0.171
6.137,-0.169
6.138,-0.169
6.139,-0.172
6.140,-0.173
6.141,-0.172
6.142,-0.172
6.143,-0.172
6.144,-0.175
6.145,-0.178
6.146,-0.178
6.147,-0.178
6.148,-0.178
6.149,-0.184
6.150,-0.187
6.151,-0.194
6.152,-0.200
6.153,-0.197
6.154,-0.184
6.155,-0.175
6.156,-0.166
6.157,-0.156
6.158,-0.139
6.159,-0.116
6.160,-0.091
6.161,-0.053
6.162,-0.014
6.163,0.028
6.164,0.073
6.165,0.128
6.166,0.191
6.167,0.259
6.168,0.333
6.169,0.422
6.170,0.511
6.171,0.609
6.172,0.706
6.173,0.816
6.174,0.926
6.175,1.031
6.176,1.134
6.177,1.231
6.178,1.322
6.179,1.397
6.180,1.463
6.181,1.503
6.182,1.519
6.183,1.509
6.184,1.496
6.185,1.422
6.186,1.349
6.187,1.244
6.188,1.141
6.189,1.016
6.190,0.884
6.191,0.737
6.192,0.597
6.193,0.441
6.194,0.301
6.195,0.184
6.196,0.084
6.197,0.009
6.198,-0.069
6.199,-0.097
6.200,-0.125
6.201,-0.141
6.202,-0.142
6.203,-0.141
6.204,-0.145
6.205,-0.144
6.206,-0.142
6.207,-0.144
6.208,-0.147
6.209,-0.147
6.210,-0.146
6.211,-0.141
6.212,-0.136
6.213,-0.131
6.214,-0.129
6.215,-0.125
6.216,-0.119
6.217,-0.112
6.218,-0.112
6.219,-0.112
6.220,-0.114
6.221,-0.119
6.222,-0.122
6.223,-0.128
6.224,-0.133
6.225,-0.138
6.226,-0.136
6.227,-0.134
6.228,-0.134
6.229,-0.138
6.230,-0.136
6.231,-0.134
6.232,-0.139
6.233,-0.138
6.234,-0.139
6.235,-0.141
6.236,-0.139
6.237,-0.138
6.238,-0.142
6.239,-0.138
6.240,-0.142
6.241,-0.144
6.242,-0.142
6.243,-0.144
6.244,-0.142
6.245,-0.141
6.246,-0.136
6.247,-0.134
6.248,-0.133
6.249,-0.134
6.250,-0.133
6.251,-0.131
6.252,-0.131
6.253,-0.134
6.254,-0.136
6.255,-0.138
6.256,-0.136
6.257,-0.138
6.258,-0.136
6.259,-0.138
6.260,-0.133
6.261,-0.131
6.262,-0.131
6.263,-0.134
6.264,-0.136
6.265,-0.134
6.266,-0.134
6.267,-0.131
6.268,-0.131
6.269,-0.131
6.270,-0.131
6.271,-0.128
6.272,-0.127
6.273,-0.125
6.274,-0.124
6.275,-0.119
6.276,-0.123
6.277,-0.125
6.278,-0.122
6.279,-0.122
6.280,-0.122
6.281,-0.119
6.282,-0.118
6.283,-0.116
6.284,-0.114
6.285,-0.112
6.286,-0.109
6.287,-0.109
6.288,-0.109
6.289,-0.109
6.290,-0.108
6.291,-0.109
6.292,-0.109
6.293,-0.109
6.294,-0.111
6.295,-0.109
6.296,-0.109
6.297,-0.109
6.298,-0.105
6.299,-0.100
6.300,-0.098
6.301,-0.100
6.302,-0.101
6.303,-0.103
6.304,-0.100
6.305,-0.103
6.306,-0.101
6.307,-0.103
6.308,-0.103
6.309,-0.103
6.310,-0.106
6.311,-0.106
6.312,-0.106
6.313,-0.106
6.314,-0.105
6.315,-0.103
6.316,-0.104
6.317,-0.106
6.318,-0.106
6.319,-0.106
6.320,-0.106
6.321,-0.106
6.322,-0.099
6.323,-0.097
6.324,-0.094
6.325,-0.094
6.326,-0.094
6.327,-0.094
6.328,-0.091
6.329,-0.091
6.330,-0.092
6.331,-0.094
6.332,-0.091
6.333,-0.091
6.334,-0.089
6.335,-0.091
6.336,-0.086
6.337,-0.084
6.338,-0.078
6.339,-0.078
6.340,-0.076
6.341,-0.078
6.342,-0.079
6.343,-0.078
6.344,-0.077
6.345,-0.072
6.346,-0.071
6.347,-0.069
6.348,-0.067
6.349,-0.066
6.350,-0.062
6.351,-0.059
6.352,-0.056
6.353,-0.056
6.354,-0.056
6.355,-0.050
6.356,-0.051
6.357,-0.050
6.358,-0.049
6.359,-0.044
6.360,-0.039
6.361,-0.034
6.362,-0.036
6.363,-0.034
6.364,-0.037
6.365,-0.034
6.366,-0.033
6.367,-0.028
6.368,-0.027
6.369,-0.019
6.370,-0.019
6.371,-0.016
6.372,-0.011
6.373,-0.006
6.374,-0.006
6.375,-0.003
6.376,0.001
6.377,0.006
6.378,0.008
6.379,0.009
6.380,0.013
6.381,0.016
6.382,0.016
6.383,0.019
6.384,0.021
6.385,0.022
6.386,0.025
6.387,0.025
6.388,0.025
6.389,0.025
6.390,0.026
6.391,0.031
6.392,0.032
6.393,0.037
6.394,0.039
6.395,0.037
6.396,0.037
6.397,0.037
6.398,0.041
6.399,0.041
6.400,0.043
6.401,0.041
6.402,0.041
6.403,0.047
6.404,0.047
6.405,0.044
6.406,0.047
6.407,0.044
6.408,0.044
6.409,0.047
6.410,0.044
6.411,0.044
6.412,0.043
6.413,0.044
6.414,0.047
6.415,0.047
6.416,0.048
6.417,0.050
6.418,0.047
6.419,0.047
6.420,0.049
6.421,0.047
6.422,0.048
6.423,0.050
6.424,0.053
6.425,0.056
6.426,0.056
6.427,0.056
6.428,0.055
6.429,0.053
6.430,0.053
6.431,0.053
6.432,0.053
6.433,0.053
6.434,0.052
6.435,0.050
6.436,0.052
6.437,0.050
6.438,0.052
6.439,0.050
6.440,0.051
6.441,0.053
6.442,0.056
6.443,0.059
6.444,0.058
6.445,0.059
6.446,0.058
6.447,0.056
6.448,0.059
6.449,0.059
6.450,0.062
6.451,0.062
6.452,0.064
6.453,0.066
6.454,0.064
6.455,0.066
6.456,0.059
6.457,0.056
6.458,0.059
6.459,0.059
6.460,0.062
6.461,0.059
6.462,0.055
6.463,0.053
6.464,0.052
6.465,0.050
6.466,0.051
6.467,0.053
6.468,0.054
6.469,0.056
6.470,0.054
6.471,0.056
6.472,0.053
6.473,0.050
6.474,0.052
6.475,0.047
6.476,0.043
6.477,0.037
6.478,0.036
6.479,0.031
6.480,0.031
6.481,0.031
6.482,0.027
6.483,0.025
6.484,0.025
6.485,0.025
6.486,0.017
6.487,0.013
6.488,0.006
6.489,0.003
6.490,0.003
6.491,0.003
6.492,0.003
6.493,0.003
6.494,-0.004
6.495,-0.006
6.496,-0.009
6.497,-0.009
6.498,-0.017
6.499,-0.022
6.500,-0.021
6.501,-0.022
6.502,-0.026
6.503,-0.028
6.504,-0.028
6.505,-0.028
6.506,-0.032
6.507,-0.034
6.508,-0.041
6.509,-0.044
6.510,-0.044
6.511,-0.044
6.512,-0.047
6.513,-0.050
6.514,-0.053
6.515,-0.053
6.516,-0.052
6.517,-0.053
6.518,-0.056
6.519,-0.062
6.520,-0.062
6.521,-0.062
6.522,-0.066
6.523,-0.066
6.524,-0.064
6.525,-0.062
6.526,-0.066
6.527,-0.066
6.528,-0.064
6.529,-0.066
6.530,-0.066
6.531,-0.066
6.532,-0.070
6.533,-0.072
6.534,-0.073
6.535,-0.075
6.536,-0.074
6.537,-0.072
6.538,-0.072
6.539,-0.072
6.540,-0.075
6.541,-0.075
6.542,-0.074
6.543,-0.075
6.544,-0.075
6.545,-0.075
6.546,-0.075
6.547,-0.072
6.548,-0.075
6.549,-0.075
6.550,-0.075
6.551,-0.078
6.552,-0.079
6.553,-0.081
6.554,-0.078
6.555,-0.081
6.556,-0.081
6.557,-0.081
6.558,-0.081
6.559,-0.081
6.560,-0.084
6.561,-0.084
6.562,-0.084
6.563,-0.084
6.564,-0.086
6.565,-0.088
6.566,-0.089
6.567,-0.088
6.568,-0.091
6.569,-0.091
6.570,-0.091
6.571,-0.091
6.572,-0.089
6.573,-0.091
6.574,-0.092
6.575,-0.091
6.576,-0.092
6.577,-0.091
6.578,-0.092
6.579,-0.094
6.580,-0.097
6.581,-0.097
6.582,-0.100
6.583,-0.097
6.584,-0.100
6.585,-0.100
6.586,-0.100
6.587,-0.100
6.588,-0.100
6.589,-0.103
6.590,-0.103
6.591,-0.103
6.592,-0.103
6.593,-0.103
6.594,-0.102
6.595,-0.103
6.596,-0.100
6.597,-0.103
6.598,-0.104
6.599,-0.103
6.600,-0.102
6.601,-0.100
6.602,-0.104
6.603,-0.109
6.604,-0.111
6.605,-0.112
6.606,-0.111
6.607,-0.112
6.608,-0.108
6.609,-0.109
6.610,-0.112
6.611,-0.109
6.612,-0.109
6.613,-0.109
6.614,-0.111
6.615,-0.116
6.616,-0.117
6.617,-0.119
6.618,-0.116
6.619,-0.116
6.620,-0.114
6.621,-0.112
6.622,-0.109
6.623,-0.106
6.624,-0.099
6.625,-0.094
6.626,-0.088
6.627,-0.088
6.628,-0.078
6.629,-0.072
6.630,-0.058
6.631,-0.050
6.632,-0.041
6.633,-0.034
6.634,-0.033
6.635,-0.028
6.636,-0.022
6.637,-0.019
6.638,-0.016
6.639,-0.013
6.640,-0.009
6.641,-0.009
6.642,-0.013
6.643,-0.016
6.644,-0.019
6.645,-0.019
6.646,-0.008
6.647,0.000
6.648,0.006
6.649,0.013
6.650,0.014
6.651,0.019
6.652,0.027
6.653,0.031
6.654,0.042
6.655,0.053
6.656,0.059
6.657,0.066
6.658,0.074
6.659,0.081
6.660,0.091
6.661,0.100
6.662,0.107
6.663,0.106
6.664,0.106
6.665,0.106
6.666,0.103
6.667,0.100
6.668,0.102
6.669,0.100
6.670,0.101
6.671,0.100
6.672,0.096
6.673,0.091
6.674,0.089
6.675,0.088
6.676,0.080
6.677,0.072
6.678,0.067
6.679,0.062
6.680,0.061
6.681,0.062
6.682,0.056
6.683,0.050
6.684,0.044
6.685,0.037
6.686,0.029
6.687,0.025
6.688,0.005
6.689,-0.009
6.690,-0.019
6.691,-0.025
6.692,-0.034
6.693,-0.041
6.694,-0.041
6.695,-0.047
6.696,-0.050
6.697,-0.056
6.698,-0.067
6.699,-0.075
6.700,-0.084
6.701,-0.091
6.702,-0.097
6.703,-0.100
6.704,-0.109
6.705,-0.119
6.706,-0.126
6.707,-0.131
6.708,-0.139
6.709,-0.141
6.710,-0.146
6.711,-0.147
6.712,-0.151
6.713,-0.156
6.714,-0.156
6.715,-0.156
6.716,-0.163
6.717,-0.163
6.718,-0.170
6.719,-0.175
6.720,-0.178
6.721,-0.178
6.722,-0.178
6.723,-0.178
6.724,-0.178
6.725,-0.178
6.726,-0.177
6.727,-0.178
6.728,-0.177
6.729,-0.178
6.730,-0.181
6.731,-0.181
6.732,-0.181
6.733,-0.181
6.734,-0.183
6.735,-0.184
6.736,-0.183
6.737,-0.181
6.738,-0.186
6.739,-0.191
6.740,-0.189
6.741,-0.187
6.742,-0.184
6.743,-0.184
6.744,-0.181
6.745,-0.181
6.746,-0.179
6.747,-0.181
6.748,-0.183
6.749,-0.181
6.750,-0.183
6.751,-0.184
6.752,-0.183
6.753,-0.181
6.754,-0.181
6.755,-0.181
6.756,-0.181
6.757,-0.178
6.758,-0.178
6.759,-0.178
6.760,-0.177
6.761,-0.178
6.762,-0.179
6.763,-0.178
6.764,-0.178
6.765,-0.178
6.766,-0.178
6.767,-0.178
6.768,-0.183
6.769,-0.187
6.770,-0.187
6.771,-0.194
6.772,-0.197
6.773,-0.203
6.774,-0.214
6.775,-0.216
6.776,-0.208
6.777,-0.203
6.778,-0.192
6.779,-0.181
6.780,-0.173
6.781,-0.159
6.782,-0.144
6.783,-0.116
6.784,-0.086
6.785,-0.053
6.786,-0.017
6.787,0.028
6.788,0.075
6.789,0.128
6.790,0.184
6.791,0.256
6.792,0.336
6.793,0.425
6.794,0.516
6.795,0.619
6.796,0.725
6.797,0.825
6.798,0.939
6.799,1.047
6.800,1.156
6.801,1.250
6.802,1.344
6.803,1.412
6.804,1.478
6.805,1.519
6.806,1.547
6.807,1.516
6.808,1.476
6.809,1.406
6.810,1.320
6.811,1.212
6.812,1.101
6.813,0.975
6.814,0.831
6.815,0.672
6.816,0.514
6.817,0.378
6.818,0.238
6.819,0.122
6.820,0.006
6.821,-0.059
6.822,-0.112
6.823,-0.153
6.824,-0.154
6.825,-0.153
6.826,-0.156
6.827,-0.153
6.828,-0.150
6.829,-0.150
6.830,-0.150
6.831,-0.147
6.832,-0.151
6.833,-0.153
6.834,-0.149
6.835,-0.144
6.836,-0.138
6.837,-0.128
6.838,-0.126
6.839,-0.125
6.840,-0.125
6.841,-0.125
6.842,-0.124
6.843,-0.125
6.844,-0.126
6.845,-0.131
6.846,-0.133
6.847,-0.134
6.848,-0.133
6.849,-0.131
6.850,-0.131
6.851,-0.134
6.852,-0.136
6.853,-0.138
6.854,-0.142
6.855,-0.141
6.856,-0.136
6.857,-0.131
6.858,-0.131
6.859,-0.131
6.860,-0.136
6.861,-0.131
6.862,-0.133
6.863,-0.131
6.864,-0.129
6.865,-0.131
6.866,-0.128
6.867,-0.125
6.868,-0.121
6.869,-0.119
6.870,-0.117
6.871,-0.119
6.872,-0.122
6.873,-0.125
6.874,-0.124
6.875,-0.125
6.876,-0.129
6.877,-0.134
6.878,-0.133
6.879,-0.134
6.880,-0.131
6.881,-0.131
6.882,-0.125
6.883,-0.122
6.884,-0.121
6.885,-0.122
6.886,-0.122
6.887,-0.119
6.888,-0.119
6.889,-0.116
6.890,-0.112
6.891,-0.109
6.892,-0.112
6.893,-0.112
6.894,-0.112
6.895,-0.112
6.896,-0.117
6.897,-0.119
6.898,-0.119
6.899,-0.116
6.900,-0.111
6.901,-0.109
6.902,-0.111
6.903,-0.109
6.904,-0.109
6.905,-0.109
6.906,-0.109
6.907,-0.109
6.908,-0.105
6.909,-0.103
6.910,-0.103
6.911,-0.103
6.912,-0.102
6.913,-0.103
6.914,-0.099
6.915,-0.094
6.916,-0.096
6.917,-0.094
6.918,-0.095
6.919,-0.097
6.920,-0.097
6.921,-0.097
6.922,-0.095
6.923,-0.097
6.924,-0.097
6.925,-0.097
6.926,-0.092
6.927,-0.094
6.928,-0.092
6.929,-0.094
6.930,-0.094
6.931,-0.094
6.932,-0.094
6.933,-0.091
6.934,-0.091
6.935,-0.091
6.936,-0.089
6.937,-0.088
6.938,-0.088
6.939,-0.088
6.940,-0.088
6.941,-0.088
6.942,-0.089
6.943,-0.091
6.944,-0.088
6.945,-0.091
6.946,-0.088
6.947,-0.088
6.948,-0.089
6.949,-0.091
6.950,-0.084
6.951,-0.081
6.952,-0.080
6.953,-0.078
6.954,-0.076
6.955,-0.078
6.956,-0.077
6.957,-0.078
6.958,-0.076
6.959,-0.078
6.960,-0.072
6.961,-0.072
6.962,-0.070
6.963,-0.072
6.964,-0.073
6.965,-0.072
6.966,-0.067
6.967,-0.059
6.968,-0.058
6.969,-0.056
6.970,-0.052
6.971,-0.047
6.972,-0.044
6.973,-0.041
6.974,-0.036
6.975,-0.034
6.976,-0.036
6.977,-0.031
6.978,-0.031
6.979,-0.028
6.980,-0.031
6.981,-0.031
6.982,-0.028
6.983,-0.025
6.984,-0.025
6.985,-0.022
6.986,-0.017
6.987,-0.006
6.988,-0.007
6.989,-0.006
6.990,-0.007
6.991,-0.003
6.992,-0.002
6.993,0.003
6.994,0.006
6.995,0.009
6.996,0.008
6.997,0.009
6.998,0.014
6.999,0.019
7.000,0.023
7.001,0.028
7.002,0.030
7.003,0.031
7.004,0.030
7.005,0.031
7.006,0.036
7.007,0.041
7.008,0.045
7.009,0.047
7.010,0.049
7.011,0.050
7.012,0.049
7.013,0.050
7.014,0.053
7.015,0.059
7.016,0.066
7.017,0.069
7.018,0.069
7.019,0.069
7.020,0.071
7.021,0.069
7.022,0.071
7.023,0.069
7.024,0.067
7.025,0.072
7.026,0.075
7.027,0.075
7.028,0.078
7.029,0.075
7.030,0.075
7.031,0.078
7.032,0.076
7.033,0.078
7.034,0.078
7.035,0.081
7.036,0.083
7.037,0.081
7.038,0.081
7.039,0.081
7.040,0.078
7.041,0.078
7.042,0.081
7.043,0.081
7.044,0.077
7.045,0.072
7.046,0.072
7.047,0.072
7.048,0.073
7.049,0.075
7.050,0.078
7.051,0.081
7.052,0.080
7.053,0.078
7.054,0.079
7.055,0.081
7.056,0.081
7.057,0.081
7.058,0.088
7.059,0.091
7.060,0.094
7.061,0.094
7.062,0.092
7.063,0.091
7.064,0.091
7.065,0.091
7.066,0.089
7.067,0.091
7.068,0.091
7.069,0.091
7.070,0.094
7.071,0.094
7.072,0.096
7.073,0.094
7.074,0.091
7.075,0.088
7.076,0.089
7.077,0.094
7.078,0.095
7.079,0.100
7.080,0.100
7.081,0.097
7.082,0.099
7.083,0.094
7.084,0.094
7.085,0.097
7.086,0.092
7.087,0.088
7.088,0.088
7.089,0.088
7.090,0.089
7.091,0.091
7.092,0.086
7.093,0.084
7.094,0.082
7.095,0.081
7.096,0.086
7.097,0.084
7.098,0.080
7.099,0.075
7.100,0.074
7.101,0.069
7.102,0.069
7.103,0.069
7.104,0.067
7.105,0.069
7.106,0.064
7.107,0.059
7.108,0.055
7.109,0.053
7.110,0.046
7.111,0.041
7.112,0.039
7.113,0.037
7.114,0.036
7.115,0.034
7.116,0.024
7.117,0.019
7.118,0.014
7.119,0.013
7.120,0.007
7.121,0.006
7.122,0.009
7.123,0.009
7.124,0.007
7.125,0.009
7.126,0.009
7.127,0.009
7.128,0.005
7.129,0.003
7.130,0.001
7.131,0.003
7.132,-0.003
7.133,-0.009
7.134,-0.011
7.135,-0.013
7.136,-0.014
7.137,-0.013
7.138,-0.016
7.139,-0.022
7.140,-0.023
7.141,-0.028
7.142,-0.029
7.143,-0.031
7.144,-0.033
7.145,-0.031
7.146,-0.031
7.147,-0.031
7.148,-0.034
7.149,-0.034
7.150,-0.034
7.151,-0.037
7.152,-0.041
7.153,-0.044
7.154,-0.047
7.155,-0.047
7.156,-0.047
7.157,-0.047
7.158,-0.048
7.159,-0.050
7.160,-0.049
7.161,-0.047
7.162,-0.050
7.163,-0.050
7.164,-0.051
7.165,-0.056
7.166,-0.053
7.167,-0.050
7.168,-0.051
7.169,-0.050
7.170,-0.053
7.171,-0.053
7.172,-0.052
7.173,-0.053
7.174,-0.054
7.175,-0.056
7.176,-0.053
7.177,-0.056
7.178,-0.056
7.179,-0.056
7.180,-0.055
7.181,-0.053
7.182,-0.058
7.183,-0.059
7.184,-0.056
7.185,-0.053
7.186,-0.053
7.187,-0.053
7.188,-0.054
7.189,-0.056
7.190,-0.055
7.191,-0.056
7.192,-0.058
7.193,-0.056
7.194,-0.061
7.195,-0.062
7.196,-0.064
7.197,-0.066
7.198,-0.067
7.199,-0.066
7.200,-0.064
7.201,-0.056
7.202,-0.061
7.203,-0.062
7.204,-0.064
7.205,-0.066
7.206,-0.066
7.207,-0.069
7.208,-0.069
7.209,-0.069
7.210,-0.069
7.211,-0.069
7.212,-0.069
7.213,-0.072
7.214,-0.069
7.215,-0.072
7.216,-0.073
7.217,-0.072
7.218,-0.072
7.219,-0.072
7.220,-0.072
7.221,-0.072
7.222,-0.073
7.223,-0.075
7.224,-0.078
7.225,-0.084
7.226,-0.080
7.227,-0.081
7.228,-0.084
7.229,-0.081
7.230,-0.081
7.231,-0.081
7.232,-0.081
7.233,-0.084
7.234,-0.084
7.235,-0.084
7.236,-0.084
7.237,-0.088
7.238,-0.083
7.239,-0.078
7.240,-0.075
7.241,-0.072
7.242,-0.066
7.243,-0.062
7.244,-0.054
7.245,-0.053
7.246,-0.044
7.247,-0.037
7.248,-0.022
7.249,-0.013
7.250,-0.006
7.251,-0.003
7.252,-0.006
7.253,-0.006
7.254,-0.003
7.255,-0.003
7.256,0.000
7.257,0.003
7.258,0.006
7.259,0.006
7.260,0.004
7.261,0.003
7.262,0.004
7.263,0.009
7.264,0.017
7.265,0.022
7.266,0.025
7.267,0.028
7.268,0.031
7.269,0.037
7.270,0.046
7.271,0.050
7.272,0.058
7.273,0.066
7.274,0.075
7.275,0.084
7.276,0.095
7.277,0.106
7.278,0.114
7.279,0.122
7.280,0.127
7.281,0.122
7.282,0.123
7.283,0.125
7.284,0.123
7.285,0.122
7.286,0.126
7.287,0.128
7.288,0.129
7.289,0.128
7.290,0.122
7.291,0.116
7.292,0.112
7.293,0.109
7.294,0.103
7.295,0.097
7.296,0.094
7.297,0.091
7.298,0.089
7.299,0.091
7.300,0.086
7.301,0.081
7.302,0.072
7.303,0.062
7.304,0.052
7.305,0.044
7.306,0.031
7.307,0.025
7.308,0.017
7.309,0.013
7.310,0.002
7.311,-0.006
7.312,-0.011
7.313,-0.022
7.314,-0.028
7.315,-0.037
7.316,-0.047
7.317,-0.053
7.318,-0.064
7.319,-0.072
7.320,-0.082
7.321,-0.091
7.322,-0.096
7.323,-0.100
7.324,-0.103
7.325,-0.103
7.326,-0.116
7.327,-0.122
7.328,-0.129
7.329,-0.134
7.330,-0.133
7.331,-0.131
7.332,-0.134
7.333,-0.138
7.334,-0.144
7.335,-0.144
7.336,-0.147
7.337,-0.147
7.338,-0.150
7.339,-0.150
7.340,-0.150
7.341,-0.150
7.342,-0.151
7.343,-0.153
7.344,-0.154
7.345,-0.159
7.346,-0.155
7.347,-0.153
7.348,-0.156
7.349,-0.156
7.350,-0.159
7.351,-0.163
7.352,-0.163
7.353,-0.163
7.354,-0.164
7.355,-0.166
7.356,-0.166
7.357,-0.166
7.358,-0.164
7.359,-0.163
7.360,-0.163
7.361,-0.166
7.362,-0.170
7.363,-0.178
7.364,-0.171
7.365,-0.166
7.366,-0.164
7.367,-0.159
7.368,-0.159
7.369,-0.159
7.370,-0.159
7.371,-0.159
7.372,-0.159
7.373,-0.159
7.374,-0.161
7.375,-0.159
7.376,-0.158
7.377,-0.156
7.378,-0.155
7.379,-0.156
7.380,-0.163
7.381,-0.166
7.382,-0.167
7.383,-0.169
7.384,-0.166
7.385,-0.163
7.386,-0.164
7.387,-0.166
7.388,-0.169
7.389,-0.178
7.390,-0.180
7.391,-0.184
7.392,-0.192
7.393,-0.191
7.394,-0.189
7.395,-0.191
7.396,-0.178
7.397,-0.166
7.398,-0.152
7.399,-0.131
7.400,-0.114
7.401,-0.084
7.402,-0.049
7.403,-0.009
7.404,0.027
7.405,0.072
7.406,0.124
7.407,0.181
7.408,0.246
7.409,0.325
7.410,0.414
7.411,0.513
7.412,0.599
7.413,0.697
7.414,0.799
7.415,0.894
7.416,0.996
7.417,1.091
7.418,1.189
7.419,1.272
7.420,1.358
7.421,1.419
7.422,1.479
7.423,1.516
7.424,1.532
7.425,1.491
7.426,1.434
7.427,1.347
7.428,1.259
7.429,1.150
7.430,1.027
7.431,0.887
7.432,0.736
7.433,0.569
7.434,0.417
7.435,0.288
7.436,0.159
7.437,0.056
7.438,-0.050
7.439,-0.106
7.440,-0.141
7.441,-0.163
7.442,-0.164
7.443,-0.163
7.444,-0.163
7.445,-0.156
7.446,-0.150
7.447,-0.147
7.448,-0.146
7.449,-0.141
7.450,-0.139
7.451,-0.134
7.452,-0.131
7.453,-0.128
7.454,-0.125
7.455,-0.119
7.456,-0.117
7.457,-0.116
7.458,-0.111
7.459,-0.106
7.460,-0.103
7.461,-0.103
7.462,-0.103
7.463,-0.106
7.464,-0.109
7.465,-0.112
7.466,-0.112
7.467,-0.112
7.468,-0.112
7.469,-0.116
7.470,-0.117
7.471,-0.119
7.472,-0.122
7.473,-0.119
7.474,-0.119
7.475,-0.119
7.476,-0.119
7.477,-0.119
7.478,-0.125
7.479,-0.122
7.480,-0.125
7.481,-0.125
7.482,-0.122
7.483,-0.122
7.484,-0.121
7.485,-0.119
7.486,-0.112
7.487,-0.109
7.488,-0.107
7.489,-0.109
7.490,-0.108
7.491,-0.106
7.492,-0.106
7.493,-0.109
7.494,-0.111
7.495,-0.112
7.496,-0.114
7.497,-0.119
7.498,-0.117
7.499,-0.119
7.500,-0.112
7.501,-0.109
7.502,-0.105
7.503,-0.103
7.504,-0.104
7.505,-0.103
7.506,-0.104
7.507,-0.103
7.508,-0.103
7.509,-0.103
7.510,-0.104
7.511,-0.103
7.512,-0.099
7.513,-0.094
7.514,-0.095
7.515,-0.094
7.516,-0.100
7.517,-0.103
7.518,-0.099
7.519,-0.097
7.520,-0.094
7.521,-0.088
7.522,-0.091
7.523,-0.094
7.524,-0.095
7.525,-0.097
7.526,-0.094
7.527,-0.094
7.528,-0.094
7.529,-0.094
7.530,-0.092
7.531,-0.094
7.532,-0.092
7.533,-0.091
7.534,-0.092
7.535,-0.091
7.536,-0.089
7.537,-0.088
7.538,-0.088
7.539,-0.088
7.540,-0.084
7.541,-0.084
7.542,-0.081
7.543,-0.078
7.544,-0.075
7.545,-0.078
7.546,-0.076
7.547,-0.078
7.548,-0.082
7.549,-0.088
7.550,-0.088
7.551,-0.084
7.552,-0.086
7.553,-0.088
7.554,-0.084
7.555,-0.081
7.556,-0.081
7.557,-0.081
7.558,-0.078
7.559,-0.075
7.560,-0.074
7.561,-0.072
7.562,-0.069
7.563,-0.072
7.564,-0.070
7.565,-0.072
7.566,-0.072
7.567,-0.072
7.568,-0.072
7.569,-0.075
7.570,-0.074
7.571,-0.072
7.572,-0.070
7.573,-0.072
7.574,-0.071
7.575,-0.072
7.576,-0.070
7.577,-0.072
7.578,-0.062
7.579,-0.059
7.580,-0.053
7.581,-0.050
7.582,-0.051
7.583,-0.050
7.584,-0.049
7.585,-0.044
7.586,-0.043
7.587,-0.041
7.588,-0.039
7.589,-0.037
7.590,-0.036
7.591,-0.034
7.592,-0.031
7.593,-0.031
7.594,-0.032
7.595,-0.028
7.596,-0.025
7.597,-0.019
7.598,-0.019
7.599,-0.016
7.600,-0.014
7.601,-0.013
7.602,-0.014
7.603,-0.013
7.604,-0.008
7.605,0.003
7.606,0.004
7.607,0.009
7.608,0.011
7.609,0.019
7.610,0.017
7.611,0.019
7.612,0.019
7.613,0.019
7.614,0.017
7.615,0.019
7.616,0.022
7.617,0.025
7.618,0.029
7.619,0.034
7.620,0.036
7.621,0.037
7.622,0.037
7.623,0.041
7.624,0.041
7.625,0.041
7.626,0.045
7.627,0.047
7.628,0.051
7.629,0.056
7.630,0.055
7.631,0.056
7.632,0.056
7.633,0.059
7.634,0.066
7.635,0.069
7.636,0.072
7.637,0.075
7.638,0.077
7.639,0.075
7.640,0.075
7.641,0.072
7.642,0.073
7.643,0.081
7.644,0.081
7.645,0.078
7.646,0.080
7.647,0.075
7.648,0.074
7.649,0.075
7.650,0.072
7.651,0.072
7.652,0.072
7.653,0.075
7.654,0.078
7.655,0.078
7.656,0.081
7.657,0.084
7.658,0.081
7.659,0.081
7.660,0.083
7.661,0.081
7.662,0.081
7.663,0.081
7.664,0.081
7.665,0.081
7.666,0.081
7.667,0.081
7.668,0.081
7.669,0.081
7.670,0.080
7.671,0.078
7.672,0.079
7.673,0.081
7.674,0.081
7.675,0.081
7.676,0.084
7.677,0.084
7.678,0.088
7.679,0.088
7.680,0.088
7.681,0.088
7.682,0.088
7.683,0.088
7.684,0.084
7.685,0.084
7.686,0.088
7.687,0.091
7.688,0.091
7.689,0.088
7.690,0.091
7.691,0.091
7.692,0.091
7.693,0.091
7.694,0.089
7.695,0.091
7.696,0.088
7.697,0.088
7.698,0.094
7.699,0.097
7.700,0.100
7.701,0.097
7.702,0.092
7.703,0.091
7.704,0.091
7.705,0.091
7.706,0.089
7.707,0.088
7.708,0.083
7.709,0.078
7.710,0.076
7.711,0.078
7.712,0.075
7.713,0.072
7.714,0.072
7.715,0.066
7.716,0.070
7.717,0.075
7.718,0.076
7.719,0.075
7.720,0.067
7.721,0.059
7.722,0.053
7.723,0.050
7.724,0.050
7.725,0.050
7.726,0.044
7.727,0.041
7.728,0.037
7.729,0.037
7.730,0.033
7.731,0.028
7.732,0.024
7.733,0.019
7.734,0.014
7.735,0.016
7.736,0.013
7.737,0.013
7.738,0.006
7.739,0.003
7.740,0.003
7.741,0.000
7.742,-0.006
7.743,-0.009
7.744,-0.011
7.745,-0.013
7.746,-0.016
7.747,-0.016
7.748,-0.016
7.749,-0.013
7.750,-0.016
7.751,-0.019
7.752,-0.023
7.753,-0.028
7.754,-0.032
7.755,-0.034
7.756,-0.036
7.757,-0.041
7.758,-0.039
7.759,-0.041
7.760,-0.039
7.761,-0.037
7.762,-0.042
7.763,-0.044
7.764,-0.041
7.765,-0.037
7.766,-0.041
7.767,-0.041
7.768,-0.041
7.769,-0.044
7.770,-0.044
7.771,-0.044
7.772,-0.047
7.773,-0.047
7.774,-0.048
7.775,-0.050
7.776,-0.051
7.777,-0.053
7.778,-0.053
7.779,-0.053
7.780,-0.061
7.781,-0.066
7.782,-0.066
7.783,-0.069
7.784,-0.067
7.785,-0.066
7.786,-0.062
7.787,-0.056
7.788,-0.059
7.789,-0.059
7.790,-0.058
7.791,-0.059
7.792,-0.059
7.793,-0.059
7.794,-0.053
7.795,-0.053
7.796,-0.054
7.797,-0.056
7.798,-0.058
7.799,-0.059
7.800,-0.062
7.801,-0.062
7.802,-0.062
7.803,-0.062
7.804,-0.064
7.805,-0.066
7.806,-0.066
7.807,-0.066
7.808,-0.069
7.809,-0.069
7.810,-0.064
7.811,-0.066
7.812,-0.066
7.813,-0.066
7.814,-0.066
7.815,-0.069
7.816,-0.069
7.817,-0.072
7.818,-0.069
7.819,-0.072
7.820,-0.072
7.821,-0.072
7.822,-0.075
7.823,-0.078
7.824,-0.077
7.825,-0.072
7.826,-0.072
7.827,-0.072
7.828,-0.072
7.829,-0.072
7.830,-0.076
7.831,-0.075
7.832,-0.078
7.833,-0.078
7.834,-0.078
7.835,-0.081
7.836,-0.077
7.837,-0.075
7.838,-0.078
7.839,-0.078
7.840,-0.079
7.841,-0.081
7.842,-0.081
7.843,-0.075
7.844,-0.079
7.845,-0.084
7.846,-0.081
7.847,-0.081
7.848,-0.080
7.849,-0.078
7.850,-0.080
7.851,-0.078
7.852,-0.079
7.853,-0.078
7.854,-0.079
7.855,-0.078
7.856,-0.075
7.857,-0.072
7.858,-0.069
7.859,-0.062
7.860,-0.062
7.861,-0.056
7.862,-0.050
7.863,-0.041
7.864,-0.037
7.865,-0.025
7.866,-0.017
7.867,-0.006
7.868,0.001
7.869,0.003
7.870,0.003
7.871,0.006
7.872,0.011
7.873,0.016
7.874,0.019
7.875,0.022
7.876,0.023
7.877,0.022
7.878,0.020
7.879,0.022
7.880,0.021
7.881,0.025
7.882,0.030
7.883,0.031
7.884,0.030
7.885,0.028
7.886,0.037
7.887,0.050
7.888,0.058
7.889,0.069
7.890,0.077
7.891,0.084
7.892,0.097
7.893,0.109
7.894,0.120
7.895,0.128
7.896,0.131
7.897,0.134
7.898,0.130
7.899,0.128
7.900,0.133
7.901,0.134
7.902,0.130
7.903,0.131
7.904,0.130
7.905,0.128
7.906,0.128
7.907,0.128
7.908,0.122
7.909,0.116
7.910,0.116
7.911,0.112
7.912,0.107
7.913,0.103
7.914,0.096
7.915,0.091
7.916,0.091
7.917,0.088
7.918,0.084
7.919,0.078
7.920,0.071
7.921,0.059
7.922,0.054
7.923,0.041
7.924,0.032
7.925,0.022
7.926,0.016
7.927,0.009
7.928,0.002
7.929,-0.003
7.930,-0.016
7.931,-0.025
7.932,-0.039
7.933,-0.053
7.934,-0.059
7.935,-0.069
7.936,-0.075
7.937,-0.084
7.938,-0.089
7.939,-0.094
7.940,-0.100
7.941,-0.106
7.942,-0.109
7.943,-0.119
7.944,-0.119
7.945,-0.122
7.946,-0.126
7.947,-0.131
7.948,-0.136
7.949,-0.141
7.950,-0.145
7.951,-0.153
7.952,-0.153
7.953,-0.156
7.954,-0.156
7.955,-0.159
7.956,-0.159
7.957,-0.159
7.958,-0.159
7.959,-0.159
7.960,-0.158
7.961,-0.156
7.962,-0.161
7.963,-0.163
7.964,-0.164
7.965,-0.166
7.966,-0.166
7.967,-0.166
7.968,-0.166
7.969,-0.166
7.970,-0.166
7.971,-0.166
7.972,-0.169
7.973,-0.172
7.974,-0.173
7.975,-0.175
7.976,-0.174
7.977,-0.172
7.978,-0.172
7.979,-0.169
7.980,-0.172
7.981,-0.169
7.982,-0.169
7.983,-0.169
7.984,-0.167
7.985,-0.169
7.986,-0.170
7.987,-0.172
7.988,-0.172
7.989,-0.172
7.990,-0.172
7.991,-0.172
7.992,-0.170
7.993,-0.172
7.994,-0.169
7.995,-0.166
7.996,-0.170
7.997,-0.172
7.998,-0.169
7.999,-0.169
8.000,-0.170
8.001,-0.172
8.002,-0.166
8.003,-0.163
8.004,-0.166
8.005,-0.169
8.006,-0.179
8.007,-0.187
8.008,-0.197
8.009,-0.203
8.010,-0.203
8.011,-0.197
8.012,-0.191
8.013,-0.178
8.014,-0.166
8.015,-0.153
8.016,-0.134
8.017,-0.116
8.018,-0.078
8.019,-0.037
8.020,0.001
8.021,0.044
8.022,0.094
8.023,0.147
8.024,0.209
8.025,0.281
8.026,0.367
8.027,0.453
8.028,0.550
8.029,0.647
8.030,0.743
8.031,0.841
8.032,0.934
8.033,1.031
8.034,1.125
8.035,1.219
8.036,1.302
8.037,1.378
8.038,1.444
8.039,1.503
8.040,1.524
8.041,1.528
8.042,1.476
8.043,1.419
8.044,1.322
8.045,1.219
8.046,1.097
8.047,0.972
8.048,0.822
8.049,0.666
8.050,0.506
8.051,0.356
8.052,0.229
8.053,0.106
8.054,0.020
8.055,-0.062
8.056,-0.109
8.057,-0.147
8.058,-0.169
8.059,-0.163
8.060,-0.157
8.061,-0.159
8.062,-0.153
8.063,-0.150
8.064,-0.149
8.065,-0.147
8.066,-0.141
8.067,-0.138
8.068,-0.134
8.069,-0.131
8.070,-0.129
8.071,-0.128
8.072,-0.122
8.073,-0.119
8.074,-0.112
8.075,-0.109
8.076,-0.108
8.077,-0.106
8.078,-0.108
8.079,-0.106
8.080,-0.108
8.081,-0.109
8.082,-0.116
8.083,-0.119
8.084,-0.118
8.085,-0.116
8.086,-0.118
8.087,-0.116
8.088,-0.114
8.089,-0.116
8.090,-0.114
8.091,-0.116
8.092,-0.117
8.093,-0.119
8.094,-0.119
8.095,-0.122
8.096,-0.117
8.097,-0.122
8.098,-0.123
8.099,-0.122
8.100,-0.121
8.101,-0.119
8.102,-0.116
8.103,-0.112
8.104,-0.117
8.105,-0.116
8.106,-0.117
8.107,-0.119
8.108,-0.118
8.109,-0.116
8.110,-0.114
8.111,-0.109
8.112,-0.114
8.113,-0.116
8.114,-0.119
8.115,-0.119
8.116,-0.120
8.117,-0.119
8.118,-0.118
8.119,-0.116
8.120,-0.118
8.121,-0.116
8.122,-0.114
8.123,-0.116
8.124,-0.114
8.125,-0.116
8.126,-0.116
8.127,-0.116
8.128,-0.111
8.129,-0.109
8.130,-0.108
8.131,-0.106
8.132,-0.102
8.133,-0.103
8.134,-0.103
8.135,-0.100
8.136,-0.097
8.137,-0.094
8.138,-0.094
8.139,-0.097
8.140,-0.098
8.141,-0.100
8.142,-0.099
8.143,-0.094
8.144,-0.092
8.145,-0.088
8.146,-0.081
8.147,-0.078
8.148,-0.080
8.149,-0.075
8.150,-0.073
8.151,-0.078
8.152,-0.081
8.153,-0.084
8.154,-0.084
8.155,-0.084
8.156,-0.081
8.157,-0.075
8.158,-0.076
8.159,-0.078
8.160,-0.078
8.161,-0.075
8.162,-0.079
8.163,-0.078
8.164,-0.077
8.165,-0.075
8.166,-0.076
8.167,-0.078
8.168,-0.074
8.169,-0.072
8.170,-0.072
8.171,-0.072
8.172,-0.072
8.173,-0.072
8.174,-0.072
8.175,-0.072
8.176,-0.072
8.177,-0.072
8.178,-0.072
8.179,-0.069
8.180,-0.073
8.181,-0.072
8.182,-0.072
8.183,-0.072
8.184,-0.073
8.185,-0.072
8.186,-0.071
8.187,-0.069
8.188,-0.070
8.189,-0.069
8.190,-0.067
8.191,-0.066
8.192,-0.062
8.193,-0.053
8.194,-0.053
8.195,-0.047
8.196,-0.048
8.197,-0.047
8.198,-0.046
8.199,-0.044
8.200,-0.041
8.201,-0.041
8.202,-0.041
8.203,-0.044
8.204,-0.044
8.205,-0.041
8.206,-0.037
8.207,-0.034
8.208,-0.027
8.209,-0.019
8.210,-0.020
8.211,-0.022
8.212,-0.020
8.213,-0.025
8.214,-0.021
8.215,-0.019
8.216,-0.016
8.217,-0.013
8.218,-0.009
8.219,-0.009
8.220,-0.005
8.221,0.000
8.222,0.008
8.223,0.006
8.224,0.009
8.225,0.009
8.226,0.014
8.227,0.013
8.228,0.016
8.229,0.019
8.230,0.025
8.231,0.028
8.232,0.031
8.233,0.034
8.234,0.036
8.235,0.037
8.236,0.039
8.237,0.041
8.238,0.044
8.239,0.044
8.240,0.048
8.241,0.053
8.242,0.058
8.243,0.062
8.244,0.061
8.245,0.062
8.246,0.069
8.247,0.072
8.248,0.074
8.249,0.072
8.250,0.075
8.251,0.078
8.252,0.081
8.253,0.084
8.254,0.083
8.255,0.084
8.256,0.083
8.257,0.084
8.258,0.083
8.259,0.081
8.260,0.088
8.261,0.088
8.262,0.084
8.263,0.088
8.264,0.083
8.265,0.081
8.266,0.086
8.267,0.084
8.268,0.084
8.269,0.084
8.270,0.084
8.271,0.084
8.272,0.086
8.273,0.088
8.274,0.089
8.275,0.088
8.276,0.084
8.277,0.084
8.278,0.084
8.279,0.084
8.280,0.084
8.281,0.084
8.282,0.084
8.283,0.084
8.284,0.084
8.285,0.084
8.286,0.088
8.287,0.091
8.288,0.091
8.289,0.091
8.290,0.091
8.291,0.091
8.292,0.088
8.293,0.088
8.294,0.089
8.295,0.094
8.296,0.095
8.297,0.097
8.298,0.096
8.299,0.094
8.300,0.094
8.301,0.094
8.302,0.097
8.303,0.097
8.304,0.098
8.305,0.100
8.306,0.096
8.307,0.097
8.308,0.096
8.309,0.094
8.310,0.094
8.311,0.094
8.312,0.096
8.313,0.094
8.314,0.100
8.315,0.103
8.316,0.100
8.317,0.103
8.318,0.103
8.319,0.103
8.320,0.102
8.321,0.100
8.322,0.100
8.323,0.100
8.324,0.097
8.325,0.094
8.326,0.094
8.327,0.091
8.328,0.089
8.329,0.084
8.330,0.081
8.331,0.084
8.332,0.081
8.333,0.078
8.334,0.075
8.335,0.075
8.336,0.073
8.337,0.072
8.338,0.067
8.339,0.062
8.340,0.064
8.341,0.062
8.342,0.061
8.343,0.059
8.344,0.061
8.345,0.056
8.346,0.052
8.347,0.047
8.348,0.045
8.349,0.044
8.350,0.041
8.351,0.034
8.352,0.031
8.353,0.025
8.354,0.028
8.355,0.025
8.356,0.019
8.357,0.016
8.358,0.011
8.359,0.006
8.360,0.007
8.361,0.006
8.362,0.003
8.363,0.000
8.364,-0.001
8.365,-0.006
8.366,-0.003
8.367,-0.003
8.368,-0.005
8.369,-0.006
8.370,-0.009
8.371,-0.013
8.372,-0.016
8.373,-0.019
8.374,-0.022
8.375,-0.022
8.376,-0.025
8.377,-0.025
8.378,-0.025
8.379,-0.028
8.380,-0.031
8.381,-0.034
8.382,-0.034
8.383,-0.037
8.384,-0.036
8.385,-0.034
8.386,-0.037
8.387,-0.037
8.388,-0.037
8.389,-0.041
8.390,-0.041
8.391,-0.041
8.392,-0.041
8.393,-0.041
8.394,-0.041
8.395,-0.041
8.396,-0.039
8.397,-0.041
8.398,-0.039
8.399,-0.037
8.400,-0.042
8.401,-0.044
8.402,-0.045
8.403,-0.047
8.404,-0.044
8.405,-0.047
8.406,-0.044
8.407,-0.041
8.408,-0.045
8.409,-0.047
8.410,-0.048
8.411,-0.047
8.412,-0.050
8.413,-0.050
8.414,-0.051
8.415,-0.053
8.416,-0.052
8.417,-0.053
8.418,-0.052
8.419,-0.050
8.420,-0.050
8.421,-0.050
8.422,-0.047
8.423,-0.044
8.424,-0.045
8.425,-0.047
8.426,-0.051
8.427,-0.053
8.428,-0.050
8.429,-0.053
8.430,-0.053
8.431,-0.053
8.432,-0.053
8.433,-0.056
8.434,-0.055
8.435,-0.056
8.436,-0.053
8.437,-0.056
8.438,-0.056
8.439,-0.056
8.440,-0.055
8.441,-0.053
8.442,-0.056
8.443,-0.056
8.444,-0.056
8.445,-0.056
8.446,-0.055
8.447,-0.053
8.448,-0.058
8.449,-0.056
8.450,-0.059
8.451,-0.059
8.452,-0.059
8.453,-0.062
8.454,-0.062
8.455,-0.066
8.456,-0.069
8.457,-0.069
8.458,-0.069
8.459,-0.069
8.460,-0.073
8.461,-0.072
8.462,-0.074
8.463,-0.075
8.464,-0.071
8.465,-0.069
8.466,-0.069
8.467,-0.069
8.468,-0.075
8.469,-0.078
8.470,-0.075
8.471,-0.069
8.472,-0.072
8.473,-0.072
8.474,-0.070
8.475,-0.069
8.476,-0.062
8.477,-0.053
8.478,-0.051
8.479,-0.044
8.480,-0.042
8.481,-0.037
8.482,-0.033
8.483,-0.019
8.484,-0.013
8.485,-0.003
8.486,0.003
8.487,0.003
8.488,0.002
8.489,0.003
8.490,0.009
8.491,0.016
8.492,0.022
8.493,0.028
8.494,0.029
8.495,0.028
8.496,0.024
8.497,0.022
8.498,0.019
8.499,0.022
8.500,0.029
8.501,0.034
8.502,0.039
8.503,0.044
8.504,0.049
8.505,0.056
8.506,0.061
8.507,0.069
8.508,0.081
8.509,0.094
8.510,0.103
8.511,0.112
8.512,0.122
8.513,0.128
8.514,0.133
8.515,0.137
8.516,0.137
8.517,0.141
8.518,0.142
8.519,0.141
8.520,0.136
8.521,0.137
8.522,0.137
8.523,0.137
8.524,0.134
8.525,0.131
8.526,0.128
8.527,0.125
8.528,0.123
8.529,0.119
8.530,0.111
8.531,0.103
8.532,0.098
8.533,0.097
8.534,0.096
8.535,0.091
8.536,0.089
8.537,0.084
8.538,0.078
8.539,0.069
8.540,0.066
8.541,0.053
8.542,0.041
8.543,0.025
8.544,0.017
8.545,0.009
8.546,0.006
8.547,0.006
8.548,-0.003
8.549,-0.009
8.550,-0.023
8.551,-0.037
8.552,-0.043
8.553,-0.050
8.554,-0.056
8.555,-0.066
8.556,-0.069
8.557,-0.072
8.558,-0.079
8.559,-0.088
8.560,-0.094
8.561,-0.106
8.562,-0.106
8.563,-0.109
8.564,-0.117
8.565,-0.125
8.566,-0.129
8.567,-0.134
8.568,-0.139
8.569,-0.147
8.570,-0.147
8.571,-0.150
8.572,-0.149
8.573,-0.150
8.574,-0.150
8.575,-0.150
8.576,-0.150
8.577,-0.150
8.578,-0.149
8.579,-0.147
8.580,-0.154
8.581,-0.159
8.582,-0.161
8.583,-0.163
8.584,-0.164
8.585,-0.166
8.586,-0.166
8.587,-0.166
8.588,-0.164
8.589,-0.163
8.590,-0.163
8.591,-0.163
8.592,-0.163
8.593,-0.163
8.594,-0.163
8.595,-0.163
8.596,-0.167
8.597,-0.169
8.598,-0.175
8.599,-0.175
8.600,-0.175
8.601,-0.175
8.602,-0.173
8.603,-0.175
8.604,-0.175
8.605,-0.175
8.606,-0.175
8.607,-0.175
8.608,-0.175
8.609,-0.175
8.610,-0.173
8.611,-0.175
8.612,-0.171
8.613,-0.166
8.614,-0.166
8.615,-0.163
8.616,-0.159
8.617,-0.159
8.618,-0.161
8.619,-0.163
8.620,-0.164
8.621,-0.169
8.622,-0.171
8.623,-0.172
8.624,-0.178
8.625,-0.181
8.626,-0.192
8.627,-0.200
8.628,-0.204
8.629,-0.203
8.630,-0.197
8.631,-0.184
8.632,-0.173
8.633,-0.163
8.634,-0.148
8.635,-0.134
8.636,-0.104
8.637,-0.072
8.638,-0.034
8.639,0.006
8.640,0.056
8.641,0.109
8.642,0.164
8.643,0.228
8.644,0.309
8.645,0.391
8.646,0.484
8.647,0.578
8.648,0.675
8.649,0.775
8.650,0.872
8.651,0.972
8.652,1.073
8.653,1.175
8.654,1.270
8.655,1.359
8.656,1.428
8.657,1.491
8.658,1.531
8.659,1.556
8.660,1.519
8.661,1.475
8.662,1.389
8.663,1.297
8.664,1.181
8.665,1.062
8.666,0.931
8.667,0.794
8.668,0.625
8.669,0.466
8.670,0.328
8.671,0.194
8.672,0.083
8.673,-0.025
8.674,-0.088
8.675,-0.141
8.676,-0.169
8.677,-0.169
8.678,-0.161
8.679,-0.159
8.680,-0.154
8.681,-0.153
8.682,-0.157
8.683,-0.163
8.684,-0.159
8.685,-0.159
8.686,-0.156
8.687,-0.153
8.688,-0.149
8.689,-0.144
8.690,-0.138
8.691,-0.134
8.692,-0.131
8.693,-0.131
8.694,-0.128
8.695,-0.125
8.696,-0.129
8.697,-0.131
8.698,-0.131
8.699,-0.131
8.700,-0.133
8.701,-0.131
8.702,-0.130
8.703,-0.128
8.704,-0.130
8.705,-0.128
8.706,-0.129
8.707,-0.134
8.708,-0.131
8.709,-0.131
8.710,-0.133
8.711,-0.134
8.712,-0.138
8.713,-0.144
8.714,-0.138
8.715,-0.141
8.716,-0.142
8.717,-0.141
8.718,-0.141
8.719,-0.141
8.720,-0.141
8.721,-0.141
8.722,-0.145
8.723,-0.144
8.724,-0.142
8.725,-0.141
8.726,-0.136
8.727,-0.131
8.728,-0.134
8.729,-0.134
8.730,-0.138
8.731,-0.138
8.732,-0.138
8.733,-0.134
8.734,-0.134
8.735,-0.131
8.736,-0.130
8.737,-0.128
8.738,-0.131
8.739,-0.131
8.740,-0.129
8.741,-0.131
8.742,-0.128
8.743,-0.128
8.744,-0.131
8.745,-0.134
8.746,-0.130
8.747,-0.128
8.748,-0.128
8.749,-0.128
8.750,-0.124
8.751,-0.125
8.752,-0.126
8.753,-0.125
8.754,-0.125
8.755,-0.125
8.756,-0.121
8.757,-0.119
8.758,-0.116
8.759,-0.112
8.760,-0.114
8.761,-0.112
8.762,-0.114
8.763,-0.112
8.764,-0.106
8.765,-0.103
8.766,-0.107
8.767,-0.106
8.768,-0.103
8.769,-0.106
8.770,-0.106
8.771,-0.106
8.772,-0.107
8.773,-0.109
8.774,-0.108
8.775,-0.103
8.776,-0.104
8.777,-0.106
8.778,-0.107
8.779,-0.106
8.780,-0.111
8.781,-0.109
8.782,-0.103
8.783,-0.097
8.784,-0.098
8.785,-0.100
8.786,-0.098
8.787,-0.100
8.788,-0.100
8.789,-0.100
8.790,-0.100
8.791,-0.100
8.792,-0.100
8.793,-0.100
8.794,-0.100
8.795,-0.100
8.796,-0.101
8.797,-0.100
8.798,-0.102
8.799,-0.097
8.800,-0.096
8.801,-0.094
8.802,-0.095
8.803,-0.094
8.804,-0.094
8.805,-0.094
8.806,-0.095
8.807,-0.094
8.808,-0.095
8.809,-0.097
8.810,-0.099
8.811,-0.094
8.812,-0.094
8.813,-0.088
8.814,-0.089
8.815,-0.088
8.816,-0.089
8.817,-0.091
8.818,-0.089
8.819,-0.091
8.820,-0.088
8.821,-0.088
8.822,-0.089
8.823,-0.088
8.824,-0.088
8.825,-0.088
8.826,-0.081
8.827,-0.075
8.828,-0.075
8.829,-0.075
8.830,-0.070
8.831,-0.072
8.832,-0.066
8.833,-0.062
8.834,-0.062
8.835,-0.062
8.836,-0.059
8.837,-0.059
8.838,-0.058
8.839,-0.056
8.840,-0.048
8.841,-0.050
8.842,-0.044
8.843,-0.041
8.844,-0.034
8.845,-0.034
8.846,-0.032
8.847,-0.031
8.848,-0.029
8.849,-0.031
8.850,-0.025
8.851,-0.019
8.852,-0.017
8.853,-0.016
8.854,-0.011
8.855,-0.006
8.856,-0.004
8.857,-0.006
8.858,-0.004
8.859,-0.003
8.860,-0.001
8.861,0.000
8.862,0.003
8.863,0.009
8.864,0.011
8.865,0.009
8.866,0.011
8.867,0.009
8.868,0.016
8.869,0.022
8.870,0.022
8.871,0.022
8.872,0.021
8.873,0.022
8.874,0.023
8.875,0.028
8.876,0.028
8.877,0.028
8.878,0.034
8.879,0.034
8.880,0.030
8.881,0.031
8.882,0.028
8.883,0.028
8.884,0.032
8.885,0.031
8.886,0.030
8.887,0.028
8.888,0.028
8.889,0.028
8.890,0.028
8.891,0.028
8.892,0.029
8.893,0.028
8.894,0.028
8.895,0.031
8.896,0.031
8.897,0.031
8.898,0.031
8.899,0.031
8.900,0.031
8.901,0.031
8.902,0.031
8.903,0.031
8.904,0.031
8.905,0.031
8.906,0.031
8.907,0.031
8.908,0.031
8.909,0.031
8.910,0.036
8.911,0.044
8.912,0.043
8.913,0.044
8.914,0.043
8.915,0.041
8.916,0.041
8.917,0.041
8.918,0.041
8.919,0.041
8.920,0.043
8.921,0.041
8.922,0.045
8.923,0.050
8.924,0.043
8.925,0.041
8.926,0.044
8.927,0.047
8.928,0.047
8.929,0.047
8.930,0.049
8.931,0.047
8.932,0.053
8.933,0.056
8.934,0.052
8.935,0.053
8.936,0.050
8.937,0.047
8.938,0.047
8.939,0.047
8.940,0.046
8.941,0.044
8.942,0.044
8.943,0.044
8.944,0.045
8.945,0.044
8.946,0.044
8.947,0.041
8.948,0.036
8.949,0.037
8.950,0.037
8.951,0.037
8.952,0.033
8.953,0.031
8.954,0.028
8.955,0.025
8.956,0.023
8.957,0.022
8.958,0.021
8.959,0.016
8.960,0.014
8.961,0.013
8.962,0.014
8.963,0.009
8.964,0.007
8.965,0.006
8.966,0.002
8.967,-0.003
8.968,-0.003
8.969,-0.006
8.970,-0.009
8.971,-0.016
8.972,-0.017
8.973,-0.025
8.974,-0.028
8.975,-0.028
8.976,-0.031
8.977,-0.034
8.978,-0.037
8.979,-0.044
8.980,-0.047
8.981,-0.050
8.982,-0.050
8.983,-0.053
8.984,-0.054
8.985,-0.059
8.986,-0.059
8.987,-0.059
8.988,-0.061
8.989,-0.062
8.990,-0.064
8.991,-0.066
8.992,-0.067
8.993,-0.066
8.994,-0.069
8.995,-0.069
8.996,-0.067
8.997,-0.069
8.998,-0.070
8.999,-0.072
9.000,-0.075
9.001,-0.081
9.002,-0.080
9.003,-0.078
9.004,-0.084
9.005,-0.088
9.006,-0.088
9.007,-0.091
9.008,-0.091
9.009,-0.091
9.010,-0.089
9.011,-0.088
9.012,-0.084
9.013,-0.081
9.014,-0.080
9.015,-0.081
9.016,-0.082
9.017,-0.084
9.018,-0.088
9.019,-0.088
9.020,-0.089
9.021,-0.091
9.022,-0.086
9.023,-0.088
9.024,-0.086
9.025,-0.084
9.026,-0.088
9.027,-0.088
9.028,-0.088
9.029,-0.084
9.030,-0.088
9.031,-0.088
9.032,-0.089
9.033,-0.091
9.034,-0.089
9.035,-0.091
9.036,-0.089
9.037,-0.088
9.038,-0.088
9.039,-0.088
9.040,-0.089
9.041,-0.091
9.042,-0.086
9.043,-0.088
9.044,-0.089
9.045,-0.091
9.046,-0.089
9.047,-0.091
9.048,-0.091
9.049,-0.091
9.050,-0.094
9.051,-0.097
9.052,-0.097
9.053,-0.097
9.054,-0.100
9.055,-0.100
9.056,-0.096
9.057,-0.097
9.058,-0.097
9.059,-0.097
9.060,-0.098
9.061,-0.103
9.062,-0.103
9.063,-0.106
9.064,-0.099
9.065,-0.097
9.066,-0.098
9.067,-0.100
9.068,-0.100
9.069,-0.100
9.070,-0.104
9.071,-0.106
9.072,-0.105
9.073,-0.103
9.074,-0.104
9.075,-0.106
9.076,-0.111
9.077,-0.109
9.078,-0.112
9.079,-0.112
9.080,-0.109
9.081,-0.109
9.082,-0.109
9.083,-0.112
9.084,-0.116
9.085,-0.116
9.086,-0.112
9.087,-0.109
9.088,-0.111
9.089,-0.106
9.090,-0.111
9.091,-0.116
9.092,-0.117
9.093,-0.122
9.094,-0.122
9.095,-0.122
9.096,-0.121
9.097,-0.116
9.098,-0.116
9.099,-0.112
9.100,-0.114
9.101,-0.112
9.102,-0.109
9.103,-0.106
9.104,-0.102
9.105,-0.094
9.106,-0.091
9.107,-0.081
9.108,-0.081
9.109,-0.078
9.110,-0.074
9.111,-0.059
9.112,-0.058
9.113,-0.053
9.114,-0.048
9.115,-0.050
9.116,-0.044
9.117,-0.034
9.118,-0.030
9.119,-0.025
9.120,-0.021
9.121,-0.016
9.122,-0.014
9.123,-0.016
9.124,-0.019
9.125,-0.019
9.126,-0.020
9.127,-0.016
9.128,-0.009
9.129,-0.006
9.130,-0.004
9.131,-0.003
9.132,0.002
9.133,0.009
9.134,0.019
9.135,0.031
9.136,0.041
9.137,0.050
9.138,0.058
9.139,0.066
9.140,0.074
9.141,0.078
9.142,0.083
9.143,0.088
9.144,0.091
9.145,0.097
9.146,0.100
9.147,0.100
9.148,0.096
9.149,0.097
9.150,0.094
9.151,0.091
9.152,0.091
9.153,0.091
9.154,0.088
9.155,0.084
9.156,0.081
9.157,0.075
9.158,0.066
9.159,0.056
9.160,0.050
9.161,0.047
9.162,0.046
9.163,0.041
9.164,0.041
9.165,0.037
9.166,0.034
9.167,0.028
9.168,0.022
9.169,0.006
9.170,-0.006
9.171,-0.022
9.172,-0.034
9.173,-0.047
9.174,-0.052
9.175,-0.053
9.176,-0.059
9.177,-0.062
9.178,-0.069
9.179,-0.075
9.180,-0.082
9.181,-0.094
9.182,-0.103
9.183,-0.116
9.184,-0.121
9.185,-0.125
9.186,-0.131
9.187,-0.138
9.188,-0.142
9.189,-0.153
9.190,-0.156
9.191,-0.163
9.192,-0.163
9.193,-0.163
9.194,-0.166
9.195,-0.169
9.196,-0.172
9.197,-0.178
9.198,-0.178
9.199,-0.181
9.200,-0.187
9.201,-0.197
9.202,-0.197
9.203,-0.197
9.204,-0.197
9.205,-0.197
9.206,-0.196
9.207,-0.194
9.208,-0.193
9.209,-0.187
9.210,-0.191
9.211,-0.194
9.212,-0.197
9.213,-0.200
9.214,-0.200
9.215,-0.200
9.216,-0.200
9.217,-0.200
9.218,-0.201
9.219,-0.203
9.220,-0.203
9.221,-0.203
9.222,-0.202
9.223,-0.200
9.224,-0.204
9.225,-0.206
9.226,-0.209
9.227,-0.206
9.228,-0.206
9.229,-0.206
9.230,-0.204
9.231,-0.206
9.232,-0.203
9.233,-0.200
9.234,-0.200
9.235,-0.200
9.236,-0.201
9.237,-0.203
9.238,-0.201
9.239,-0.203
9.240,-0.200
9.241,-0.197
9.242,-0.199
9.243,-0.197
9.244,-0.195
9.245,-0.197
9.246,-0.198
9.247,-0.200
9.248,-0.197
9.249,-0.197
9.250,-0.200
9.251,-0.203
9.252,-0.208
9.253,-0.209
9.254,-0.219
9.255,-0.225
9.256,-0.229
9.257,-0.228
9.258,-0.223
9.259,-0.213
9.260,-0.203
9.261,-0.194
9.262,-0.179
9.263,-0.166
9.264,-0.136
9.265,-0.103
9.266,-0.070
9.267,-0.034
9.268,0.014
9.269,0.066
9.270,0.118
9.271,0.178
9.272,0.256
9.273,0.334
9.274,0.425
9.275,0.516
9.276,0.617
9.277,0.722
9.278,0.824
9.279,0.928
9.280,1.034
9.281,1.141
9.282,1.236
9.283,1.325
9.284,1.397
9.285,1.463
9.286,1.506
9.287,1.534
9.288,1.504
9.289,1.469
9.290,1.392
9.291,1.309
9.292,1.201
9.293,1.091
9.294,0.964
9.295,0.831
9.296,0.666
9.297,0.509
9.298,0.367
9.299,0.228
9.300,0.112
9.301,0.000
9.302,-0.069
9.303,-0.128
9.304,-0.166
9.305,-0.175
9.306,-0.170
9.307,-0.172
9.308,-0.166
9.309,-0.163
9.310,-0.164
9.311,-0.166
9.312,-0.167
9.313,-0.172
9.314,-0.172
9.315,-0.172
9.316,-0.164
9.317,-0.156
9.318,-0.151
9.319,-0.150
9.320,-0.148
9.321,-0.150
9.322,-0.144
9.323,-0.138
9.324,-0.138
9.325,-0.134
9.326,-0.141
9.327,-0.147
9.328,-0.153
9.329,-0.156
9.330,-0.156
9.331,-0.156
9.332,-0.158
9.333,-0.156
9.334,-0.153
9.335,-0.153
9.336,-0.151
9.337,-0.153
9.338,-0.152
9.339,-0.150
9.340,-0.114
9.341,-0.081
9.342,-0.037
9.343,-0.003
9.344,-0.004
9.345,-0.003
9.346,-0.003
9.347,-0.003
9.348,-0.041
9.349,-0.078
9.350,-0.120
9.351,-0.156
9.352,-0.156
9.353,-0.156
9.354,-0.156
9.355,-0.156
9.356,-0.159
9.357,-0.159
9.358,-0.161
9.359,-0.159
9.360,-0.161
9.361,-0.159
9.362,-0.161
9.363,-0.159
9.364,-0.156
9.365,-0.153
9.366,-0.155
9.367,-0.153
9.368,-0.150
9.369,-0.150
9.370,-0.147
9.371,-0.147
9.372,-0.147
9.373,-0.147
9.374,-0.141
9.375,-0.138
9.376,-0.139
9.377,-0.141
9.378,-0.138
9.379,-0.141
9.380,-0.142
9.381,-0.141
9.382,-0.141
9.383,-0.141
9.384,-0.134
9.385,-0.131
9.386,-0.131
9.387,-0.131
9.388,-0.131
9.389,-0.128
9.390,-0.129
9.391,-0.128
9.392,-0.124
9.393,-0.122
9.394,-0.126
9.395,-0.125
9.396,-0.122
9.397,-0.125
9.398,-0.125
9.399,-0.125
9.400,-0.125
9.401,-0.125
9.402,-0.125
9.403,-0.122
9.404,-0.119
9.405,-0.116
9.406,-0.116
9.407,-0.112
9.408,-0.119
9.409,-0.119
9.410,-0.119
9.411,-0.119
9.412,-0.120
9.413,-0.122
9.414,-0.119
9.415,-0.119
9.416,-0.114
9.417,-0.109
9.418,-0.109
9.419,-0.109
9.420,-0.111
9.421,-0.112
9.422,-0.112
9.423,-0.112
9.424,-0.112
9.425,-0.109
9.426,-0.112
9.427,-0.109
9.428,-0.109
9.429,-0.109
9.430,-0.108
9.431,-0.103
9.432,-0.103
9.433,-0.103
9.434,-0.106
9.435,-0.106
9.436,-0.105
9.437,-0.103
9.438,-0.105
9.439,-0.100
9.440,-0.103
9.441,-0.100
9.442,-0.097
9.443,-0.091
9.444,-0.092
9.445,-0.094
9.446,-0.092
9.447,-0.094
9.448,-0.092
9.449,-0.094
9.450,-0.094
9.451,-0.091
9.452,-0.089
9.453,-0.088
9.454,-0.086
9.455,-0.084
9.456,-0.081
9.457,-0.078
9.458,-0.069
9.459,-0.066
9.460,-0.061
9.461,-0.059
9.462,-0.059
9.463,-0.059
9.464,-0.055
9.465,-0.053
9.466,-0.050
9.467,-0.047
9.468,-0.037
9.469,-0.037
9.470,-0.036
9.471,-0.037
9.472,-0.031
9.473,-0.031
9.474,-0.029
9.475,-0.028
