'Elapsed time','II'
'seconds','mV'
0.000,-0.069
0.001,-0.069
0.002,-0.069
0.003,-0.069
0.004,-0.070
0.005,-0.072
0.006,-0.072
0.007,-0.072
0.008,-0.073
0.009,-0.075
0.010,-0.078
0.011,-0.081
0.012,-0.081
0.013,-0.081
0.014,-0.081
0.015,-0.081
0.016,-0.081
0.017,-0.081
0.018,-0.081
0.019,-0.081
0.020,-0.080
0.021,-0.078
0.022,-0.077
0.023,-0.075
0.024,-0.076
0.025,-0.078
0.026,-0.079
0.027,-0.081
0.028,-0.081
0.029,-0.081
0.030,-0.080
0.031,-0.078
0.032,-0.074
0.033,-0.069
0.034,-0.069
0.035,-0.069
0.036,-0.069
0.037,-0.069
0.038,-0.070
0.039,-0.072
0.040,-0.073
0.041,-0.075
0.042,-0.075
0.043,-0.075
0.044,-0.075
0.045,-0.075
0.046,-0.075
0.047,-0.075
0.048,-0.078
0.049,-0.081
0.050,-0.082
0.051,-0.084
0.052,-0.080
0.053,-0.075
0.054,-0.075
0.055,-0.075
0.056,-0.075
0.057,-0.075
0.058,-0.076
0.059,-0.078
0.060,-0.078
0.061,-0.078
0.062,-0.075
0.063,-0.072
0.064,-0.071
0.065,-0.069
0.066,-0.069
0.067,-0.069
0.068,-0.070
0.069,-0.072
0.070,-0.071
0.071,-0.069
0.072,-0.069
0.073,-0.069
0.074,-0.070
0.075,-0.072
0.076,-0.072
0.077,-0.072
0.078,-0.072
0.079,-0.072
0.080,-0.072
0.081,-0.072
0.082,-0.072
0.083,-0.072
0.084,-0.069
0.085,-0.066
0.086,-0.066
0.087,-0.066
0.088,-0.067
0.089,-0.069
0.090,-0.069
0.091,-0.069
0.092,-0.069
0.093,-0.069
0.094,-0.067
0.095,-0.066
0.096,-0.066
0.097,-0.066
0.098,-0.066
0.099,-0.066
0.100,-0.066
0.101,-0.066
0.102,-0.066
0.103,-0.066
0.104,-0.067
0.105,-0.069
0.106,-0.069
0.107,-0.069
0.108,-0.069
0.109,-0.069
0.110,-0.070
0.111,-0.072
0.112,-0.066
0.113,-0.059
0.114,-0.061
0.115,-0.063
0.116,-0.059
0.117,-0.056
0.118,-0.055
0.119,-0.053
0.120,-0.053
0.121,-0.053
0.122,-0.050
0.123,-0.047
0.124,-0.047
0.125,-0.047
0.126,-0.048
0.127,-0.050
0.128,-0.047
0.129,-0.044
0.130,-0.044
0.131,-0.044
0.132,-0.045
0.133,-0.047
0.134,-0.047
0.135,-0.047
0.136,-0.047
0.137,-0.047
0.138,-0.047
0.139,-0.047
0.140,-0.046
0.141,-0.044
0.142,-0.044
0.143,-0.044
0.144,-0.044
0.145,-0.044
0.146,-0.041
0.147,-0.037
0.148,-0.037
0.149,-0.037
0.150,-0.037
0.151,-0.037
0.152,-0.036
0.153,-0.034
0.154,-0.031
0.155,-0.028
0.156,-0.028
0.157,-0.028
0.158,-0.028
0.159,-0.028
0.160,-0.028
0.161,-0.028
0.162,-0.022
0.163,-0.016
0.164,-0.014
0.165,-0.012
0.166,-0.012
0.167,-0.012
0.168,-0.012
0.169,-0.012
0.170,-0.012
0.171,-0.012
0.172,-0.012
0.173,-0.012
0.174,-0.012
0.175,-0.012
0.176,-0.012
0.177,-0.012
0.178,-0.011
0.179,-0.009
0.180,-0.008
0.181,-0.006
0.182,-0.005
0.183,-0.003
0.184,-0.006
0.185,-0.009
0.186,-0.011
0.187,-0.012
0.188,-0.014
0.189,-0.016
0.190,-0.016
0.191,-0.016
0.192,-0.014
0.193,-0.012
0.194,-0.012
0.195,-0.012
0.196,-0.009
0.197,-0.006
0.198,-0.002
0.199,0.003
0.200,0.003
0.201,0.003
0.202,0.002
0.203,0.000
0.204,0.000
0.205,0.000
0.206,0.000
0.207,0.000
0.208,0.001
0.209,0.003
0.210,0.003
0.211,0.003
0.212,0.000
0.213,-0.003
0.214,-0.002
0.215,0.000
0.216,0.000
0.217,0.000
0.218,0.003
0.219,0.006
0.220,0.007
0.221,0.009
0.222,0.009
0.223,0.009
0.224,0.008
0.225,0.006
0.226,0.006
0.227,0.006
0.228,0.006
0.229,0.006
0.230,0.007
0.231,0.009
0.232,0.009
0.233,0.009
0.234,0.009
0.235,0.009
0.236,0.014
0.237,0.019
0.238,0.020
0.239,0.022
0.240,0.021
0.241,0.019
0.242,0.018
0.243,0.016
0.244,0.016
0.245,0.016
0.246,0.016
0.247,0.016
0.248,0.020
0.249,0.025
0.250,0.025
0.251,0.025
0.252,0.028
0.253,0.031
0.254,0.031
0.255,0.031
0.256,0.031
0.257,0.031
0.258,0.034
0.259,0.037
0.260,0.039
0.261,0.041
0.262,0.039
0.263,0.037
0.264,0.039
0.265,0.041
0.266,0.044
0.267,0.047
0.268,0.047
0.269,0.047
0.270,0.047
0.271,0.047
0.272,0.047
0.273,0.047
0.274,0.048
0.275,0.050
0.276,0.051
0.277,0.053
0.278,0.058
0.279,0.062
0.280,0.062
0.281,0.062
0.282,0.058
0.283,0.053
0.284,0.052
0.285,0.050
0.286,0.050
0.287,0.050
0.288,0.051
0.289,0.053
0.290,0.054
0.291,0.056
0.292,0.055
0.293,0.053
0.294,0.052
0.295,0.050
0.296,0.049
0.297,0.047
0.298,0.048
0.299,0.050
0.300,0.049
0.301,0.047
0.302,0.044
0.303,0.041
0.304,0.037
0.305,0.034
0.306,0.034
0.307,0.034
0.308,0.033
0.309,0.028
0.310,0.024
0.311,0.019
0.312,0.019
0.313,0.022
0.314,0.023
0.315,0.022
0.316,0.022
0.317,0.022
0.318,0.021
0.319,0.019
0.320,0.018
0.321,0.016
0.322,0.017
0.323,0.019
0.324,0.017
0.325,0.019
0.326,0.012
0.327,0.012
0.328,0.009
0.329,0.009
0.330,0.009
0.331,0.009
0.332,0.011
0.333,0.009
0.334,0.009
0.335,0.012
0.336,0.008
0.337,0.006
0.338,0.005
0.339,0.003
0.340,0.003
0.341,0.003
0.342,0.003
0.343,0.003
0.344,0.004
0.345,0.006
0.346,0.003
0.347,0.003
0.348,0.003
0.349,0.003
0.350,0.004
0.351,0.003
0.352,0.005
0.353,0.003
0.354,0.004
0.355,0.003
0.356,0.007
0.357,0.006
0.358,0.005
0.359,0.006
0.360,0.011
0.361,0.012
0.362,0.011
0.363,0.012
0.364,0.014
0.365,0.012
0.366,0.009
0.367,0.009
0.368,0.009
0.369,0.009
0.370,0.011
0.371,0.012
0.372,0.008
0.373,0.006
0.374,0.006
0.375,0.006
0.376,0.009
0.377,0.009
0.378,0.006
0.379,0.006
0.380,0.006
0.381,0.003
0.382,0.004
0.383,0.006
0.384,0.011
0.385,0.009
0.386,0.009
0.387,0.009
0.388,0.008
0.389,0.006
0.390,0.006
0.391,0.003
0.392,0.006
0.393,0.006
0.394,0.005
0.395,0.003
0.396,0.003
0.397,0.003
0.398,0.004
0.399,0.003
0.400,0.002
0.401,-0.003
0.402,-0.001
0.403,-0.003
0.404,0.000
0.405,-0.003
0.406,-0.003
0.407,-0.006
0.408,-0.006
0.409,-0.006
0.410,-0.006
0.411,-0.006
0.412,-0.005
0.413,-0.006
0.414,-0.006
0.415,-0.006
0.416,-0.009
0.417,-0.009
0.418,-0.011
0.419,-0.012
0.420,-0.009
0.421,-0.009
0.422,-0.003
0.423,-0.003
0.424,-0.003
0.425,-0.006
0.426,-0.005
0.427,-0.003
0.428,-0.006
0.429,-0.006
0.430,-0.006
0.431,-0.009
0.432,-0.014
0.433,-0.012
0.434,-0.014
0.435,-0.012
0.436,-0.011
0.437,-0.009
0.438,-0.012
0.439,-0.012
0.440,-0.014
0.441,-0.016
0.442,-0.017
0.443,-0.019
0.444,-0.014
0.445,-0.016
0.446,-0.019
0.447,-0.019
0.448,-0.019
0.449,-0.019
0.450,-0.023
0.451,-0.025
0.452,-0.025
0.453,-0.025
0.454,-0.025
0.455,-0.025
0.456,-0.026
0.457,-0.028
0.458,-0.028
0.459,-0.028
0.460,-0.028
0.461,-0.028
0.462,-0.027
0.463,-0.022
0.464,-0.025
0.465,-0.025
0.466,-0.028
0.467,-0.031
0.468,-0.030
0.469,-0.031
0.470,-0.031
0.471,-0.028
0.472,-0.030
0.473,-0.028
0.474,-0.028
0.475,-0.028
0.476,-0.031
0.477,-0.031
0.478,-0.031
0.479,-0.031
0.480,-0.028
0.481,-0.028
0.482,-0.030
0.483,-0.028
0.484,-0.028
0.485,-0.028
0.486,-0.029
0.487,-0.031
0.488,-0.031
0.489,-0.031
0.490,-0.031
0.491,-0.031
0.492,-0.030
0.493,-0.028
0.494,-0.030
0.495,-0.031
0.496,-0.031
0.497,-0.034
0.498,-0.034
0.499,-0.034
0.500,-0.034
0.501,-0.034
0.502,-0.033
0.503,-0.034
0.504,-0.039
0.505,-0.037
0.506,-0.037
0.507,-0.037
0.508,-0.036
0.509,-0.034
0.510,-0.034
0.511,-0.034
0.512,-0.034
0.513,-0.041
0.514,-0.041
0.515,-0.037
0.516,-0.037
0.517,-0.037
0.518,-0.037
0.519,-0.041
0.520,-0.041
0.521,-0.041
0.522,-0.039
0.523,-0.041
0.524,-0.044
0.525,-0.047
0.526,-0.053
0.527,-0.056
0.528,-0.053
0.529,-0.050
0.530,-0.047
0.531,-0.044
0.532,-0.041
0.533,-0.041
0.534,-0.039
0.535,-0.034
0.536,-0.033
0.537,-0.034
0.538,-0.033
0.539,-0.034
0.540,-0.036
0.541,-0.037
0.542,-0.037
0.543,-0.037
0.544,-0.034
0.545,-0.034
0.546,-0.041
0.547,-0.044
0.548,-0.043
0.549,-0.041
0.550,-0.045
0.551,-0.044
0.552,-0.045
0.553,-0.047
0.554,-0.047
0.555,-0.047
0.556,-0.047
0.557,-0.047
0.558,-0.046
0.559,-0.047
0.560,-0.041
0.561,-0.041
0.562,-0.041
0.563,-0.041
0.564,-0.045
0.565,-0.050
0.566,-0.050
0.567,-0.050
0.568,-0.050
0.569,-0.050
0.570,-0.049
0.571,-0.047
0.572,-0.049
0.573,-0.047
0.574,-0.045
0.575,-0.047
0.576,-0.048
0.577,-0.050
0.578,-0.049
0.579,-0.050
0.580,-0.050
0.581,-0.053
0.582,-0.053
0.583,-0.053
0.584,-0.055
0.585,-0.050
0.586,-0.047
0.587,-0.050
0.588,-0.049
0.589,-0.050
0.590,-0.050
0.591,-0.050
0.592,-0.050
0.593,-0.050
0.594,-0.056
0.595,-0.059
0.596,-0.061
0.597,-0.059
0.598,-0.056
0.599,-0.053
0.600,-0.058
0.601,-0.056
0.602,-0.053
0.603,-0.056
0.604,-0.053
0.605,-0.053
0.606,-0.053
0.607,-0.050
0.608,-0.050
0.609,-0.047
0.610,-0.044
0.611,-0.044
0.612,-0.048
0.613,-0.047
0.614,-0.047
0.615,-0.047
0.616,-0.050
0.617,-0.050
0.618,-0.048
0.619,-0.050
0.620,-0.051
0.621,-0.053
0.622,-0.053
0.623,-0.053
0.624,-0.050
0.625,-0.050
0.626,-0.050
0.627,-0.050
0.628,-0.049
0.629,-0.044
0.630,-0.041
0.631,-0.041
0.632,-0.041
0.633,-0.037
0.634,-0.034
0.635,-0.025
0.636,-0.018
0.637,-0.009
0.638,-0.003
0.639,0.003
0.640,0.003
0.641,0.006
0.642,0.012
0.643,0.019
0.644,0.019
0.645,0.022
0.646,0.022
0.647,0.028
0.648,0.034
0.649,0.037
0.650,0.033
0.651,0.034
0.652,0.030
0.653,0.028
0.654,0.028
0.655,0.028
0.656,0.027
0.657,0.028
0.658,0.028
0.659,0.028
0.660,0.028
0.661,0.031
0.662,0.036
0.663,0.044
0.664,0.048
0.665,0.053
0.666,0.054
0.667,0.059
0.668,0.059
0.669,0.053
0.670,0.056
0.671,0.056
0.672,0.067
0.673,0.075
0.674,0.084
0.675,0.091
0.676,0.094
0.677,0.091
0.678,0.086
0.679,0.081
0.680,0.072
0.681,0.066
0.682,0.062
0.683,0.056
0.684,0.053
0.685,0.050
0.686,0.048
0.687,0.047
0.688,0.039
0.689,0.031
0.690,0.028
0.691,0.022
0.692,0.017
0.693,0.016
0.694,0.006
0.695,0.003
0.696,-0.003
0.697,-0.009
0.698,-0.016
0.699,-0.019
0.700,-0.023
0.701,-0.031
0.702,-0.031
0.703,-0.031
0.704,-0.031
0.705,-0.034
0.706,-0.033
0.707,-0.031
0.708,-0.034
0.709,-0.031
0.710,-0.039
0.711,-0.047
0.712,-0.049
0.713,-0.047
0.714,-0.047
0.715,-0.050
0.716,-0.049
0.717,-0.053
0.718,-0.054
0.719,-0.059
0.720,-0.061
0.721,-0.066
0.722,-0.066
0.723,-0.066
0.724,-0.067
0.725,-0.069
0.726,-0.070
0.727,-0.072
0.728,-0.070
0.729,-0.075
0.730,-0.073
0.731,-0.075
0.732,-0.074
0.733,-0.072
0.734,-0.072
0.735,-0.072
0.736,-0.071
0.737,-0.072
0.738,-0.072
0.739,-0.072
0.740,-0.079
0.741,-0.084
0.742,-0.082
0.743,-0.081
0.744,-0.080
0.745,-0.078
0.746,-0.078
0.747,-0.078
0.748,-0.077
0.749,-0.075
0.750,-0.075
0.751,-0.075
0.752,-0.076
0.753,-0.078
0.754,-0.079
0.755,-0.081
0.756,-0.088
0.757,-0.094
0.758,-0.098
0.759,-0.100
0.760,-0.097
0.761,-0.097
0.762,-0.097
0.763,-0.103
0.764,-0.111
0.765,-0.119
0.766,-0.125
0.767,-0.128
0.768,-0.137
0.769,-0.137
0.770,-0.133
0.771,-0.125
0.772,-0.116
0.773,-0.100
0.774,-0.089
0.775,-0.072
0.776,-0.052
0.777,-0.025
0.778,0.002
0.779,0.031
0.780,0.066
0.781,0.106
0.782,0.152
0.783,0.200
0.784,0.249
0.785,0.300
0.786,0.346
0.787,0.387
0.788,0.434
0.789,0.487
0.790,0.548
0.791,0.616
0.792,0.688
0.793,0.750
0.794,0.809
0.795,0.862
0.796,0.911
0.797,0.959
0.798,0.997
0.799,1.019
0.800,1.021
0.801,1.009
0.802,0.995
0.803,0.956
0.804,0.896
0.805,0.822
0.806,0.748
0.807,0.675
0.808,0.608
0.809,0.538
0.810,0.470
0.811,0.413
0.812,0.349
0.813,0.284
0.814,0.222
0.815,0.159
0.816,0.092
0.817,0.037
0.818,-0.012
0.819,-0.047
0.820,-0.063
0.821,-0.063
0.822,-0.063
0.823,-0.056
0.824,-0.055
0.825,-0.059
0.826,-0.072
0.827,-0.088
0.828,-0.103
0.829,-0.113
0.830,-0.122
0.831,-0.125
0.832,-0.129
0.833,-0.137
0.834,-0.141
0.835,-0.141
0.836,-0.139
0.837,-0.131
0.838,-0.125
0.839,-0.119
0.840,-0.116
0.841,-0.113
0.842,-0.109
0.843,-0.109
0.844,-0.099
0.845,-0.091
0.846,-0.086
0.847,-0.081
0.848,-0.080
0.849,-0.078
0.850,-0.079
0.851,-0.084
0.852,-0.089
0.853,-0.091
0.854,-0.091
0.855,-0.094
0.856,-0.096
0.857,-0.097
0.858,-0.100
0.859,-0.100
0.860,-0.099
0.861,-0.100
0.862,-0.097
0.863,-0.097
0.864,-0.100
0.865,-0.103
0.866,-0.103
0.867,-0.106
0.868,-0.100
0.869,-0.097
0.870,-0.099
0.871,-0.097
0.872,-0.100
0.873,-0.100
0.874,-0.099
0.875,-0.100
0.876,-0.101
0.877,-0.100
0.878,-0.099
0.879,-0.097
0.880,-0.095
0.881,-0.097
0.882,-0.098
0.883,-0.100
0.884,-0.103
0.885,-0.103
0.886,-0.105
0.887,-0.103
0.888,-0.106
0.889,-0.106
0.890,-0.103
0.891,-0.097
0.892,-0.099
0.893,-0.097
0.894,-0.097
0.895,-0.097
0.896,-0.100
0.897,-0.103
0.898,-0.104
0.899,-0.106
0.900,-0.106
0.901,-0.106
0.902,-0.103
0.903,-0.100
0.904,-0.103
0.905,-0.103
0.906,-0.103
0.907,-0.103
0.908,-0.103
0.909,-0.103
0.910,-0.100
0.911,-0.100
0.912,-0.103
0.913,-0.100
0.914,-0.099
0.915,-0.097
0.916,-0.098
0.917,-0.097
0.918,-0.098
0.919,-0.100
0.920,-0.099
0.921,-0.097
0.922,-0.097
0.923,-0.100
0.924,-0.098
0.925,-0.103
0.926,-0.103
0.927,-0.103
0.928,-0.106
0.929,-0.106
0.930,-0.111
0.931,-0.109
0.932,-0.104
0.933,-0.106
0.934,-0.105
0.935,-0.103
0.936,-0.103
0.937,-0.100
0.938,-0.096
0.939,-0.097
0.940,-0.097
0.941,-0.097
0.942,-0.094
0.943,-0.097
0.944,-0.094
0.945,-0.094
0.946,-0.097
0.947,-0.094
0.948,-0.094
0.949,-0.094
0.950,-0.094
0.951,-0.094
0.952,-0.092
0.953,-0.091
0.954,-0.091
0.955,-0.091
0.956,-0.089
0.957,-0.091
0.958,-0.092
0.959,-0.094
0.960,-0.095
0.961,-0.094
0.962,-0.094
0.963,-0.088
0.964,-0.089
0.965,-0.088
0.966,-0.084
0.967,-0.084
0.968,-0.092
0.969,-0.091
0.970,-0.091
0.971,-0.091
0.972,-0.088
0.973,-0.081
0.974,-0.080
0.975,-0.078
0.976,-0.078
0.977,-0.078
0.978,-0.079
0.979,-0.081
0.980,-0.081
0.981,-0.081
0.982,-0.080
0.983,-0.078
0.984,-0.075
0.985,-0.075
0.986,-0.075
0.987,-0.075
0.988,-0.074
0.989,-0.069
0.990,-0.069
0.991,-0.069
0.992,-0.067
0.993,-0.069
0.994,-0.067
0.995,-0.069
0.996,-0.069
0.997,-0.066
0.998,-0.066
0.999,-0.066
1.000,-0.064
1.001,-0.066
1.002,-0.066
1.003,-0.066
1.004,-0.066
1.005,-0.066
1.006,-0.066
1.007,-0.066
1.008,-0.066
1.009,-0.066
1.010,-0.066
1.011,-0.066
1.012,-0.066
1.013,-0.066
1.014,-0.058
1.015,-0.053
1.016,-0.052
1.017,-0.050
1.018,-0.047
1.019,-0.047
1.020,-0.047
1.021,-0.044
1.022,-0.041
1.023,-0.037
1.024,-0.037
1.025,-0.041
1.026,-0.042
1.027,-0.044
1.028,-0.045
1.029,-0.047
1.030,-0.047
1.031,-0.047
1.032,-0.048
1.033,-0.047
1.034,-0.046
1.035,-0.044
1.036,-0.041
1.037,-0.041
1.038,-0.041
1.039,-0.041
1.040,-0.037
1.041,-0.031
1.042,-0.031
1.043,-0.031
1.044,-0.033
1.045,-0.034
1.046,-0.034
1.047,-0.034
1.048,-0.034
1.049,-0.034
1.050,-0.033
1.051,-0.031
1.052,-0.029
1.053,-0.031
1.054,-0.030
1.055,-0.028
1.056,-0.028
1.057,-0.028
1.058,-0.026
1.059,-0.028
1.060,-0.028
1.061,-0.028
1.062,-0.022
1.063,-0.022
1.064,-0.019
1.065,-0.016
1.066,-0.012
1.067,-0.016
1.068,-0.019
1.069,-0.019
1.070,-0.019
1.071,-0.019
1.072,-0.020
1.073,-0.022
1.074,-0.021
1.075,-0.019
1.076,-0.018
1.077,-0.016
1.078,-0.012
1.079,-0.012
1.080,-0.014
1.081,-0.012
1.082,-0.008
1.083,-0.003
1.084,-0.003
1.085,0.000
1.086,-0.003
1.087,-0.006
1.088,-0.008
1.089,-0.009
1.090,-0.008
1.091,-0.006
1.092,-0.005
1.093,-0.003
1.094,-0.003
1.095,-0.003
1.096,-0.002
1.097,0.000
1.098,0.002
1.099,0.000
1.100,-0.001
1.101,0.000
1.102,-0.001
1.103,-0.003
1.104,-0.002
1.105,0.000
1.106,0.003
1.107,0.006
1.108,0.009
1.109,0.009
1.110,0.009
1.111,0.012
1.112,0.011
1.113,0.012
1.114,0.017
1.115,0.019
1.116,0.025
1.117,0.028
1.118,0.027
1.119,0.025
1.120,0.030
1.121,0.028
1.122,0.029
1.123,0.034
1.124,0.036
1.125,0.034
1.126,0.036
1.127,0.034
1.128,0.037
1.129,0.044
1.130,0.043
1.131,0.044
1.132,0.041
1.133,0.041
1.134,0.041
1.135,0.044
1.136,0.045
1.137,0.050
1.138,0.054
1.139,0.056
1.140,0.059
1.141,0.062
1.142,0.059
1.143,0.056
1.144,0.055
1.145,0.053
1.146,0.052
1.147,0.053
1.148,0.049
1.149,0.050
1.150,0.054
1.151,0.056
1.152,0.051
1.153,0.053
1.154,0.053
1.155,0.053
1.156,0.052
1.157,0.050
1.158,0.054
1.159,0.053
1.160,0.052
1.161,0.050
1.162,0.053
1.163,0.050
1.164,0.047
1.165,0.047
1.166,0.044
1.167,0.044
1.168,0.044
1.169,0.044
1.170,0.042
1.171,0.041
1.172,0.039
1.173,0.034
1.174,0.034
1.175,0.034
1.176,0.031
1.177,0.031
1.178,0.033
1.179,0.031
1.180,0.028
1.181,0.025
1.182,0.024
1.183,0.022
1.184,0.022
1.185,0.022
1.186,0.023
1.187,0.022
1.188,0.023
1.189,0.022
1.190,0.018
1.191,0.012
1.192,0.009
1.193,0.009
1.194,0.006
1.195,0.003
1.196,0.003
1.197,0.000
1.198,0.003
1.199,0.006
1.200,0.005
1.201,0.003
1.202,0.004
1.203,0.006
1.204,0.002
1.205,0.003
1.206,0.004
1.207,0.003
1.208,0.003
1.209,0.003
1.210,0.000
1.211,0.000
1.212,-0.001
1.213,0.000
1.214,0.001
1.215,0.000
1.216,0.003
1.217,0.003
1.218,-0.001
1.219,-0.003
1.220,-0.001
1.221,-0.006
1.222,-0.006
1.223,-0.006
1.224,0.000
1.225,0.000
1.226,0.004
1.227,0.006
1.228,0.006
1.229,0.006
1.230,0.003
1.231,0.000
1.232,-0.001
1.233,0.000
1.234,0.003
1.235,0.003
1.236,0.002
1.237,0.003
1.238,0.002
1.239,0.003
1.240,0.004
1.241,0.003
1.242,0.005
1.243,0.003
1.244,0.004
1.245,0.006
1.246,0.004
1.247,0.006
1.248,-0.001
1.249,-0.006
1.250,-0.004
1.251,-0.006
1.252,-0.009
1.253,-0.009
1.254,-0.009
1.255,-0.009
1.256,-0.006
1.257,-0.003
1.258,0.000
1.259,0.000
1.260,-0.003
1.261,-0.006
1.262,-0.006
1.263,-0.009
1.264,-0.011
1.265,-0.009
1.266,-0.009
1.267,-0.006
1.268,-0.006
1.269,-0.006
1.270,-0.005
1.271,-0.006
1.272,-0.009
1.273,-0.009
1.274,-0.014
1.275,-0.016
1.276,-0.012
1.277,-0.012
1.278,-0.012
1.279,-0.012
1.280,-0.009
1.281,-0.006
1.282,-0.003
1.283,0.000
1.284,-0.003
1.285,-0.006
1.286,-0.008
1.287,-0.006
1.288,-0.006
1.289,-0.006
1.290,-0.004
1.291,-0.003
1.292,-0.006
1.293,-0.009
1.294,-0.011
1.295,-0.012
1.296,-0.012
1.297,-0.016
1.298,-0.014
1.299,-0.012
1.300,-0.011
1.301,-0.009
1.302,-0.011
1.303,-0.012
1.304,-0.016
1.305,-0.019
1.306,-0.014
1.307,-0.016
1.308,-0.016
1.309,-0.016
1.310,-0.012
1.311,-0.012
1.312,-0.019
1.313,-0.022
1.314,-0.025
1.315,-0.031
1.316,-0.031
1.317,-0.028
1.318,-0.036
1.319,-0.034
1.320,-0.034
1.321,-0.034
1.322,-0.033
1.323,-0.031
1.324,-0.028
1.325,-0.025
1.326,-0.027
1.327,-0.025
1.328,-0.028
1.329,-0.028
1.330,-0.028
1.331,-0.028
1.332,-0.028
1.333,-0.028
1.334,-0.028
1.335,-0.028
1.336,-0.031
1.337,-0.031
1.338,-0.031
1.339,-0.031
1.340,-0.031
1.341,-0.031
1.342,-0.033
1.343,-0.034
1.344,-0.036
1.345,-0.037
1.346,-0.036
1.347,-0.034
1.348,-0.037
1.349,-0.037
1.350,-0.034
1.351,-0.034
1.352,-0.037
1.353,-0.037
1.354,-0.036
1.355,-0.034
1.356,-0.037
1.357,-0.034
1.358,-0.039
1.359,-0.041
1.360,-0.042
1.361,-0.041
1.362,-0.041
1.363,-0.037
1.364,-0.036
1.365,-0.031
1.366,-0.034
1.367,-0.034
1.368,-0.034
1.369,-0.034
1.370,-0.037
1.371,-0.037
1.372,-0.037
1.373,-0.037
1.374,-0.036
1.375,-0.037
1.376,-0.042
1.377,-0.044
1.378,-0.046
1.379,-0.044
1.380,-0.041
1.381,-0.041
1.382,-0.042
1.383,-0.044
1.384,-0.044
1.385,-0.044
1.386,-0.044
1.387,-0.037
1.388,-0.034
1.389,-0.031
1.390,-0.033
1.391,-0.034
1.392,-0.039
1.393,-0.044
1.394,-0.045
1.395,-0.047
1.396,-0.046
1.397,-0.044
1.398,-0.048
1.399,-0.047
1.400,-0.047
1.401,-0.047
1.402,-0.047
1.403,-0.047
1.404,-0.050
1.405,-0.047
1.406,-0.050
1.407,-0.050
1.408,-0.050
1.409,-0.047
1.410,-0.050
1.411,-0.050
1.412,-0.049
1.413,-0.047
1.414,-0.050
1.415,-0.050
1.416,-0.050
1.417,-0.050
1.418,-0.049
1.419,-0.047
1.420,-0.050
1.421,-0.050
1.422,-0.051
1.423,-0.050
1.424,-0.053
1.425,-0.053
1.426,-0.050
1.427,-0.047
1.428,-0.047
1.429,-0.047
1.430,-0.044
1.431,-0.041
1.432,-0.042
1.433,-0.044
1.434,-0.047
1.435,-0.050
1.436,-0.049
1.437,-0.050
1.438,-0.050
1.439,-0.047
1.440,-0.047
1.441,-0.047
1.442,-0.047
1.443,-0.047
1.444,-0.051
1.445,-0.050
1.446,-0.050
1.447,-0.050
1.448,-0.049
1.449,-0.050
1.450,-0.047
1.451,-0.047
1.452,-0.050
1.453,-0.047
1.454,-0.051
1.455,-0.050
1.456,-0.048
1.457,-0.050
1.458,-0.049
1.459,-0.050
1.460,-0.051
1.461,-0.053
1.462,-0.051
1.463,-0.053
1.464,-0.052
1.465,-0.053
1.466,-0.053
1.467,-0.053
1.468,-0.058
1.469,-0.056
1.470,-0.055
1.471,-0.056
1.472,-0.055
1.473,-0.056
1.474,-0.055
1.475,-0.050
1.476,-0.049
1.477,-0.050
1.478,-0.048
1.479,-0.050
1.480,-0.049
1.481,-0.050
1.482,-0.050
1.483,-0.047
1.484,-0.047
1.485,-0.047
1.486,-0.047
1.487,-0.047
1.488,-0.050
1.489,-0.050
1.490,-0.050
1.491,-0.050
1.492,-0.047
1.493,-0.044
1.494,-0.042
1.495,-0.041
1.496,-0.039
1.497,-0.034
1.498,-0.028
1.499,-0.025
1.500,-0.014
1.501,-0.006
1.502,0.001
1.503,0.006
1.504,0.009
1.505,0.009
1.506,0.012
1.507,0.016
1.508,0.020
1.509,0.025
1.510,0.031
1.511,0.031
1.512,0.034
1.513,0.034
1.514,0.036
1.515,0.034
1.516,0.037
1.517,0.034
1.518,0.033
1.519,0.031
1.520,0.030
1.521,0.028
1.522,0.031
1.523,0.031
1.524,0.033
1.525,0.037
1.526,0.048
1.527,0.053
1.528,0.056
1.529,0.059
1.530,0.061
1.531,0.059
1.532,0.058
1.533,0.059
1.534,0.062
1.535,0.069
1.536,0.075
1.537,0.088
1.538,0.091
1.539,0.097
1.540,0.097
1.541,0.097
1.542,0.092
1.543,0.088
1.544,0.081
1.545,0.072
1.546,0.069
1.547,0.066
1.548,0.058
1.549,0.050
1.550,0.048
1.551,0.050
1.552,0.044
1.553,0.037
1.554,0.036
1.555,0.034
1.556,0.028
1.557,0.022
1.558,0.019
1.559,0.009
1.560,0.007
1.561,0.006
1.562,0.000
1.563,-0.009
1.564,-0.014
1.565,-0.019
1.566,-0.025
1.567,-0.025
1.568,-0.024
1.569,-0.022
1.570,-0.026
1.571,-0.028
1.572,-0.028
1.573,-0.034
1.574,-0.034
1.575,-0.041
1.576,-0.046
1.577,-0.047
1.578,-0.046
1.579,-0.044
1.580,-0.047
1.581,-0.047
1.582,-0.052
1.583,-0.050
1.584,-0.052
1.585,-0.050
1.586,-0.053
1.587,-0.053
1.588,-0.053
1.589,-0.056
1.590,-0.061
1.591,-0.063
1.592,-0.059
1.593,-0.053
1.594,-0.056
1.595,-0.053
1.596,-0.053
1.597,-0.053
1.598,-0.056
1.599,-0.059
1.600,-0.059
1.601,-0.059
1.602,-0.063
1.603,-0.063
1.604,-0.059
1.605,-0.059
1.606,-0.061
1.607,-0.059
1.608,-0.059
1.609,-0.063
1.610,-0.063
1.611,-0.063
1.612,-0.064
1.613,-0.066
1.614,-0.066
1.615,-0.066
1.616,-0.063
1.617,-0.059
1.618,-0.059
1.619,-0.059
1.620,-0.061
1.621,-0.066
1.622,-0.069
1.623,-0.072
1.624,-0.072
1.625,-0.072
1.626,-0.075
1.627,-0.075
1.628,-0.080
1.629,-0.084
1.630,-0.091
1.631,-0.100
1.632,-0.100
1.633,-0.103
1.634,-0.106
1.635,-0.106
1.636,-0.099
1.637,-0.091
1.638,-0.072
1.639,-0.056
1.640,-0.042
1.641,-0.025
1.642,-0.001
1.643,0.025
1.644,0.058
1.645,0.094
1.646,0.130
1.647,0.172
1.648,0.228
1.649,0.284
1.650,0.330
1.651,0.369
1.652,0.413
1.653,0.459
1.654,0.517
1.655,0.581
1.656,0.648
1.657,0.719
1.658,0.777
1.659,0.834
1.660,0.892
1.661,0.944
1.662,0.991
1.663,1.028
1.664,1.043
1.665,1.041
1.666,1.027
1.667,1.003
1.668,0.961
1.669,0.900
1.670,0.833
1.671,0.763
1.672,0.686
1.673,0.619
1.674,0.556
1.675,0.494
1.676,0.433
1.677,0.369
1.678,0.307
1.679,0.244
1.680,0.179
1.681,0.116
1.682,0.064
1.683,0.019
1.684,-0.011
1.685,-0.028
1.686,-0.031
1.687,-0.031
1.688,-0.025
1.689,-0.025
1.690,-0.034
1.691,-0.047
1.692,-0.058
1.693,-0.072
1.694,-0.084
1.695,-0.097
1.696,-0.099
1.697,-0.100
1.698,-0.106
1.699,-0.106
1.700,-0.103
1.701,-0.103
1.702,-0.097
1.703,-0.091
1.704,-0.086
1.705,-0.084
1.706,-0.080
1.707,-0.075
1.708,-0.078
1.709,-0.072
1.710,-0.067
1.711,-0.066
1.712,-0.059
1.713,-0.056
1.714,-0.058
1.715,-0.056
1.716,-0.056
1.717,-0.059
1.718,-0.064
1.719,-0.069
1.720,-0.071
1.721,-0.072
1.722,-0.076
1.723,-0.081
1.724,-0.081
1.725,-0.081
1.726,-0.084
1.727,-0.081
1.728,-0.080
1.729,-0.078
1.730,-0.075
1.731,-0.069
1.732,-0.070
1.733,-0.069
1.734,-0.067
1.735,-0.069
1.736,-0.069
1.737,-0.072
1.738,-0.073
1.739,-0.075
1.740,-0.078
1.741,-0.078
1.742,-0.076
1.743,-0.078
1.744,-0.077
1.745,-0.072
1.746,-0.072
1.747,-0.072
1.748,-0.072
1.749,-0.072
1.750,-0.069
1.751,-0.072
1.752,-0.071
1.753,-0.072
1.754,-0.072
1.755,-0.072
1.756,-0.069
1.757,-0.072
1.758,-0.073
1.759,-0.075
1.760,-0.078
1.761,-0.081
1.762,-0.082
1.763,-0.084
1.764,-0.083
1.765,-0.081
1.766,-0.080
1.767,-0.075
1.768,-0.072
1.769,-0.075
1.770,-0.075
1.771,-0.075
1.772,-0.075
1.773,-0.075
1.774,-0.076
1.775,-0.078
1.776,-0.081
1.777,-0.084
1.778,-0.078
1.779,-0.075
1.780,-0.076
1.781,-0.078
1.782,-0.076
1.783,-0.078
1.784,-0.078
1.785,-0.078
1.786,-0.079
1.787,-0.081
1.788,-0.084
1.789,-0.081
1.790,-0.080
1.791,-0.075
1.792,-0.074
1.793,-0.072
1.794,-0.069
1.795,-0.072
1.796,-0.073
1.797,-0.072
1.798,-0.072
1.799,-0.072
1.800,-0.071
1.801,-0.072
1.802,-0.073
1.803,-0.072
1.804,-0.072
1.805,-0.069
1.806,-0.070
1.807,-0.069
1.808,-0.073
1.809,-0.072
1.810,-0.072
1.811,-0.075
1.812,-0.072
1.813,-0.072
1.814,-0.072
1.815,-0.072
1.816,-0.072
1.817,-0.072
1.818,-0.073
1.819,-0.075
1.820,-0.076
1.821,-0.075
1.822,-0.072
1.823,-0.069
1.824,-0.070
1.825,-0.072
1.826,-0.069
1.827,-0.072
1.828,-0.069
1.829,-0.072
1.830,-0.075
1.831,-0.075
1.832,-0.072
1.833,-0.072
1.834,-0.061
1.835,-0.056
1.836,-0.055
1.837,-0.053
1.838,-0.051
1.839,-0.053
1.840,-0.056
1.841,-0.059
1.842,-0.059
1.843,-0.059
1.844,-0.059
1.845,-0.059
1.846,-0.059
1.847,-0.059
1.848,-0.058
1.849,-0.053
1.850,-0.054
1.851,-0.056
1.852,-0.056
1.853,-0.056
1.854,-0.052
1.855,-0.050
1.856,-0.049
1.857,-0.044
1.858,-0.044
1.859,-0.044
1.860,-0.047
1.861,-0.047
1.862,-0.041
1.863,-0.037
1.864,-0.039
1.865,-0.037
1.866,-0.039
1.867,-0.041
1.868,-0.039
1.869,-0.037
1.870,-0.039
1.871,-0.041
1.872,-0.042
1.873,-0.041
1.874,-0.039
1.875,-0.041
1.876,-0.042
1.877,-0.044
1.878,-0.045
1.879,-0.044
1.880,-0.043
1.881,-0.041
1.882,-0.039
1.883,-0.034
1.884,-0.036
1.885,-0.037
1.886,-0.036
1.887,-0.037
1.888,-0.041
1.889,-0.041
1.890,-0.039
1.891,-0.037
1.892,-0.034
1.893,-0.031
1.894,-0.030
1.895,-0.028
1.896,-0.029
1.897,-0.031
1.898,-0.028
1.899,-0.028
1.900,-0.025
1.901,-0.019
1.902,-0.018
1.903,-0.016
1.904,-0.016
1.905,-0.016
1.906,-0.014
1.907,-0.016
1.908,-0.012
1.909,-0.009
1.910,-0.014
1.911,-0.019
1.912,-0.019
1.913,-0.019
1.914,-0.016
1.915,-0.012
1.916,-0.014
1.917,-0.012
1.918,-0.012
1.919,-0.012
1.920,-0.011
1.921,-0.009
1.922,-0.011
1.923,-0.009
1.924,-0.009
1.925,-0.009
1.926,-0.011
1.927,-0.009
1.928,-0.012
1.929,-0.012
1.930,-0.014
1.931,-0.012
1.932,-0.016
1.933,-0.016
1.934,-0.012
1.935,-0.012
1.936,-0.011
1.937,-0.009
1.938,-0.009
1.939,-0.009
1.940,-0.008
1.941,-0.006
1.942,-0.006
1.943,-0.003
1.944,-0.002
1.945,0.000
1.946,0.003
1.947,0.003
1.948,0.004
1.949,0.006
1.950,0.009
1.951,0.009
1.952,0.009
1.953,0.009
1.954,0.009
1.955,0.009
1.956,0.009
1.957,0.009
1.958,0.009
1.959,0.009
1.960,0.009
1.961,0.009
1.962,0.006
1.963,0.006
1.964,0.007
1.965,0.009
1.966,0.014
1.967,0.016
1.968,0.017
1.969,0.019
1.970,0.019
1.971,0.019
1.972,0.016
1.973,0.016
1.974,0.016
1.975,0.016
1.976,0.018
1.977,0.016
1.978,0.020
1.979,0.025
1.980,0.025
1.981,0.028
1.982,0.028
1.983,0.028
1.984,0.025
1.985,0.028
1.986,0.031
1.987,0.034
1.988,0.037
1.989,0.041
1.990,0.039
1.991,0.041
1.992,0.041
1.993,0.041
1.994,0.044
1.995,0.044
1.996,0.047
1.997,0.047
1.998,0.049
1.999,0.047
2.000,0.053
2.001,0.056
2.002,0.058
2.003,0.059
2.004,0.058
2.005,0.056
2.006,0.056
2.007,0.056
2.008,0.061
2.009,0.066
2.010,0.064
2.011,0.062
2.012,0.066
2.013,0.062
2.014,0.062
2.015,0.062
2.016,0.064
2.017,0.059
2.018,0.059
2.019,0.059
2.020,0.059
2.021,0.059
2.022,0.064
2.023,0.069
2.024,0.059
2.025,0.056
2.026,0.055
2.027,0.056
2.028,0.053
2.029,0.050
2.030,0.053
2.031,0.053
2.032,0.054
2.033,0.056
2.034,0.053
2.035,0.047
2.036,0.043
2.037,0.041
2.038,0.037
2.039,0.037
2.040,0.039
2.041,0.037
2.042,0.037
2.043,0.037
2.044,0.034
2.045,0.031
2.046,0.027
2.047,0.025
2.048,0.025
2.049,0.025
2.050,0.025
2.051,0.025
2.052,0.021
2.053,0.019
2.054,0.016
2.055,0.016
2.056,0.017
2.057,0.016
2.058,0.016
2.059,0.016
2.060,0.016
2.061,0.016
2.062,0.012
2.063,0.012
2.064,0.011
2.065,0.009
2.066,0.009
2.067,0.009
2.068,0.009
2.069,0.006
2.070,0.006
2.071,0.003
2.072,0.000
2.073,0.000
2.074,0.001
2.075,0.000
2.076,0.000
2.077,0.000
2.078,0.003
2.079,0.003
2.080,-0.001
2.081,0.000
2.082,0.000
2.083,-0.003
2.084,-0.003
2.085,0.000
2.086,-0.003
2.087,-0.003
2.088,-0.002
2.089,0.003
2.090,0.000
2.091,0.003
2.092,0.003
2.093,0.003
2.094,0.004
2.095,0.003
2.096,0.000
2.097,0.000
2.098,0.003
2.099,0.003
2.100,0.000
2.101,0.000
2.102,0.002
2.103,0.000
2.104,0.003
2.105,0.003
2.106,0.000
2.107,0.003
2.108,0.004
2.109,0.006
2.110,0.006
2.111,0.003
2.112,0.004
2.113,0.003
2.114,0.000
2.115,0.000
2.116,0.000
2.117,-0.003
2.118,-0.004
2.119,-0.006
2.120,-0.006
2.121,-0.006
2.122,-0.009
2.123,-0.009
2.124,-0.006
2.125,-0.006
2.126,-0.008
2.127,-0.006
2.128,-0.011
2.129,-0.012
2.130,-0.011
2.131,-0.012
2.132,-0.009
2.133,-0.009
2.134,-0.008
2.135,-0.006
2.136,-0.009
2.137,-0.009
2.138,-0.002
2.139,0.000
2.140,-0.001
2.141,0.000
2.142,-0.001
2.143,-0.003
2.144,-0.004
2.145,-0.006
2.146,-0.008
2.147,-0.009
2.148,-0.008
2.149,-0.009
2.150,-0.011
2.151,-0.009
2.152,-0.002
2.153,0.000
2.154,-0.008
2.155,-0.009
2.156,-0.008
2.157,-0.009
2.158,-0.008
2.159,-0.006
2.160,-0.006
2.161,-0.006
2.162,-0.012
2.163,-0.016
2.164,-0.017
2.165,-0.019
2.166,-0.019
2.167,-0.022
2.168,-0.025
2.169,-0.025
2.170,-0.025
2.171,-0.022
2.172,-0.025
2.173,-0.025
2.174,-0.026
2.175,-0.025
2.176,-0.024
2.177,-0.025
2.178,-0.024
2.179,-0.022
2.180,-0.024
2.181,-0.022
2.182,-0.018
2.183,-0.022
2.184,-0.020
2.185,-0.022
2.186,-0.022
2.187,-0.022
2.188,-0.022
2.189,-0.022
2.190,-0.022
2.191,-0.025
2.192,-0.025
2.193,-0.028
2.194,-0.029
2.195,-0.031
2.196,-0.030
2.197,-0.028
2.198,-0.028
2.199,-0.028
2.200,-0.028
2.201,-0.031
2.202,-0.031
2.203,-0.031
2.204,-0.033
2.205,-0.034
2.206,-0.036
2.207,-0.037
2.208,-0.037
2.209,-0.037
2.210,-0.037
2.211,-0.037
2.212,-0.036
2.213,-0.037
2.214,-0.039
2.215,-0.037
2.216,-0.036
2.217,-0.037
2.218,-0.037
2.219,-0.037
2.220,-0.039
2.221,-0.044
2.222,-0.041
2.223,-0.044
2.224,-0.043
2.225,-0.041
2.226,-0.037
2.227,-0.041
2.228,-0.042
2.229,-0.044
2.230,-0.041
2.231,-0.044
2.232,-0.043
2.233,-0.041
2.234,-0.041
2.235,-0.044
2.236,-0.047
2.237,-0.047
2.238,-0.045
2.239,-0.047
2.240,-0.046
2.241,-0.044
2.242,-0.043
2.243,-0.044
2.244,-0.045
2.245,-0.044
2.246,-0.045
2.247,-0.047
2.248,-0.048
2.249,-0.050
2.250,-0.050
2.251,-0.053
2.252,-0.049
2.253,-0.047
2.254,-0.044
2.255,-0.041
2.256,-0.044
2.257,-0.047
2.258,-0.049
2.259,-0.050
2.260,-0.051
2.261,-0.053
2.262,-0.053
2.263,-0.053
2.264,-0.049
2.265,-0.044
2.266,-0.044
2.267,-0.044
2.268,-0.043
2.269,-0.044
2.270,-0.045
2.271,-0.044
2.272,-0.044
2.273,-0.044
2.274,-0.045
2.275,-0.047
2.276,-0.053
2.277,-0.053
2.278,-0.053
2.279,-0.053
2.280,-0.052
2.281,-0.053
2.282,-0.050
2.283,-0.050
2.284,-0.055
2.285,-0.053
2.286,-0.058
2.287,-0.056
2.288,-0.053
2.289,-0.053
2.290,-0.050
2.291,-0.050
2.292,-0.051
2.293,-0.053
2.294,-0.051
2.295,-0.053
2.296,-0.052
2.297,-0.053
2.298,-0.050
2.299,-0.047
2.300,-0.051
2.301,-0.050
2.302,-0.050
2.303,-0.053
2.304,-0.053
2.305,-0.056
2.306,-0.055
2.307,-0.050
2.308,-0.047
2.309,-0.047
2.310,-0.045
2.311,-0.047
2.312,-0.047
2.313,-0.050
2.314,-0.051
2.315,-0.050
2.316,-0.050
2.317,-0.050
2.318,-0.051
2.319,-0.053
2.320,-0.053
2.321,-0.050
2.322,-0.050
2.323,-0.050
2.324,-0.050
2.325,-0.050
2.326,-0.047
2.327,-0.044
2.328,-0.043
2.329,-0.037
2.330,-0.028
2.331,-0.022
2.332,-0.014
2.333,-0.009
2.334,-0.004
2.335,-0.003
2.336,0.000
2.337,0.000
2.338,0.002
2.339,0.003
2.340,0.006
2.341,0.009
2.342,0.017
2.343,0.019
2.344,0.022
2.345,0.022
2.346,0.022
2.347,0.019
2.348,0.023
2.349,0.022
2.350,0.021
2.351,0.019
2.352,0.020
2.353,0.022
2.354,0.025
2.355,0.025
2.356,0.025
2.357,0.028
2.358,0.034
2.359,0.034
2.360,0.036
2.361,0.037
2.362,0.039
2.363,0.037
2.364,0.044
2.365,0.053
2.366,0.061
2.367,0.072
2.368,0.072
2.369,0.078
2.370,0.075
2.371,0.075
2.372,0.074
2.373,0.072
2.374,0.072
2.375,0.072
2.376,0.072
2.377,0.069
2.378,0.066
2.379,0.062
2.380,0.058
2.381,0.053
2.382,0.047
2.383,0.044
2.384,0.036
2.385,0.028
2.386,0.024
2.387,0.019
2.388,0.016
2.389,0.012
2.390,0.009
2.391,0.000
2.392,-0.009
2.393,-0.019
2.394,-0.022
2.395,-0.028
2.396,-0.028
2.397,-0.028
2.398,-0.033
2.399,-0.031
2.400,-0.031
2.401,-0.031
2.402,-0.042
2.403,-0.050
2.404,-0.051
2.405,-0.059
2.406,-0.056
2.407,-0.059
2.408,-0.063
2.409,-0.063
2.410,-0.064
2.411,-0.066
2.412,-0.067
2.413,-0.066
2.414,-0.071
2.415,-0.069
2.416,-0.072
2.417,-0.072
2.418,-0.078
2.419,-0.081
2.420,-0.081
2.421,-0.084
2.422,-0.086
2.423,-0.084
2.424,-0.083
2.425,-0.078
2.426,-0.081
2.427,-0.078
2.428,-0.079
2.429,-0.081
2.430,-0.081
2.431,-0.081
2.432,-0.080
2.433,-0.078
2.434,-0.081
2.435,-0.081
2.436,-0.081
2.437,-0.084
2.438,-0.086
2.439,-0.084
2.440,-0.081
2.441,-0.081
2.442,-0.080
2.443,-0.078
2.444,-0.078
2.445,-0.078
2.446,-0.078
2.447,-0.078
2.448,-0.078
2.449,-0.078
2.450,-0.078
2.451,-0.078
2.452,-0.077
2.453,-0.078
2.454,-0.081
2.455,-0.084
2.456,-0.088
2.457,-0.091
2.458,-0.091
2.459,-0.088
2.460,-0.095
2.461,-0.103
2.462,-0.111
2.463,-0.122
2.464,-0.127
2.465,-0.134
2.466,-0.134
2.467,-0.131
2.468,-0.125
2.469,-0.119
2.470,-0.105
2.471,-0.094
2.472,-0.079
2.473,-0.063
2.474,-0.039
2.475,-0.012
2.476,0.028
2.477,0.072
2.478,0.114
2.479,0.162
2.480,0.214
2.481,0.266
2.482,0.328
2.483,0.384
2.484,0.432
2.485,0.484
2.486,0.541
2.487,0.603
2.488,0.661
2.489,0.722
2.490,0.769
2.491,0.816
2.492,0.862
2.493,0.903
2.494,0.943
2.495,0.972
2.496,0.986
2.497,0.984
2.498,0.967
2.499,0.941
2.500,0.886
2.501,0.812
2.502,0.745
2.503,0.675
2.504,0.600
2.505,0.534
2.506,0.464
2.507,0.394
2.508,0.328
2.509,0.259
2.510,0.204
2.511,0.147
2.512,0.092
2.513,0.037
2.514,-0.002
2.515,-0.034
2.516,-0.056
2.517,-0.066
2.518,-0.070
2.519,-0.072
2.520,-0.073
2.521,-0.081
2.522,-0.089
2.523,-0.100
2.524,-0.111
2.525,-0.125
2.526,-0.128
2.527,-0.131
2.528,-0.134
2.529,-0.137
2.530,-0.144
2.531,-0.144
2.532,-0.137
2.533,-0.134
2.534,-0.131
2.535,-0.128
2.536,-0.122
2.537,-0.119
2.538,-0.114
2.539,-0.109
2.540,-0.113
2.541,-0.106
2.542,-0.099
2.543,-0.094
2.544,-0.091
2.545,-0.091
2.546,-0.091
2.547,-0.088
2.548,-0.084
2.549,-0.084
2.550,-0.080
2.551,-0.075
2.552,-0.078
2.553,-0.081
2.554,-0.086
2.555,-0.091
2.556,-0.092
2.557,-0.094
2.558,-0.100
2.559,-0.100
2.560,-0.101
2.561,-0.103
2.562,-0.100
2.563,-0.094
2.564,-0.095
2.565,-0.094
2.566,-0.092
2.567,-0.094
2.568,-0.094
2.569,-0.097
2.570,-0.100
2.571,-0.103
2.572,-0.106
2.573,-0.106
2.574,-0.099
2.575,-0.094
2.576,-0.097
2.577,-0.097
2.578,-0.098
2.579,-0.100
2.580,-0.099
2.581,-0.097
2.582,-0.095
2.583,-0.100
2.584,-0.096
2.585,-0.094
2.586,-0.094
2.587,-0.094
2.588,-0.097
2.589,-0.106
2.590,-0.106
2.591,-0.106
2.592,-0.105
2.593,-0.103
2.594,-0.103
2.595,-0.103
2.596,-0.103
2.597,-0.103
2.598,-0.102
2.599,-0.097
2.600,-0.097
2.601,-0.103
2.602,-0.103
2.603,-0.103
2.604,-0.104
2.605,-0.106
2.606,-0.105
2.607,-0.103
2.608,-0.105
2.609,-0.106
2.610,-0.100
2.611,-0.097
2.612,-0.096
2.613,-0.094
2.614,-0.091
2.615,-0.091
2.616,-0.091
2.617,-0.091
2.618,-0.091
2.619,-0.091
2.620,-0.095
2.621,-0.094
2.622,-0.097
2.623,-0.097
2.624,-0.097
2.625,-0.097
2.626,-0.094
2.627,-0.097
2.628,-0.100
2.629,-0.100
2.630,-0.100
2.631,-0.100
2.632,-0.096
2.633,-0.094
2.634,-0.094
2.635,-0.091
2.636,-0.094
2.637,-0.094
2.638,-0.094
2.639,-0.091
2.640,-0.095
2.641,-0.094
2.642,-0.094
2.643,-0.097
2.644,-0.094
2.645,-0.094
2.646,-0.094
2.647,-0.094
2.648,-0.095
2.649,-0.097
2.650,-0.098
2.651,-0.100
2.652,-0.099
2.653,-0.094
2.654,-0.088
2.655,-0.081
2.656,-0.078
2.657,-0.075
2.658,-0.075
2.659,-0.081
2.660,-0.081
2.661,-0.088
2.662,-0.086
2.663,-0.081
2.664,-0.082
2.665,-0.088
2.666,-0.082
2.667,-0.084
2.668,-0.086
2.669,-0.088
2.670,-0.086
2.671,-0.088
2.672,-0.086
2.673,-0.084
2.674,-0.084
2.675,-0.084
2.676,-0.086
2.677,-0.088
2.678,-0.086
2.679,-0.084
2.680,-0.088
2.681,-0.088
2.682,-0.088
2.683,-0.088
2.684,-0.086
2.685,-0.084
2.686,-0.078
2.687,-0.075
2.688,-0.076
2.689,-0.075
2.690,-0.074
2.691,-0.072
2.692,-0.074
2.693,-0.072
2.694,-0.070
2.695,-0.072
2.696,-0.073
2.697,-0.072
2.698,-0.073
2.699,-0.075
2.700,-0.074
2.701,-0.072
2.702,-0.069
2.703,-0.066
2.704,-0.064
2.705,-0.059
2.706,-0.058
2.707,-0.059
2.708,-0.058
2.709,-0.056
2.710,-0.059
2.711,-0.059
2.712,-0.063
2.713,-0.066
2.714,-0.067
2.715,-0.066
2.716,-0.063
2.717,-0.059
2.718,-0.058
2.719,-0.059
2.720,-0.058
2.721,-0.053
2.722,-0.052
2.723,-0.050
2.724,-0.050
2.725,-0.050
2.726,-0.050
2.727,-0.050
2.728,-0.047
2.729,-0.044
2.730,-0.041
2.731,-0.041
2.732,-0.044
2.733,-0.044
2.734,-0.044
2.735,-0.044
2.736,-0.044
2.737,-0.044
2.738,-0.041
2.739,-0.041
2.740,-0.041
2.741,-0.041
2.742,-0.041
2.743,-0.041
2.744,-0.041
2.745,-0.041
2.746,-0.041
2.747,-0.041
2.748,-0.042
2.749,-0.041
2.750,-0.041
2.751,-0.041
2.752,-0.041
2.753,-0.041
2.754,-0.042
2.755,-0.041
2.756,-0.037
2.757,-0.034
2.758,-0.034
2.759,-0.031
2.760,-0.034
2.761,-0.034
2.762,-0.034
2.763,-0.031
2.764,-0.033
2.765,-0.031
2.766,-0.028
2.767,-0.028
2.768,-0.028
2.769,-0.028
2.770,-0.028
2.771,-0.028
2.772,-0.029
2.773,-0.031
2.774,-0.031
2.775,-0.028
2.776,-0.028
2.777,-0.028
2.778,-0.026
2.779,-0.028
2.780,-0.029
2.781,-0.031
2.782,-0.028
2.783,-0.028
2.784,-0.028
2.785,-0.028
2.786,-0.024
2.787,-0.019
2.788,-0.019
2.789,-0.019
2.790,-0.019
2.791,-0.019
2.792,-0.019
2.793,-0.019
2.794,-0.020
2.795,-0.019
2.796,-0.019
2.797,-0.019
2.798,-0.014
2.799,-0.012
2.800,-0.014
2.801,-0.016
2.802,-0.014
2.803,-0.012
2.804,-0.012
2.805,-0.009
2.806,-0.008
2.807,-0.006
2.808,-0.003
2.809,-0.003
2.810,0.001
2.811,0.006
2.812,0.007
2.813,0.012
2.814,0.012
2.815,0.012
2.816,0.008
2.817,0.009
2.818,0.009
2.819,0.009
2.820,0.016
2.821,0.022
2.822,0.022
2.823,0.025
2.824,0.026
2.825,0.028
2.826,0.034
2.827,0.037
2.828,0.039
2.829,0.037
2.830,0.042
2.831,0.044
2.832,0.047
2.833,0.047
2.834,0.047
2.835,0.047
2.836,0.047
2.837,0.047
2.838,0.047
2.839,0.047
2.840,0.047
2.841,0.047
2.842,0.046
2.843,0.044
2.844,0.048
2.845,0.047
2.846,0.047
2.847,0.047
2.848,0.050
2.849,0.047
2.850,0.050
2.851,0.053
2.852,0.053
2.853,0.053
2.854,0.053
2.855,0.053
2.856,0.048
2.857,0.050
2.858,0.050
2.859,0.053
2.860,0.050
2.861,0.047
2.862,0.044
2.863,0.037
2.864,0.039
2.865,0.041
2.866,0.039
2.867,0.034
2.868,0.030
2.869,0.028
2.870,0.025
2.871,0.025
2.872,0.024
2.873,0.019
2.874,0.020
2.875,0.022
2.876,0.018
2.877,0.012
2.878,0.009
2.879,0.009
2.880,0.009
2.881,0.009
2.882,0.011
2.883,0.012
2.884,0.008
2.885,0.006
2.886,0.003
2.887,0.003
2.888,0.004
2.889,0.003
2.890,0.003
2.891,0.003
2.892,0.004
2.893,0.006
2.894,0.003
2.895,0.003
2.896,-0.001
2.897,-0.006
2.898,-0.008
2.899,-0.009
2.900,-0.003
2.901,0.000
2.902,0.004
2.903,0.006
2.904,0.003
2.905,0.003
2.906,0.002
2.907,-0.003
2.908,-0.004
2.909,-0.006
2.910,-0.003
2.911,-0.003
2.912,-0.005
2.913,0.000
2.914,0.001
2.915,0.000
2.916,-0.001
2.917,0.000
2.918,-0.003
2.919,-0.003
2.920,-0.002
2.921,0.003
2.922,-0.001
2.923,0.000
2.924,-0.001
2.925,-0.003
2.926,-0.004
2.927,-0.009
2.928,-0.012
2.929,-0.012
2.930,-0.008
2.931,-0.006
2.932,-0.011
2.933,-0.012
2.934,-0.011
2.935,-0.012
2.936,-0.008
2.937,-0.006
2.938,-0.009
2.939,-0.006
2.940,-0.005
2.941,-0.003
2.942,-0.003
2.943,-0.006
2.944,-0.005
2.945,-0.006
2.946,-0.005
2.947,0.000
2.948,0.000
2.949,-0.003
2.950,-0.004
2.951,-0.006
2.952,-0.006
2.953,-0.006
2.954,-0.005
2.955,0.000
2.956,0.001
2.957,0.000
2.958,-0.004
2.959,-0.006
2.960,-0.009
2.961,-0.009
2.962,-0.008
2.963,-0.009
2.964,-0.006
2.965,-0.006
2.966,-0.005
2.967,-0.003
2.968,-0.006
2.969,-0.006
2.970,-0.004
2.971,-0.009
2.972,-0.009
2.973,-0.006
2.974,-0.005
2.975,-0.003
2.976,-0.004
2.977,-0.006
2.978,-0.009
2.979,-0.012
2.980,-0.009
2.981,-0.009
2.982,-0.014
2.983,-0.016
2.984,-0.009
2.985,-0.009
2.986,-0.014
2.987,-0.012
2.988,-0.011
2.989,-0.012
2.990,-0.012
2.991,-0.012
2.992,-0.011
2.993,-0.009
2.994,-0.012
2.995,-0.012
2.996,-0.012
2.997,-0.012
2.998,-0.014
2.999,-0.019
3.000,-0.022
3.001,-0.022
3.002,-0.022
3.003,-0.019
3.004,-0.021
3.005,-0.019
3.006,-0.020
3.007,-0.019
3.008,-0.018
3.009,-0.019
3.010,-0.022
3.011,-0.025
3.012,-0.027
3.013,-0.025
3.014,-0.022
3.015,-0.028
3.016,-0.026
3.017,-0.028
3.018,-0.028
3.019,-0.028
3.020,-0.028
3.021,-0.028
3.022,-0.027
3.023,-0.028
3.024,-0.031
3.025,-0.037
3.026,-0.037
3.027,-0.037
3.028,-0.036
3.029,-0.034
3.030,-0.034
3.031,-0.034
3.032,-0.033
3.033,-0.034
3.034,-0.033
3.035,-0.031
3.036,-0.031
3.037,-0.031
3.038,-0.033
3.039,-0.034
3.040,-0.034
3.041,-0.034
3.042,-0.033
3.043,-0.031
3.044,-0.028
3.045,-0.028
3.046,-0.031
3.047,-0.031
3.048,-0.031
3.049,-0.034
3.050,-0.036
3.051,-0.037
3.052,-0.036
3.053,-0.037
3.054,-0.034
3.055,-0.037
3.056,-0.036
3.057,-0.037
3.058,-0.037
3.059,-0.037
3.060,-0.037
3.061,-0.037
3.062,-0.037
3.063,-0.037
3.064,-0.041
3.065,-0.044
3.066,-0.044
3.067,-0.044
3.068,-0.044
3.069,-0.041
3.070,-0.039
3.071,-0.041
3.072,-0.042
3.073,-0.044
3.074,-0.044
3.075,-0.047
3.076,-0.044
3.077,-0.044
3.078,-0.041
3.079,-0.037
3.080,-0.042
3.081,-0.041
3.082,-0.039
3.083,-0.044
3.084,-0.044
3.085,-0.047
3.086,-0.045
3.087,-0.044
3.088,-0.043
3.089,-0.041
3.090,-0.047
3.091,-0.050
3.092,-0.053
3.093,-0.053
3.094,-0.052
3.095,-0.050
3.096,-0.054
3.097,-0.053
3.098,-0.050
3.099,-0.053
3.100,-0.044
3.101,-0.037
3.102,-0.039
3.103,-0.037
3.104,-0.044
3.105,-0.047
3.106,-0.044
3.107,-0.044
3.108,-0.048
3.109,-0.047
3.110,-0.046
3.111,-0.044
3.112,-0.050
3.113,-0.053
3.114,-0.050
3.115,-0.050
3.116,-0.044
3.117,-0.037
3.118,-0.036
3.119,-0.034
3.120,-0.030
3.121,-0.028
3.122,-0.024
3.123,-0.019
3.124,-0.019
3.125,-0.016
3.126,-0.009
3.127,-0.006
3.128,-0.004
3.129,0.000
3.130,0.003
3.131,0.012
3.132,0.018
3.133,0.022
3.134,0.021
3.135,0.019
3.136,0.016
3.137,0.016
3.138,0.019
3.139,0.022
3.140,0.026
3.141,0.034
3.142,0.030
3.143,0.031
3.144,0.033
3.145,0.031
3.146,0.028
3.147,0.031
3.148,0.034
3.149,0.041
3.150,0.039
3.151,0.037
3.152,0.034
3.153,0.034
3.154,0.037
3.155,0.041
3.156,0.044
3.157,0.050
3.158,0.047
3.159,0.047
3.160,0.047
3.161,0.047
3.162,0.050
3.163,0.056
3.164,0.067
3.165,0.072
3.166,0.072
3.167,0.069
3.168,0.071
3.169,0.069
3.170,0.074
3.171,0.075
3.172,0.078
3.173,0.075
3.174,0.072
3.175,0.069
3.176,0.064
3.177,0.062
3.178,0.058
3.179,0.050
3.180,0.045
3.181,0.041
3.182,0.036
3.183,0.031
3.184,0.031
3.185,0.031
3.186,0.027
3.187,0.019
3.188,0.008
3.189,0.000
3.190,-0.005
3.191,-0.003
3.192,-0.006
3.193,-0.009
3.194,-0.012
3.195,-0.012
3.196,-0.012
3.197,-0.016
3.198,-0.016
3.199,-0.016
3.200,-0.017
3.201,-0.022
3.202,-0.023
3.203,-0.025
3.204,-0.031
3.205,-0.031
3.206,-0.037
3.207,-0.044
3.208,-0.047
3.209,-0.047
3.210,-0.048
3.211,-0.053
3.212,-0.054
3.213,-0.063
3.214,-0.063
3.215,-0.066
3.216,-0.064
3.217,-0.066
3.218,-0.066
3.219,-0.066
3.220,-0.067
3.221,-0.069
3.222,-0.066
3.223,-0.063
3.224,-0.056
3.225,-0.056
3.226,-0.058
3.227,-0.063
3.228,-0.064
3.229,-0.066
3.230,-0.067
3.231,-0.069
3.232,-0.069
3.233,-0.072
3.234,-0.072
3.235,-0.072
3.236,-0.074
3.237,-0.072
3.238,-0.067
3.239,-0.063
3.240,-0.063
3.241,-0.063
3.242,-0.063
3.243,-0.063
3.244,-0.063
3.245,-0.063
3.246,-0.064
3.247,-0.066
3.248,-0.063
3.249,-0.059
3.250,-0.061
3.251,-0.063
3.252,-0.067
3.253,-0.072
3.254,-0.075
3.255,-0.075
3.256,-0.074
3.257,-0.075
3.258,-0.072
3.259,-0.075
3.260,-0.080
3.261,-0.084
3.262,-0.095
3.263,-0.103
3.264,-0.116
3.265,-0.119
3.266,-0.120
3.267,-0.119
3.268,-0.114
3.269,-0.103
3.270,-0.091
3.271,-0.072
3.272,-0.053
3.273,-0.028
3.274,-0.001
3.275,0.028
3.276,0.059
3.277,0.097
3.278,0.137
3.279,0.181
3.280,0.228
3.281,0.278
3.282,0.326
3.283,0.372
3.284,0.416
3.285,0.466
3.286,0.528
3.287,0.597
3.288,0.669
3.289,0.731
3.290,0.791
3.291,0.844
3.292,0.889
3.293,0.934
3.294,0.983
3.295,1.016
3.296,1.026
3.297,1.025
3.298,1.017
3.299,0.984
3.300,0.925
3.301,0.853
3.302,0.778
3.303,0.703
3.304,0.641
3.305,0.575
3.306,0.506
3.307,0.447
3.308,0.377
3.309,0.306
3.310,0.244
3.311,0.181
3.312,0.114
3.313,0.059
3.314,0.003
3.315,-0.037
3.316,-0.061
3.317,-0.069
3.318,-0.069
3.319,-0.063
3.320,-0.055
3.321,-0.053
3.322,-0.059
3.323,-0.069
3.324,-0.083
3.325,-0.091
3.326,-0.100
3.327,-0.103
3.328,-0.111
3.329,-0.122
3.330,-0.129
3.331,-0.134
3.332,-0.134
3.333,-0.128
3.334,-0.122
3.335,-0.116
3.336,-0.108
3.337,-0.100
3.338,-0.094
3.339,-0.091
3.340,-0.081
3.341,-0.075
3.342,-0.069
3.343,-0.063
3.344,-0.061
3.345,-0.059
3.346,-0.061
3.347,-0.066
3.348,-0.069
3.349,-0.069
3.350,-0.067
3.351,-0.069
3.352,-0.073
3.353,-0.078
3.354,-0.078
3.355,-0.075
3.356,-0.075
3.357,-0.078
3.358,-0.076
3.359,-0.078
3.360,-0.077
3.361,-0.075
3.362,-0.075
3.363,-0.078
3.364,-0.078
3.365,-0.081
3.366,-0.084
3.367,-0.084
3.368,-0.088
3.369,-0.088
3.370,-0.086
3.371,-0.088
3.372,-0.086
3.373,-0.081
3.374,-0.078
3.375,-0.075
3.376,-0.072
3.377,-0.072
3.378,-0.073
3.379,-0.075
3.380,-0.075
3.381,-0.072
3.382,-0.074
3.383,-0.072
3.384,-0.075
3.385,-0.075
3.386,-0.075
3.387,-0.072
3.388,-0.075
3.389,-0.075
3.390,-0.075
3.391,-0.075
3.392,-0.074
3.393,-0.072
3.394,-0.072
3.395,-0.072
3.396,-0.071
3.397,-0.069
3.398,-0.069
3.399,-0.069
3.400,-0.072
3.401,-0.072
3.402,-0.072
3.403,-0.072
3.404,-0.072
3.405,-0.072
3.406,-0.069
3.407,-0.069
3.408,-0.073
3.409,-0.072
3.410,-0.072
3.411,-0.072
3.412,-0.073
3.413,-0.072
3.414,-0.072
3.415,-0.072
3.416,-0.073
3.417,-0.075
3.418,-0.074
3.419,-0.075
3.420,-0.071
3.421,-0.072
3.422,-0.073
3.423,-0.075
3.424,-0.076
3.425,-0.075
3.426,-0.079
3.427,-0.078
3.428,-0.072
3.429,-0.072
3.430,-0.067
3.431,-0.063
3.432,-0.063
3.433,-0.059
3.434,-0.056
3.435,-0.059
3.436,-0.061
3.437,-0.063
3.438,-0.061
3.439,-0.066
3.440,-0.066
3.441,-0.069
3.442,-0.072
3.443,-0.069
3.444,-0.067
3.445,-0.066
3.446,-0.066
3.447,-0.066
3.448,-0.061
3.449,-0.056
3.450,-0.056
3.451,-0.056
3.452,-0.054
3.453,-0.056
3.454,-0.056
3.455,-0.056
3.456,-0.058
3.457,-0.056
3.458,-0.059
3.459,-0.056
3.460,-0.058
3.461,-0.056
3.462,-0.054
3.463,-0.056
3.464,-0.063
3.465,-0.059
3.466,-0.058
3.467,-0.056
3.468,-0.055
3.469,-0.050
3.470,-0.050
3.471,-0.050
3.472,-0.050
3.473,-0.050
3.474,-0.050
3.475,-0.050
3.476,-0.050
3.477,-0.050
3.478,-0.050
3.479,-0.050
3.480,-0.048
3.481,-0.050
3.482,-0.050
3.483,-0.050
3.484,-0.049
3.485,-0.044
3.486,-0.043
3.487,-0.041
3.488,-0.039
3.489,-0.041
3.490,-0.039
3.491,-0.041
3.492,-0.044
3.493,-0.044
3.494,-0.045
3.495,-0.047
3.496,-0.041
3.497,-0.037
3.498,-0.036
3.499,-0.034
3.500,-0.034
3.501,-0.034
3.502,-0.036
3.503,-0.037
3.504,-0.036
3.505,-0.034
3.506,-0.034
3.507,-0.034
3.508,-0.033
3.509,-0.031
3.510,-0.027
3.511,-0.025
3.512,-0.025
3.513,-0.025
3.514,-0.023
3.515,-0.025
3.516,-0.024
3.517,-0.019
3.518,-0.019
3.519,-0.019
3.520,-0.017
3.521,-0.019
3.522,-0.018
3.523,-0.016
3.524,-0.016
3.525,-0.016
3.526,-0.016
3.527,-0.016
3.528,-0.019
3.529,-0.019
3.530,-0.019
3.531,-0.019
3.532,-0.017
3.533,-0.019
3.534,-0.019
3.535,-0.019
3.536,-0.020
3.537,-0.019
3.538,-0.016
3.539,-0.012
3.540,-0.006
3.541,0.000
3.542,0.000
3.543,0.000
3.544,-0.001
3.545,-0.003
3.546,-0.002
3.547,0.000
3.548,0.002
3.549,0.000
3.550,0.003
3.551,0.006
3.552,0.005
3.553,0.003
3.554,0.005
3.555,0.003
3.556,0.003
3.557,0.003
3.558,0.006
3.559,0.003
3.560,0.004
3.561,0.006
3.562,0.009
3.563,0.006
3.564,0.005
3.565,0.006
3.566,0.006
3.567,0.006
3.568,0.007
3.569,0.009
3.570,0.009
3.571,0.009
3.572,0.009
3.573,0.009
3.574,0.011
3.575,0.009
3.576,0.009
3.577,0.012
3.578,0.012
3.579,0.012
3.580,0.011
3.581,0.012
3.582,0.016
3.583,0.019
3.584,0.019
3.585,0.019
3.586,0.018
3.587,0.016
3.588,0.014
3.589,0.012
3.590,0.017
3.591,0.022
3.592,0.022
3.593,0.022
3.594,0.022
3.595,0.019
3.596,0.018
3.597,0.019
3.598,0.022
3.599,0.025
3.600,0.028
3.601,0.031
3.602,0.030
3.603,0.028
3.604,0.030
3.605,0.028
3.606,0.029
3.607,0.034
3.608,0.034
3.609,0.037
3.610,0.039
3.611,0.037
3.612,0.039
3.613,0.037
3.614,0.034
3.615,0.031
3.616,0.039
3.617,0.041
3.618,0.039
3.619,0.041
3.620,0.045
3.621,0.047
3.622,0.049
3.623,0.047
3.624,0.044
3.625,0.044
3.626,0.048
3.627,0.056
3.628,0.058
3.629,0.062
3.630,0.064
3.631,0.069
3.632,0.067
3.633,0.069
3.634,0.071
3.635,0.069
3.636,0.067
3.637,0.066
3.638,0.070
3.639,0.075
3.640,0.074
3.641,0.072
3.642,0.071
3.643,0.072
3.644,0.067
3.645,0.069
3.646,0.072
3.647,0.072
3.648,0.066
3.649,0.066
3.650,0.066
3.651,0.066
3.652,0.066
3.653,0.066
3.654,0.069
3.655,0.066
3.656,0.064
3.657,0.062
3.658,0.066
3.659,0.062
3.660,0.056
3.661,0.053
3.662,0.050
3.663,0.050
3.664,0.049
3.665,0.047
3.666,0.045
3.667,0.044
3.668,0.045
3.669,0.044
3.670,0.045
3.671,0.047
3.672,0.044
3.673,0.044
3.674,0.044
3.675,0.041
3.676,0.037
3.677,0.034
3.678,0.034
3.679,0.034
3.680,0.033
3.681,0.031
3.682,0.033
3.683,0.031
3.684,0.030
3.685,0.025
3.686,0.026
3.687,0.028
3.688,0.025
3.689,0.025
3.690,0.021
3.691,0.016
3.692,0.016
3.693,0.012
3.694,0.017
3.695,0.022
3.696,0.023
3.697,0.025
3.698,0.026
3.699,0.028
3.700,0.024
3.701,0.025
3.702,0.024
3.703,0.019
3.704,0.019
3.705,0.019
3.706,0.016
3.707,0.016
3.708,0.014
3.709,0.016
3.710,0.019
3.711,0.019
3.712,0.022
3.713,0.022
3.714,0.019
3.715,0.019
3.716,0.023
3.717,0.022
3.718,0.022
3.719,0.022
3.720,0.025
3.721,0.022
3.722,0.025
3.723,0.025
3.724,0.019
3.725,0.012
3.726,0.011
3.727,0.009
3.728,0.008
3.729,0.009
3.730,0.011
3.731,0.009
3.732,0.009
3.733,0.012
3.734,0.011
3.735,0.012
3.736,0.014
3.737,0.012
3.738,0.014
3.739,0.012
3.740,0.016
3.741,0.019
3.742,0.019
3.743,0.022
3.744,0.018
3.745,0.016
3.746,0.016
3.747,0.012
3.748,0.011
3.749,0.012
3.750,0.017
3.751,0.022
3.752,0.021
3.753,0.019
3.754,0.018
3.755,0.012
3.756,0.009
3.757,0.006
3.758,0.007
3.759,0.006
3.760,0.003
3.761,0.003
3.762,0.003
3.763,0.006
3.764,0.007
3.765,0.009
3.766,0.011
3.767,0.009
3.768,0.008
3.769,0.009
3.770,0.006
3.771,0.006
3.772,0.009
3.773,0.009
3.774,0.009
3.775,0.009
3.776,0.008
3.777,0.006
3.778,0.007
3.779,0.009
3.780,0.006
3.781,0.003
3.782,0.002
3.783,0.003
3.784,0.001
3.785,0.000
3.786,0.003
3.787,0.006
3.788,0.006
3.789,0.006
3.790,0.006
3.791,0.006
3.792,0.009
3.793,0.009
3.794,0.008
3.795,0.006
3.796,0.007
3.797,0.009
3.798,0.003
3.799,-0.003
3.800,-0.004
3.801,-0.006
3.802,0.000
3.803,0.000
3.804,0.000
3.805,0.000
3.806,0.003
3.807,0.003
3.808,0.003
3.809,0.006
3.810,0.007
3.811,0.006
3.812,0.002
3.813,0.000
3.814,-0.009
3.815,-0.009
3.816,-0.011
3.817,-0.012
3.818,-0.011
3.819,-0.009
3.820,-0.009
3.821,-0.009
3.822,-0.011
3.823,-0.009
3.824,-0.012
3.825,-0.012
3.826,-0.014
3.827,-0.016
3.828,-0.016
3.829,-0.016
3.830,-0.016
3.831,-0.016
3.832,-0.018
3.833,-0.016
3.834,-0.016
3.835,-0.016
3.836,-0.019
3.837,-0.022
3.838,-0.021
3.839,-0.019
3.840,-0.016
3.841,-0.012
3.842,-0.012
3.843,-0.012
3.844,-0.017
3.845,-0.019
3.846,-0.017
3.847,-0.019
3.848,-0.022
3.849,-0.022
3.850,-0.021
3.851,-0.019
3.852,-0.023
3.853,-0.022
3.854,-0.022
3.855,-0.019
3.856,-0.019
3.857,-0.016
3.858,-0.018
3.859,-0.016
3.860,-0.019
3.861,-0.019
3.862,-0.023
3.863,-0.025
3.864,-0.024
3.865,-0.022
3.866,-0.025
3.867,-0.025
3.868,-0.025
3.869,-0.025
3.870,-0.025
3.871,-0.028
3.872,-0.030
3.873,-0.028
3.874,-0.031
3.875,-0.031
3.876,-0.029
3.877,-0.031
3.878,-0.028
3.879,-0.025
3.880,-0.025
3.881,-0.025
3.882,-0.029
3.883,-0.028
3.884,-0.028
3.885,-0.028
3.886,-0.029
3.887,-0.031
3.888,-0.031
3.889,-0.031
3.890,-0.030
3.891,-0.028
3.892,-0.027
3.893,-0.025
3.894,-0.029
3.895,-0.028
3.896,-0.028
3.897,-0.028
3.898,-0.028
3.899,-0.028
3.900,-0.034
3.901,-0.034
3.902,-0.037
3.903,-0.037
3.904,-0.036
3.905,-0.031
3.906,-0.033
3.907,-0.031
3.908,-0.033
3.909,-0.034
3.910,-0.037
3.911,-0.037
3.912,-0.037
3.913,-0.037
3.914,-0.036
3.915,-0.034
3.916,-0.037
3.917,-0.037
3.918,-0.039
3.919,-0.037
3.920,-0.039
3.921,-0.037
3.922,-0.037
3.923,-0.037
3.924,-0.034
3.925,-0.034
3.926,-0.041
3.927,-0.041
3.928,-0.041
3.929,-0.041
3.930,-0.039
3.931,-0.037
3.932,-0.039
3.933,-0.041
3.934,-0.042
3.935,-0.044
3.936,-0.039
3.937,-0.034
3.938,-0.036
3.939,-0.037
3.940,-0.036
3.941,-0.037
3.942,-0.039
3.943,-0.037
3.944,-0.039
3.945,-0.041
3.946,-0.039
3.947,-0.037
3.948,-0.042
3.949,-0.041
3.950,-0.037
3.951,-0.034
3.952,-0.036
3.953,-0.041
3.954,-0.039
3.955,-0.041
3.956,-0.046
3.957,-0.044
3.958,-0.048
3.959,-0.047
3.960,-0.045
3.961,-0.047
3.962,-0.044
3.963,-0.044
3.964,-0.047
3.965,-0.050
3.966,-0.048
3.967,-0.050
3.968,-0.047
3.969,-0.047
3.970,-0.047
3.971,-0.047
3.972,-0.051
3.973,-0.050
3.974,-0.047
3.975,-0.047
3.976,-0.046
3.977,-0.047
3.978,-0.050
3.979,-0.050
3.980,-0.050
3.981,-0.053
3.982,-0.050
3.983,-0.050
3.984,-0.049
3.985,-0.050
3.986,-0.049
3.987,-0.044
3.988,-0.043
3.989,-0.041
3.990,-0.042
3.991,-0.044
3.992,-0.045
3.993,-0.044
3.994,-0.043
3.995,-0.041
3.996,-0.041
3.997,-0.041
3.998,-0.041
3.999,-0.041
4.000,-0.044
4.001,-0.044
4.002,-0.037
4.003,-0.034
4.004,-0.025
4.005,-0.019
4.006,-0.008
4.007,0.000
4.008,0.004
4.009,0.006
4.010,0.006
4.011,0.006
4.012,0.009
4.013,0.012
4.014,0.022
4.015,0.025
4.016,0.031
4.017,0.034
4.018,0.037
4.019,0.037
4.020,0.041
4.021,0.037
4.022,0.034
4.023,0.031
4.024,0.031
4.025,0.031
4.026,0.033
4.027,0.031
4.028,0.031
4.029,0.034
4.030,0.041
4.031,0.041
4.032,0.045
4.033,0.050
4.034,0.054
4.035,0.056
4.036,0.058
4.037,0.062
4.038,0.061
4.039,0.062
4.040,0.061
4.041,0.066
4.042,0.070
4.043,0.078
4.044,0.086
4.045,0.094
4.046,0.092
4.047,0.091
4.048,0.089
4.049,0.084
4.050,0.077
4.051,0.069
4.052,0.062
4.053,0.056
4.054,0.050
4.055,0.047
4.056,0.044
4.057,0.041
4.058,0.036
4.059,0.031
4.060,0.029
4.061,0.028
4.062,0.028
4.063,0.022
4.064,0.018
4.065,0.012
4.066,0.006
4.067,-0.003
4.068,-0.006
4.069,-0.009
4.070,-0.019
4.071,-0.022
4.072,-0.023
4.073,-0.025
4.074,-0.027
4.075,-0.025
4.076,-0.024
4.077,-0.028
4.078,-0.027
4.079,-0.031
4.080,-0.039
4.081,-0.044
4.082,-0.044
4.083,-0.044
4.084,-0.046
4.085,-0.044
4.086,-0.051
4.087,-0.053
4.088,-0.061
4.089,-0.066
4.090,-0.070
4.091,-0.072
4.092,-0.071
4.093,-0.072
4.094,-0.075
4.095,-0.075
4.096,-0.075
4.097,-0.072
4.098,-0.076
4.099,-0.075
4.100,-0.078
4.101,-0.081
4.102,-0.081
4.103,-0.081
4.104,-0.077
4.105,-0.072
4.106,-0.075
4.107,-0.075
4.108,-0.075
4.109,-0.078
4.110,-0.079
4.111,-0.078
4.112,-0.076
4.113,-0.078
4.114,-0.079
4.115,-0.081
4.116,-0.081
4.117,-0.081
4.118,-0.081
4.119,-0.081
4.120,-0.077
4.121,-0.072
4.122,-0.073
4.123,-0.075
4.124,-0.074
4.125,-0.075
4.126,-0.078
4.127,-0.081
4.128,-0.082
4.129,-0.084
4.130,-0.084
4.131,-0.081
4.132,-0.086
4.133,-0.091
4.134,-0.100
4.135,-0.113
4.136,-0.119
4.137,-0.128
4.138,-0.131
4.139,-0.131
4.140,-0.128
4.141,-0.125
4.142,-0.113
4.143,-0.103
4.144,-0.083
4.145,-0.059
4.146,-0.037
4.147,-0.012
4.148,0.020
4.149,0.056
4.150,0.092
4.151,0.134
4.152,0.186
4.153,0.237
4.154,0.291
4.155,0.338
4.156,0.381
4.157,0.428
4.158,0.483
4.159,0.544
4.160,0.609
4.161,0.678
4.162,0.739
4.163,0.800
4.164,0.858
4.165,0.909
4.166,0.959
4.167,1.000
4.168,1.023
4.169,1.031
4.170,1.028
4.171,1.016
4.172,0.976
4.173,0.919
4.174,0.848
4.175,0.775
4.176,0.697
4.177,0.628
4.178,0.563
4.179,0.497
4.180,0.438
4.181,0.375
4.182,0.311
4.183,0.244
4.184,0.175
4.185,0.106
4.186,0.052
4.187,0.003
4.188,-0.031
4.189,-0.053
4.190,-0.056
4.191,-0.056
4.192,-0.046
4.193,-0.041
4.194,-0.048
4.195,-0.059
4.196,-0.073
4.197,-0.091
4.198,-0.103
4.199,-0.116
4.200,-0.119
4.201,-0.122
4.202,-0.128
4.203,-0.128
4.204,-0.124
4.205,-0.122
4.206,-0.116
4.207,-0.109
4.208,-0.103
4.209,-0.100
4.210,-0.100
4.211,-0.100
4.212,-0.101
4.213,-0.094
4.214,-0.086
4.215,-0.081
4.216,-0.079
4.217,-0.081
4.218,-0.082
4.219,-0.081
4.220,-0.080
4.221,-0.081
4.222,-0.084
4.223,-0.088
4.224,-0.089
4.225,-0.091
4.226,-0.091
4.227,-0.091
4.228,-0.091
4.229,-0.091
4.230,-0.095
4.231,-0.094
4.232,-0.094
4.233,-0.094
4.234,-0.095
4.235,-0.094
4.236,-0.095
4.237,-0.094
4.238,-0.094
4.239,-0.097
4.240,-0.097
4.241,-0.100
4.242,-0.099
4.243,-0.097
4.244,-0.099
4.245,-0.097
4.246,-0.095
4.247,-0.097
4.248,-0.098
4.249,-0.097
4.250,-0.097
4.251,-0.097
4.252,-0.097
4.253,-0.097
4.254,-0.092
4.255,-0.094
4.256,-0.094
4.257,-0.097
4.258,-0.098
4.259,-0.100
4.260,-0.097
4.261,-0.100
4.262,-0.099
4.263,-0.097
4.264,-0.097
4.265,-0.097
4.266,-0.098
4.267,-0.100
4.268,-0.100
4.269,-0.100
4.270,-0.104
4.271,-0.106
4.272,-0.102
4.273,-0.103
4.274,-0.100
4.275,-0.097
4.276,-0.097
4.277,-0.097
4.278,-0.094
4.279,-0.091
4.280,-0.094
4.281,-0.097
4.282,-0.094
4.283,-0.094
4.284,-0.095
4.285,-0.097
4.286,-0.095
4.287,-0.097
4.288,-0.096
4.289,-0.094
4.290,-0.097
4.291,-0.100
4.292,-0.102
4.293,-0.097
4.294,-0.099
4.295,-0.097
4.296,-0.100
4.297,-0.103
4.298,-0.100
4.299,-0.103
4.300,-0.100
4.301,-0.094
4.302,-0.094
4.303,-0.094
4.304,-0.092
4.305,-0.094
4.306,-0.095
4.307,-0.094
4.308,-0.097
4.309,-0.097
4.310,-0.097
4.311,-0.094
4.312,-0.098
4.313,-0.097
4.314,-0.096
4.315,-0.097
4.316,-0.095
4.317,-0.097
4.318,-0.094
4.319,-0.091
4.320,-0.091
4.321,-0.091
4.322,-0.091
4.323,-0.091
4.324,-0.089
4.325,-0.084
4.326,-0.084
4.327,-0.084
4.328,-0.083
4.329,-0.081
4.330,-0.079
4.331,-0.084
4.332,-0.080
4.333,-0.081
4.334,-0.082
4.335,-0.081
4.336,-0.082
4.337,-0.088
4.338,-0.086
4.339,-0.091
4.340,-0.091
4.341,-0.091
4.342,-0.084
4.343,-0.081
4.344,-0.080
4.345,-0.078
4.346,-0.078
4.347,-0.078
4.348,-0.079
4.349,-0.081
4.350,-0.081
4.351,-0.081
4.352,-0.078
4.353,-0.072
4.354,-0.072
4.355,-0.072
4.356,-0.072
4.357,-0.072
4.358,-0.070
4.359,-0.072
4.360,-0.073
4.361,-0.072
4.362,-0.071
4.363,-0.069
4.364,-0.072
4.365,-0.072
4.366,-0.070
4.367,-0.072
4.368,-0.073
4.369,-0.072
4.370,-0.069
4.371,-0.066
4.372,-0.069
4.373,-0.072
4.374,-0.073
4.375,-0.075
4.376,-0.076
4.377,-0.075
4.378,-0.072
4.379,-0.072
4.380,-0.072
4.381,-0.072
4.382,-0.072
4.383,-0.069
4.384,-0.066
4.385,-0.063
4.386,-0.059
4.387,-0.053
4.388,-0.053
4.389,-0.053
4.390,-0.050
4.391,-0.050
4.392,-0.050
4.393,-0.047
4.394,-0.047
4.395,-0.047
4.396,-0.044
4.397,-0.041
4.398,-0.044
4.399,-0.047
4.400,-0.047
4.401,-0.047
4.402,-0.045
4.403,-0.047
4.404,-0.047
4.405,-0.044
4.406,-0.043
4.407,-0.041
4.408,-0.039
4.409,-0.037
4.410,-0.036
4.411,-0.037
4.412,-0.037
4.413,-0.037
4.414,-0.039
4.415,-0.041
4.416,-0.041
4.417,-0.041
4.418,-0.041
4.419,-0.041
4.420,-0.037
4.421,-0.031
4.422,-0.031
4.423,-0.031
4.424,-0.033
4.425,-0.034
4.426,-0.036
4.427,-0.034
4.428,-0.031
4.429,-0.028
4.430,-0.025
4.431,-0.019
4.432,-0.022
4.433,-0.022
4.434,-0.023
4.435,-0.022
4.436,-0.024
4.437,-0.022
4.438,-0.020
4.439,-0.022
4.440,-0.023
4.441,-0.025
4.442,-0.022
4.443,-0.019
4.444,-0.019
4.445,-0.019
4.446,-0.022
4.447,-0.022
4.448,-0.022
4.449,-0.022
4.450,-0.014
4.451,-0.009
4.452,-0.011
4.453,-0.012
4.454,-0.011
4.455,-0.012
4.456,-0.012
4.457,-0.012
4.458,-0.011
4.459,-0.009
4.460,-0.009
4.461,-0.009
4.462,-0.009
4.463,-0.009
4.464,-0.009
4.465,-0.009
4.466,-0.009
4.467,-0.006
4.468,-0.005
4.469,-0.003
4.470,-0.001
4.471,-0.003
4.472,-0.002
4.473,0.000
4.474,0.000
4.475,0.000
4.476,0.000
4.477,0.003
4.478,0.002
4.479,0.000
4.480,0.003
4.481,0.003
4.482,0.007
4.483,0.012
4.484,0.011
4.485,0.012
4.486,0.014
4.487,0.016
4.488,0.012
4.489,0.016
4.490,0.019
4.491,0.022
4.492,0.024
4.493,0.025
4.494,0.024
4.495,0.025
4.496,0.025
4.497,0.025
4.498,0.028
4.499,0.028
4.500,0.033
4.501,0.034
4.502,0.036
4.503,0.034
4.504,0.037
4.505,0.037
4.506,0.041
4.507,0.044
4.508,0.045
4.509,0.047
4.510,0.047
4.511,0.047
4.512,0.047
4.513,0.047
4.514,0.047
4.515,0.047
4.516,0.051
4.517,0.050
4.518,0.056
4.519,0.062
4.520,0.066
4.521,0.062
4.522,0.058
4.523,0.053
4.524,0.053
4.525,0.053
4.526,0.052
4.527,0.050
4.528,0.044
4.529,0.044
4.530,0.044
4.531,0.047
4.532,0.045
4.533,0.044
4.534,0.044
4.535,0.041
4.536,0.041
4.537,0.041
4.538,0.042
4.539,0.041
4.540,0.037
4.541,0.037
4.542,0.034
4.543,0.034
4.544,0.034
4.545,0.031
4.546,0.028
4.547,0.025
4.548,0.025
4.549,0.025
4.550,0.023
4.551,0.025
4.552,0.025
4.553,0.025
4.554,0.021
4.555,0.016
4.556,0.014
4.557,0.016
4.558,0.012
4.559,0.012
4.560,0.014
4.561,0.012
4.562,0.011
4.563,0.009
4.564,0.011
4.565,0.012
4.566,0.009
4.567,0.009
4.568,0.009
4.569,0.009
4.570,0.009
4.571,0.009
4.572,0.008
4.573,0.003
4.574,0.006
4.575,0.006
4.576,0.004
4.577,0.006
4.578,0.006
4.579,0.003
4.580,0.002
4.581,0.000
4.582,0.003
4.583,0.003
4.584,0.000
4.585,0.003
4.586,0.004
4.587,0.003
4.588,0.004
4.589,0.009
4.590,0.007
4.591,0.009
4.592,0.009
4.593,0.012
4.594,0.008
4.595,0.009
4.596,0.009
4.597,0.009
4.598,0.011
4.599,0.009
4.600,0.006
4.601,0.006
4.602,0.009
4.603,0.009
4.604,0.006
4.605,0.006
4.606,0.006
4.607,0.003
4.608,0.006
4.609,0.006
4.610,0.003
4.611,0.006
4.612,0.007
4.613,0.009
4.614,0.009
4.615,0.006
4.616,0.007
4.617,0.006
4.618,0.005
4.619,0.006
4.620,0.007
4.621,0.006
4.622,0.005
4.623,0.003
4.624,0.003
4.625,0.003
4.626,0.002
4.627,0.003
4.628,0.003
4.629,0.000
4.630,-0.003
4.631,-0.003
4.632,-0.006
4.633,-0.006
4.634,-0.004
4.635,-0.006
4.636,-0.004
4.637,-0.006
4.638,-0.003
4.639,0.000
4.640,-0.002
4.641,0.000
4.642,0.004
4.643,0.003
4.644,0.002
4.645,0.003
4.646,0.003
4.647,0.003
4.648,0.003
4.649,0.003
4.650,0.002
4.651,0.000
4.652,0.001
4.653,0.000
4.654,-0.003
4.655,-0.003
4.656,0.001
4.657,0.000
4.658,-0.008
4.659,-0.009
4.660,-0.008
4.661,-0.009
4.662,-0.008
4.663,-0.006
4.664,-0.003
4.665,0.000
4.666,0.001
4.667,0.006
4.668,0.006
4.669,0.006
4.670,0.006
4.671,0.003
4.672,0.000
4.673,0.000
4.674,-0.006
4.675,-0.009
4.676,-0.011
4.677,-0.009
4.678,-0.009
4.679,-0.006
4.680,-0.003
4.681,-0.003
4.682,-0.004
4.683,-0.006
4.684,-0.009
4.685,-0.009
4.686,-0.005
4.687,-0.009
4.688,-0.008
4.689,-0.009
4.690,-0.009
4.691,-0.009
4.692,-0.009
4.693,-0.009
4.694,-0.008
4.695,-0.009
4.696,-0.009
4.697,-0.012
4.698,-0.012
4.699,-0.012
4.700,-0.012
4.701,-0.012
4.702,-0.014
4.703,-0.016
4.704,-0.014
4.705,-0.016
4.706,-0.016
4.707,-0.016
4.708,-0.016
4.709,-0.016
4.710,-0.016
4.711,-0.016
4.712,-0.016
4.713,-0.016
4.714,-0.017
4.715,-0.019
4.716,-0.018
4.717,-0.019
4.718,-0.020
4.719,-0.019
4.720,-0.019
4.721,-0.022
4.722,-0.021
4.723,-0.019
4.724,-0.019
4.725,-0.022
4.726,-0.020
4.727,-0.025
4.728,-0.028
4.729,-0.031
4.730,-0.025
4.731,-0.025
4.732,-0.024
4.733,-0.022
4.734,-0.018
4.735,-0.019
4.736,-0.020
4.737,-0.022
4.738,-0.021
4.739,-0.022
4.740,-0.023
4.741,-0.022
4.742,-0.019
4.743,-0.019
4.744,-0.022
4.745,-0.025
4.746,-0.024
4.747,-0.025
4.748,-0.026
4.749,-0.025
4.750,-0.028
4.751,-0.031
4.752,-0.033
4.753,-0.034
4.754,-0.034
4.755,-0.037
4.756,-0.034
4.757,-0.034
4.758,-0.034
4.759,-0.034
4.760,-0.036
4.761,-0.037
4.762,-0.037
4.763,-0.037
4.764,-0.039
4.765,-0.041
4.766,-0.036
4.767,-0.034
4.768,-0.033
4.769,-0.034
4.770,-0.034
4.771,-0.034
4.772,-0.031
4.773,-0.031
4.774,-0.028
4.775,-0.031
4.776,-0.033
4.777,-0.034
4.778,-0.031
4.779,-0.034
4.780,-0.036
4.781,-0.037
4.782,-0.034
4.783,-0.034
4.784,-0.036
4.785,-0.034
4.786,-0.033
4.787,-0.034
4.788,-0.033
4.789,-0.034
4.790,-0.033
4.791,-0.031
4.792,-0.031
4.793,-0.034
4.794,-0.036
4.795,-0.041
4.796,-0.037
4.797,-0.031
4.798,-0.030
4.799,-0.031
4.800,-0.030
4.801,-0.028
4.802,-0.028
4.803,-0.028
4.804,-0.028
4.805,-0.028
4.806,-0.028
4.807,-0.028
4.808,-0.029
4.809,-0.031
4.810,-0.036
4.811,-0.037
4.812,-0.034
4.813,-0.034
4.814,-0.034
4.815,-0.034
4.816,-0.033
4.817,-0.034
4.818,-0.034
4.819,-0.037
4.820,-0.036
4.821,-0.034
4.822,-0.036
4.823,-0.031
4.824,-0.028
4.825,-0.031
4.826,-0.034
4.827,-0.041
4.828,-0.042
4.829,-0.044
4.830,-0.039
4.831,-0.034
4.832,-0.036
4.833,-0.034
4.834,-0.036
4.835,-0.034
4.836,-0.036
4.837,-0.037
4.838,-0.041
4.839,-0.037
4.840,-0.033
4.841,-0.034
4.842,-0.033
4.843,-0.034
4.844,-0.036
4.845,-0.034
4.846,-0.042
4.847,-0.047
4.848,-0.044
4.849,-0.044
4.850,-0.044
4.851,-0.037
4.852,-0.037
4.853,-0.037
4.854,-0.041
4.855,-0.041
4.856,-0.041
4.857,-0.044
4.858,-0.045
4.859,-0.047
4.860,-0.044
4.861,-0.041
4.862,-0.037
4.863,-0.037
4.864,-0.037
4.865,-0.037
4.866,-0.041
4.867,-0.041
4.868,-0.039
4.869,-0.041
4.870,-0.041
4.871,-0.037
4.872,-0.027
4.873,-0.009
4.874,-0.002
4.875,0.006
4.876,0.008
4.877,0.009
4.878,0.009
4.879,0.012
4.880,0.017
4.881,0.022
4.882,0.022
4.883,0.025
4.884,0.024
4.885,0.028
4.886,0.034
4.887,0.037
4.888,0.034
4.889,0.037
4.890,0.039
4.891,0.044
4.892,0.045
4.893,0.047
4.894,0.043
4.895,0.041
4.896,0.039
4.897,0.037
4.898,0.041
4.899,0.047
4.900,0.048
4.901,0.053
4.902,0.058
4.903,0.062
4.904,0.062
4.905,0.066
4.906,0.071
4.907,0.069
4.908,0.075
4.909,0.078
4.910,0.084
4.911,0.088
4.912,0.094
4.913,0.097
4.914,0.101
4.915,0.100
4.916,0.098
4.917,0.097
4.918,0.089
4.919,0.084
4.920,0.078
4.921,0.069
4.922,0.062
4.923,0.056
4.924,0.053
4.925,0.050
4.926,0.044
4.927,0.037
4.928,0.037
4.929,0.034
4.930,0.027
4.931,0.022
4.932,0.016
4.933,0.016
4.934,0.016
4.935,0.016
4.936,0.005
4.937,-0.003
4.938,-0.009
4.939,-0.019
4.940,-0.018
4.941,-0.016
4.942,-0.014
4.943,-0.016
4.944,-0.012
4.945,-0.009
4.946,-0.014
4.947,-0.012
4.948,-0.022
4.949,-0.031
4.950,-0.034
4.951,-0.034
4.952,-0.033
4.953,-0.034
4.954,-0.033
4.955,-0.037
4.956,-0.039
4.957,-0.044
4.958,-0.045
4.959,-0.050
4.960,-0.053
4.961,-0.056
4.962,-0.061
4.963,-0.066
4.964,-0.064
4.965,-0.063
4.966,-0.059
4.967,-0.063
4.968,-0.061
4.969,-0.063
4.970,-0.058
4.971,-0.053
4.972,-0.053
4.973,-0.053
4.974,-0.053
4.975,-0.056
4.976,-0.056
4.977,-0.056
4.978,-0.061
4.979,-0.063
4.980,-0.058
4.981,-0.053
4.982,-0.053
4.983,-0.053
4.984,-0.056
4.985,-0.059
4.986,-0.063
4.987,-0.066
4.988,-0.067
4.989,-0.069
4.990,-0.067
4.991,-0.066
4.992,-0.061
4.993,-0.056
4.994,-0.059
4.995,-0.063
4.996,-0.066
4.997,-0.066
4.998,-0.066
4.999,-0.069
5.000,-0.069
5.001,-0.075
5.002,-0.082
5.003,-0.091
5.004,-0.099
5.005,-0.103
5.006,-0.113
5.007,-0.113
5.008,-0.111
5.009,-0.106
5.010,-0.100
5.011,-0.088
5.012,-0.079
5.013,-0.066
5.014,-0.047
5.015,-0.022
5.016,0.005
5.017,0.034
5.018,0.070
5.019,0.113
5.020,0.159
5.021,0.209
5.022,0.258
5.023,0.309
5.024,0.357
5.025,0.403
5.026,0.450
5.027,0.503
5.028,0.564
5.029,0.631
5.030,0.700
5.031,0.759
5.032,0.820
5.033,0.875
5.034,0.925
5.035,0.975
5.036,1.016
5.037,1.041
5.038,1.051
5.039,1.050
5.040,1.031
5.041,0.988
5.042,0.925
5.043,0.850
5.044,0.778
5.045,0.706
5.046,0.641
5.047,0.572
5.048,0.506
5.049,0.450
5.050,0.389
5.051,0.328
5.052,0.261
5.053,0.194
5.054,0.124
5.055,0.066
5.056,0.019
5.057,-0.012
5.058,-0.034
5.059,-0.041
5.060,-0.045
5.061,-0.044
5.062,-0.041
5.063,-0.044
5.064,-0.052
5.065,-0.063
5.066,-0.079
5.067,-0.091
5.068,-0.100
5.069,-0.103
5.070,-0.106
5.071,-0.113
5.072,-0.111
5.073,-0.106
5.074,-0.103
5.075,-0.094
5.076,-0.092
5.077,-0.091
5.078,-0.089
5.079,-0.088
5.080,-0.084
5.081,-0.084
5.082,-0.072
5.083,-0.063
5.084,-0.061
5.085,-0.059
5.086,-0.058
5.087,-0.056
5.088,-0.053
5.089,-0.053
5.090,-0.056
5.091,-0.056
5.092,-0.058
5.093,-0.063
5.094,-0.064
5.095,-0.066
5.096,-0.070
5.097,-0.072
5.098,-0.072
5.099,-0.075
5.100,-0.072
5.101,-0.072
5.102,-0.075
5.103,-0.078
5.104,-0.076
5.105,-0.078
5.106,-0.074
5.107,-0.072
5.108,-0.074
5.109,-0.072
5.110,-0.075
5.111,-0.075
5.112,-0.074
5.113,-0.075
5.114,-0.076
5.115,-0.075
5.116,-0.075
5.117,-0.075
5.118,-0.072
5.119,-0.072
5.120,-0.072
5.121,-0.072
5.122,-0.072
5.123,-0.069
5.124,-0.072
5.125,-0.072
5.126,-0.078
5.127,-0.081
5.128,-0.081
5.129,-0.078
5.130,-0.081
5.131,-0.081
5.132,-0.081
5.133,-0.081
5.134,-0.082
5.135,-0.084
5.136,-0.080
5.137,-0.075
5.138,-0.079
5.139,-0.084
5.140,-0.081
5.141,-0.078
5.142,-0.080
5.143,-0.078
5.144,-0.079
5.145,-0.081
5.146,-0.080
5.147,-0.078
5.148,-0.078
5.149,-0.081
5.150,-0.086
5.151,-0.084
5.152,-0.084
5.153,-0.084
5.154,-0.086
5.155,-0.084
5.156,-0.084
5.157,-0.084
5.158,-0.080
5.159,-0.075
5.160,-0.074
5.161,-0.075
5.162,-0.076
5.163,-0.084
5.164,-0.086
5.165,-0.088
5.166,-0.088
5.167,-0.084
5.168,-0.083
5.169,-0.075
5.170,-0.069
5.171,-0.069
5.172,-0.069
5.173,-0.069
5.174,-0.072
5.175,-0.072
5.176,-0.069
5.177,-0.072
5.178,-0.073
5.179,-0.075
5.180,-0.071
5.181,-0.072
5.182,-0.069
5.183,-0.069
5.184,-0.073
5.185,-0.072
5.186,-0.072
5.187,-0.072
5.188,-0.072
5.189,-0.072
5.190,-0.069
5.191,-0.066
5.192,-0.067
5.193,-0.069
5.194,-0.067
5.195,-0.069
5.196,-0.067
5.197,-0.066
5.198,-0.067
5.199,-0.066
5.200,-0.066
5.201,-0.059
5.202,-0.064
5.203,-0.066
5.204,-0.063
5.205,-0.063
5.206,-0.067
5.207,-0.063
5.208,-0.063
5.209,-0.063
5.210,-0.066
5.211,-0.066
5.212,-0.066
5.213,-0.066
5.214,-0.061
5.215,-0.056
5.216,-0.055
5.217,-0.053
5.218,-0.053
5.219,-0.053
5.220,-0.053
5.221,-0.053
5.222,-0.051
5.223,-0.053
5.224,-0.053
5.225,-0.053
5.226,-0.054
5.227,-0.053
5.228,-0.054
5.229,-0.056
5.230,-0.054
5.231,-0.056
5.232,-0.056
5.233,-0.059
5.234,-0.061
5.235,-0.059
5.236,-0.058
5.237,-0.056
5.238,-0.053
5.239,-0.053
5.240,-0.054
5.241,-0.056
5.242,-0.056
5.243,-0.056
5.244,-0.055
5.245,-0.053
5.246,-0.050
5.247,-0.047
5.248,-0.047
5.249,-0.047
5.250,-0.044
5.251,-0.041
5.252,-0.039
5.253,-0.041
5.254,-0.039
5.255,-0.037
5.256,-0.034
5.257,-0.034
5.258,-0.036
5.259,-0.034
5.260,-0.034
5.261,-0.034
5.262,-0.033
5.263,-0.034
5.264,-0.034
5.265,-0.034
5.266,-0.033
5.267,-0.031
5.268,-0.031
5.269,-0.031
5.270,-0.033
5.271,-0.031
5.272,-0.031
5.273,-0.031
5.274,-0.025
5.275,-0.022
5.276,-0.023
5.277,-0.025
5.278,-0.022
5.279,-0.016
5.280,-0.016
5.281,-0.016
5.282,-0.017
5.283,-0.019
5.284,-0.022
5.285,-0.025
5.286,-0.024
5.287,-0.022
5.288,-0.022
5.289,-0.022
5.290,-0.019
5.291,-0.019
5.292,-0.020
5.293,-0.022
5.294,-0.023
5.295,-0.025
5.296,-0.023
5.297,-0.025
5.298,-0.024
5.299,-0.022
5.300,-0.018
5.301,-0.019
5.302,-0.019
5.303,-0.019
5.304,-0.016
5.305,-0.019
5.306,-0.018
5.307,-0.012
5.308,-0.012
5.309,-0.012
5.310,-0.012
5.311,-0.012
5.312,-0.012
5.313,-0.012
5.314,-0.014
5.315,-0.016
5.316,-0.012
5.317,-0.012
5.318,-0.014
5.319,-0.012
5.320,-0.012
5.321,-0.012
5.322,-0.014
5.323,-0.012
5.324,-0.012
5.325,-0.012
5.326,-0.012
5.327,-0.012
5.328,-0.012
5.329,-0.012
5.330,-0.011
5.331,-0.009
5.332,-0.011
5.333,-0.012
5.334,-0.014
5.335,-0.016
5.336,-0.014
5.337,-0.016
5.338,-0.017
5.339,-0.016
5.340,-0.014
5.341,-0.012
5.342,-0.012
5.343,-0.012
5.344,-0.009
5.345,-0.006
5.346,-0.003
5.347,-0.003
5.348,-0.002
5.349,0.003
5.350,0.003
5.351,0.006
5.352,0.006
5.353,0.003
5.354,0.005
5.355,0.003
5.356,0.003
5.357,0.003
5.358,0.009
5.359,0.009
5.360,0.014
5.361,0.022
5.362,0.026
5.363,0.028
5.364,0.031
5.365,0.031
5.366,0.030
5.367,0.031
5.368,0.033
5.369,0.037
5.370,0.037
5.371,0.041
5.372,0.039
5.373,0.041
5.374,0.039
5.375,0.041
5.376,0.043
5.377,0.041
5.378,0.042
5.379,0.044
5.380,0.044
5.381,0.044
5.382,0.044
5.383,0.044
5.384,0.043
5.385,0.044
5.386,0.041
5.387,0.044
5.388,0.048
5.389,0.050
5.390,0.045
5.391,0.047
5.392,0.047
5.393,0.047
5.394,0.046
5.395,0.044
5.396,0.047
5.397,0.044
5.398,0.044
5.399,0.044
5.400,0.047
5.401,0.044
5.402,0.042
5.403,0.044
5.404,0.041
5.405,0.041
5.406,0.041
5.407,0.041
5.408,0.039
5.409,0.037
5.410,0.041
5.411,0.041
5.412,0.041
5.413,0.041
5.414,0.034
5.415,0.031
5.416,0.033
5.417,0.031
5.418,0.028
5.419,0.025
5.420,0.021
5.421,0.016
5.422,0.012
5.423,0.009
5.424,0.009
5.425,0.006
5.426,0.007
5.427,0.006
5.428,0.005
5.429,0.003
5.430,0.000
5.431,0.000
5.432,0.000
5.433,0.000
5.434,0.001
5.435,0.000
5.436,0.000
5.437,0.000
5.438,0.000
5.439,0.000
5.440,-0.003
5.441,-0.006
5.442,-0.011
5.443,-0.009
5.444,-0.006
5.445,-0.006
5.446,-0.006
5.447,-0.006
5.448,-0.008
5.449,-0.006
5.450,-0.006
5.451,-0.003
5.452,-0.002
5.453,-0.003
5.454,0.000
5.455,0.000
5.456,-0.006
5.457,-0.009
5.458,-0.002
5.459,0.000
5.460,-0.001
5.461,-0.003
5.462,-0.001
5.463,-0.006
5.464,-0.004
5.465,-0.006
5.466,-0.006
5.467,-0.006
5.468,-0.009
5.469,-0.012
5.470,-0.016
5.471,-0.016
5.472,-0.014
5.473,-0.016
5.474,-0.014
5.475,-0.009
5.476,-0.011
5.477,-0.009
5.478,-0.009
5.479,-0.012
5.480,-0.011
5.481,-0.012
5.482,-0.012
5.483,-0.012
5.484,-0.014
5.485,-0.012
5.486,-0.019
5.487,-0.022
5.488,-0.019
5.489,-0.019
5.490,-0.018
5.491,-0.012
5.492,-0.012
5.493,-0.012
5.494,-0.012
5.495,-0.012
5.496,-0.011
5.497,-0.012
5.498,-0.012
5.499,-0.012
5.500,-0.011
5.501,-0.012
5.502,-0.014
5.503,-0.012
5.504,-0.014
5.505,-0.012
5.506,-0.014
5.507,-0.016
5.508,-0.017
5.509,-0.022
5.510,-0.023
5.511,-0.022
5.512,-0.024
5.513,-0.022
5.514,-0.018
5.515,-0.016
5.516,-0.016
5.517,-0.016
5.518,-0.016
5.519,-0.016
5.520,-0.016
5.521,-0.016
5.522,-0.019
5.523,-0.022
5.524,-0.022
5.525,-0.019
5.526,-0.025
5.527,-0.031
5.528,-0.033
5.529,-0.034
5.530,-0.033
5.531,-0.031
5.532,-0.030
5.533,-0.028
5.534,-0.028
5.535,-0.031
5.536,-0.031
5.537,-0.031
5.538,-0.031
5.539,-0.031
5.540,-0.031
5.541,-0.031
5.542,-0.031
5.543,-0.031
5.544,-0.028
5.545,-0.031
5.546,-0.031
5.547,-0.031
5.548,-0.029
5.549,-0.031
5.550,-0.034
5.551,-0.034
5.552,-0.033
5.553,-0.034
5.554,-0.034
5.555,-0.031
5.556,-0.037
5.557,-0.034
5.558,-0.034
5.559,-0.034
5.560,-0.034
5.561,-0.034
5.562,-0.034
5.563,-0.034
5.564,-0.041
5.565,-0.044
5.566,-0.046
5.567,-0.044
5.568,-0.043
5.569,-0.041
5.570,-0.042
5.571,-0.044
5.572,-0.045
5.573,-0.047
5.574,-0.051
5.575,-0.053
5.576,-0.053
5.577,-0.053
5.578,-0.053
5.579,-0.053
5.580,-0.053
5.581,-0.053
5.582,-0.053
5.583,-0.053
5.584,-0.052
5.585,-0.050
5.586,-0.053
5.587,-0.053
5.588,-0.050
5.589,-0.050
5.590,-0.050
5.591,-0.047
5.592,-0.047
5.593,-0.047
5.594,-0.054
5.595,-0.056
5.596,-0.061
5.597,-0.063
5.598,-0.063
5.599,-0.063
5.600,-0.063
5.601,-0.063
5.602,-0.059
5.603,-0.056
5.604,-0.056
5.605,-0.056
5.606,-0.056
5.607,-0.059
5.608,-0.059
5.609,-0.056
5.610,-0.055
5.611,-0.053
5.612,-0.052
5.613,-0.050
5.614,-0.054
5.615,-0.053
5.616,-0.054
5.617,-0.056
5.618,-0.055
5.619,-0.056
5.620,-0.058
5.621,-0.063
5.622,-0.066
5.623,-0.063
5.624,-0.066
5.625,-0.063
5.626,-0.059
5.627,-0.059
5.628,-0.058
5.629,-0.059
5.630,-0.059
5.631,-0.059
5.632,-0.056
5.633,-0.056
5.634,-0.056
5.635,-0.059
5.636,-0.061
5.637,-0.063
5.638,-0.066
5.639,-0.063
5.640,-0.061
5.641,-0.063
5.642,-0.066
5.643,-0.072
5.644,-0.069
5.645,-0.063
5.646,-0.061
5.647,-0.063
5.648,-0.061
5.649,-0.063
5.650,-0.061
5.651,-0.063
5.652,-0.061
5.653,-0.056
5.654,-0.053
5.655,-0.050
5.656,-0.051
5.657,-0.053
5.658,-0.058
5.659,-0.059
5.660,-0.058
5.661,-0.056
5.662,-0.053
5.663,-0.050
5.664,-0.044
5.665,-0.037
5.666,-0.037
5.667,-0.034
5.668,-0.024
5.669,-0.016
5.670,-0.012
5.671,-0.012
5.672,-0.011
5.673,-0.012
5.674,-0.014
5.675,-0.019
5.676,-0.016
5.677,-0.012
5.678,-0.011
5.679,-0.009
5.680,0.001
5.681,0.006
5.682,0.009
5.683,0.009
5.684,0.009
5.685,0.006
5.686,0.009
5.687,0.006
5.688,0.006
5.689,0.006
5.690,0.006
5.691,0.006
5.692,0.011
5.693,0.012
5.694,0.016
5.695,0.022
5.696,0.025
5.697,0.022
5.698,0.018
5.699,0.012
5.700,0.017
5.701,0.019
5.702,0.026
5.703,0.037
5.704,0.037
5.705,0.041
5.706,0.037
5.707,0.041
5.708,0.039
5.709,0.041
5.710,0.043
5.711,0.044
5.712,0.039
5.713,0.034
5.714,0.036
5.715,0.034
5.716,0.031
5.717,0.028
5.718,0.022
5.719,0.016
5.720,0.008
5.721,0.003
5.722,0.003
5.723,0.003
5.724,0.004
5.725,0.006
5.726,-0.004
5.727,-0.016
5.728,-0.023
5.729,-0.037
5.730,-0.041
5.731,-0.044
5.732,-0.039
5.733,-0.037
5.734,-0.033
5.735,-0.028
5.736,-0.031
5.737,-0.028
5.738,-0.033
5.739,-0.037
5.740,-0.045
5.741,-0.050
5.742,-0.053
5.743,-0.063
5.744,-0.061
5.745,-0.066
5.746,-0.073
5.747,-0.078
5.748,-0.077
5.749,-0.075
5.750,-0.078
5.751,-0.078
5.752,-0.083
5.753,-0.081
5.754,-0.081
5.755,-0.078
5.756,-0.081
5.757,-0.081
5.758,-0.081
5.759,-0.084
5.760,-0.088
5.761,-0.088
5.762,-0.089
5.763,-0.088
5.764,-0.092
5.765,-0.091
5.766,-0.091
5.767,-0.091
5.768,-0.092
5.769,-0.094
5.770,-0.092
5.771,-0.091
5.772,-0.094
5.773,-0.094
5.774,-0.092
5.775,-0.094
5.776,-0.094
5.777,-0.091
5.778,-0.088
5.779,-0.088
5.780,-0.088
5.781,-0.088
5.782,-0.089
5.783,-0.091
5.784,-0.091
5.785,-0.091
5.786,-0.091
5.787,-0.091
5.788,-0.092
5.789,-0.094
5.790,-0.094
5.791,-0.097
5.792,-0.099
5.793,-0.100
5.794,-0.101
5.795,-0.103
5.796,-0.105
5.797,-0.103
5.798,-0.108
5.799,-0.113
5.800,-0.118
5.801,-0.125
5.802,-0.130
5.803,-0.137
5.804,-0.139
5.805,-0.137
5.806,-0.136
5.807,-0.134
5.808,-0.126
5.809,-0.122
5.810,-0.111
5.811,-0.097
5.812,-0.071
5.813,-0.041
5.814,-0.012
5.815,0.019
5.816,0.058
5.817,0.103
5.818,0.153
5.819,0.203
5.820,0.259
5.821,0.309
5.822,0.353
5.823,0.400
5.824,0.450
5.825,0.506
5.826,0.571
5.827,0.637
5.828,0.697
5.829,0.756
5.830,0.806
5.831,0.850
5.832,0.896
5.833,0.931
5.834,0.961
5.835,0.975
5.836,0.973
5.837,0.962
5.838,0.928
5.839,0.875
5.840,0.802
5.841,0.725
5.842,0.651
5.843,0.587
5.844,0.523
5.845,0.459
5.846,0.392
5.847,0.322
5.848,0.264
5.849,0.203
5.850,0.144
5.851,0.084
5.852,0.027
5.853,-0.025
5.854,-0.064
5.855,-0.091
5.856,-0.097
5.857,-0.100
5.858,-0.095
5.859,-0.097
5.860,-0.096
5.861,-0.097
5.862,-0.103
5.863,-0.113
5.864,-0.125
5.865,-0.137
5.866,-0.144
5.867,-0.150
5.868,-0.155
5.869,-0.153
5.870,-0.150
5.871,-0.150
5.872,-0.147
5.873,-0.144
5.874,-0.141
5.875,-0.141
5.876,-0.134
5.877,-0.128
5.878,-0.128
5.879,-0.119
5.880,-0.111
5.881,-0.106
5.882,-0.102
5.883,-0.100
5.884,-0.097
5.885,-0.091
5.886,-0.091
5.887,-0.094
5.888,-0.092
5.889,-0.091
5.890,-0.091
5.891,-0.091
5.892,-0.097
5.893,-0.103
5.894,-0.106
5.895,-0.109
5.896,-0.111
5.897,-0.106
5.898,-0.105
5.899,-0.103
5.900,-0.104
5.901,-0.103
5.902,-0.099
5.903,-0.091
5.904,-0.088
5.905,-0.088
5.906,-0.088
5.907,-0.091
5.908,-0.095
5.909,-0.100
5.910,-0.103
5.911,-0.103
5.912,-0.101
5.913,-0.103
5.914,-0.106
5.915,-0.106
5.916,-0.105
5.917,-0.103
5.918,-0.103
5.919,-0.103
5.920,-0.097
5.921,-0.097
5.922,-0.096
5.923,-0.097
5.924,-0.096
5.925,-0.094
5.926,-0.092
5.927,-0.097
5.928,-0.098
5.929,-0.100
5.930,-0.100
5.931,-0.100
5.932,-0.101
5.933,-0.103
5.934,-0.104
5.935,-0.106
5.936,-0.106
5.937,-0.103
5.938,-0.100
5.939,-0.103
5.940,-0.099
5.941,-0.094
5.942,-0.095
5.943,-0.097
5.944,-0.098
5.945,-0.100
5.946,-0.103
5.947,-0.106
5.948,-0.103
5.949,-0.103
5.950,-0.104
5.951,-0.106
5.952,-0.099
5.953,-0.094
5.954,-0.097
5.955,-0.100
5.956,-0.100
5.957,-0.100
5.958,-0.103
5.959,-0.100
5.960,-0.103
5.961,-0.103
5.962,-0.100
5.963,-0.097
5.964,-0.094
5.965,-0.097
5.966,-0.097
5.967,-0.094
5.968,-0.094
5.969,-0.094
5.970,-0.092
5.971,-0.094
5.972,-0.094
5.973,-0.091
5.974,-0.094
5.975,-0.094
5.976,-0.094
5.977,-0.091
5.978,-0.094
5.979,-0.091
5.980,-0.091
5.981,-0.094
5.982,-0.091
5.983,-0.091
5.984,-0.089
5.985,-0.088
5.986,-0.088
5.987,-0.088
5.988,-0.088
5.989,-0.088
5.990,-0.088
5.991,-0.084
5.992,-0.086
5.993,-0.088
5.994,-0.089
5.995,-0.091
5.996,-0.088
5.997,-0.091
5.998,-0.086
5.999,-0.088
6.000,-0.089
6.001,-0.088
6.002,-0.081
6.003,-0.078
6.004,-0.073
6.005,-0.075
6.006,-0.076
6.007,-0.078
6.008,-0.078
6.009,-0.081
6.010,-0.080
6.011,-0.078
6.012,-0.077
6.013,-0.075
6.014,-0.075
6.015,-0.075
6.016,-0.074
6.017,-0.072
6.018,-0.073
6.019,-0.072
6.020,-0.072
6.021,-0.072
6.022,-0.072
6.023,-0.072
6.024,-0.070
6.025,-0.072
6.026,-0.073
6.027,-0.072
6.028,-0.071
6.029,-0.069
6.030,-0.072
6.031,-0.072
6.032,-0.070
6.033,-0.072
6.034,-0.073
6.035,-0.072
6.036,-0.072
6.037,-0.072
6.038,-0.072
6.039,-0.072
6.040,-0.072
6.041,-0.072
6.042,-0.075
6.043,-0.075
6.044,-0.066
6.045,-0.059
6.046,-0.061
6.047,-0.063
6.048,-0.061
6.049,-0.056
6.050,-0.056
6.051,-0.056
6.052,-0.055
6.053,-0.050
6.054,-0.047
6.055,-0.044
6.056,-0.041
6.057,-0.041
6.058,-0.042
6.059,-0.041
6.060,-0.041
6.061,-0.041
6.062,-0.041
6.063,-0.041
6.064,-0.041
6.065,-0.041
6.066,-0.041
6.067,-0.041
6.068,-0.039
6.069,-0.041
6.070,-0.042
6.071,-0.041
6.072,-0.037
6.073,-0.034
6.074,-0.036
6.075,-0.037
6.076,-0.036
6.077,-0.037
6.078,-0.037
6.079,-0.037
6.080,-0.036
6.081,-0.034
6.082,-0.034
6.083,-0.034
6.084,-0.034
6.085,-0.034
6.086,-0.036
6.087,-0.034
6.088,-0.034
6.089,-0.034
6.090,-0.034
6.091,-0.034
6.092,-0.036
6.093,-0.034
6.094,-0.034
6.095,-0.034
6.096,-0.033
6.097,-0.028
6.098,-0.030
6.099,-0.028
6.100,-0.029
6.101,-0.028
6.102,-0.031
6.103,-0.031
6.104,-0.029
6.105,-0.031
6.106,-0.030
6.107,-0.028
6.108,-0.028
6.109,-0.028
6.110,-0.027
6.111,-0.025
6.112,-0.026
6.113,-0.025
6.114,-0.026
6.115,-0.028
6.116,-0.026
6.117,-0.028
6.118,-0.027
6.119,-0.025
6.120,-0.021
6.121,-0.019
6.122,-0.016
6.123,-0.012
6.124,-0.012
6.125,-0.012
6.126,-0.012
6.127,-0.012
6.128,-0.012
6.129,-0.012
6.130,-0.011
6.131,-0.009
6.132,-0.009
6.133,-0.006
6.134,-0.006
6.135,-0.006
6.136,-0.006
6.137,-0.009
6.138,-0.011
6.139,-0.012
6.140,-0.012
6.141,-0.012
6.142,-0.014
6.143,-0.012
6.144,-0.011
6.145,-0.009
6.146,-0.003
6.147,0.000
6.148,0.002
6.149,0.003
6.150,0.004
6.151,0.009
6.152,0.009
6.153,0.009
6.154,0.009
6.155,0.016
6.156,0.017
6.157,0.019
6.158,0.019
6.159,0.019
6.160,0.022
6.161,0.028
6.162,0.029
6.163,0.031
6.164,0.033
6.165,0.031
6.166,0.036
6.167,0.037
6.168,0.042
6.169,0.044
6.170,0.047
6.171,0.047
6.172,0.047
6.173,0.047
6.174,0.047
6.175,0.047
6.176,0.047
6.177,0.047
6.178,0.047
6.179,0.047
6.180,0.047
6.181,0.047
6.182,0.050
6.183,0.047
6.184,0.047
6.185,0.047
6.186,0.053
6.187,0.053
6.188,0.053
6.189,0.053
6.190,0.052
6.191,0.050
6.192,0.050
6.193,0.050
6.194,0.044
6.195,0.044
6.196,0.044
6.197,0.047
6.198,0.045
6.199,0.044
6.200,0.041
6.201,0.034
6.202,0.033
6.203,0.031
6.204,0.033
6.205,0.031
6.206,0.029
6.207,0.031
6.208,0.029
6.209,0.031
6.210,0.031
6.211,0.028
6.212,0.027
6.213,0.025
6.214,0.019
6.215,0.012
6.216,0.006
6.217,0.003
6.218,0.003
6.219,0.003
6.220,0.006
6.221,0.009
6.222,0.009
6.223,0.012
6.224,0.009
6.225,0.009
6.226,0.011
6.227,0.009
6.228,0.008
6.229,0.006
6.230,0.007
6.231,0.009
6.232,0.006
6.233,0.006
6.234,0.005
6.235,0.003
6.236,0.002
6.237,0.000
6.238,0.001
6.239,0.000
6.240,0.003
6.241,0.003
6.242,0.001
6.243,0.003
6.244,0.003
6.245,0.000
6.246,0.000
6.247,0.000
6.248,0.003
6.249,0.003
6.250,0.003
6.251,0.009
6.252,0.011
6.253,0.009
6.254,0.008
6.255,0.009
6.256,0.006
6.257,0.006
6.258,0.002
6.259,0.000
6.260,-0.008
6.261,-0.009
6.262,-0.005
6.263,0.000
6.264,0.001
6.265,0.000
6.266,-0.002
6.267,0.000
6.268,0.004
6.269,0.006
6.270,0.003
6.271,0.003
6.272,0.005
6.273,0.003
6.274,0.006
6.275,0.006
6.276,0.002
6.277,0.003
6.278,0.003
6.279,0.003
6.280,0.004
6.281,0.003
6.282,0.003
6.283,0.000
6.284,-0.001
6.285,0.000
6.286,0.001
6.287,0.000
6.288,0.001
6.289,0.003
6.290,0.002
6.291,0.000
6.292,-0.001
6.293,0.000
6.294,0.003
6.295,0.003
6.296,0.000
6.297,0.000
6.298,-0.002
6.299,0.000
6.300,0.000
6.301,-0.003
6.302,-0.001
6.303,-0.003
6.304,-0.002
6.305,0.000
6.306,-0.002
6.307,0.000
6.308,0.002
6.309,-0.003
6.310,-0.003
6.311,0.000
6.312,0.000
6.313,0.000
6.314,0.000
6.315,0.000
6.316,-0.001
6.317,-0.003
6.318,0.000
6.319,0.000
6.320,-0.006
6.321,-0.009
6.322,-0.008
6.323,-0.012
6.324,-0.020
6.325,-0.022
6.326,-0.018
6.327,-0.016
6.328,-0.014
6.329,-0.012
6.330,-0.008
6.331,-0.003
6.332,-0.005
6.333,-0.003
6.334,-0.003
6.335,-0.003
6.336,-0.004
6.337,-0.009
6.338,-0.012
6.339,-0.012
6.340,-0.016
6.341,-0.016
6.342,-0.019
6.343,-0.019
6.344,-0.020
6.345,-0.019
6.346,-0.018
6.347,-0.019
6.348,-0.018
6.349,-0.016
6.350,-0.019
6.351,-0.019
6.352,-0.012
6.353,-0.016
6.354,-0.014
6.355,-0.016
6.356,-0.017
6.357,-0.019
6.358,-0.019
6.359,-0.019
6.360,-0.019
6.361,-0.022
6.362,-0.023
6.363,-0.028
6.364,-0.028
6.365,-0.028
6.366,-0.028
6.367,-0.028
6.368,-0.028
6.369,-0.028
6.370,-0.029
6.371,-0.034
6.372,-0.033
6.373,-0.031
6.374,-0.025
6.375,-0.019
6.376,-0.020
6.377,-0.022
6.378,-0.023
6.379,-0.025
6.380,-0.026
6.381,-0.028
6.382,-0.027
6.383,-0.028
6.384,-0.033
6.385,-0.034
6.386,-0.033
6.387,-0.034
6.388,-0.031
6.389,-0.028
6.390,-0.027
6.391,-0.028
6.392,-0.025
6.393,-0.028
6.394,-0.029
6.395,-0.031
6.396,-0.033
6.397,-0.041
6.398,-0.037
6.399,-0.034
6.400,-0.030
6.401,-0.031
6.402,-0.033
6.403,-0.034
6.404,-0.033
6.405,-0.034
6.406,-0.037
6.407,-0.037
6.408,-0.034
6.409,-0.034
6.410,-0.034
6.411,-0.034
6.412,-0.036
6.413,-0.041
6.414,-0.045
6.415,-0.047
6.416,-0.046
6.417,-0.044
6.418,-0.044
6.419,-0.044
6.420,-0.039
6.421,-0.037
6.422,-0.034
6.423,-0.034
6.424,-0.034
6.425,-0.034
6.426,-0.034
6.427,-0.034
6.428,-0.033
6.429,-0.034
6.430,-0.034
6.431,-0.034
6.432,-0.036
6.433,-0.037
6.434,-0.037
6.435,-0.037
6.436,-0.037
6.437,-0.037
6.438,-0.037
6.439,-0.037
6.440,-0.042
6.441,-0.044
6.442,-0.042
6.443,-0.044
6.444,-0.039
6.445,-0.034
6.446,-0.036
6.447,-0.041
6.448,-0.037
6.449,-0.037
6.450,-0.037
6.451,-0.037
6.452,-0.044
6.453,-0.044
6.454,-0.043
6.455,-0.047
6.456,-0.047
6.457,-0.050
6.458,-0.047
6.459,-0.044
6.460,-0.043
6.461,-0.041
6.462,-0.044
6.463,-0.044
6.464,-0.047
6.465,-0.047
6.466,-0.046
6.467,-0.044
6.468,-0.047
6.469,-0.044
6.470,-0.039
6.471,-0.041
6.472,-0.037
6.473,-0.037
6.474,-0.041
6.475,-0.041
6.476,-0.047
6.477,-0.050
6.478,-0.047
6.479,-0.047
6.480,-0.051
6.481,-0.050
6.482,-0.050
6.483,-0.050
6.484,-0.053
6.485,-0.053
6.486,-0.051
6.487,-0.053
6.488,-0.054
6.489,-0.056
6.490,-0.056
6.491,-0.056
6.492,-0.050
6.493,-0.047
6.494,-0.048
6.495,-0.050
6.496,-0.051
6.497,-0.050
6.498,-0.044
6.499,-0.041
6.500,-0.039
6.501,-0.034
6.502,-0.036
6.503,-0.031
6.504,-0.024
6.505,-0.016
6.506,-0.008
6.507,0.000
6.508,0.000
6.509,0.003
6.510,0.003
6.511,0.003
6.512,0.009
6.513,0.019
6.514,0.019
6.515,0.025
6.516,0.028
6.517,0.028
6.518,0.024
6.519,0.025
6.520,0.023
6.521,0.025
6.522,0.025
6.523,0.025
6.524,0.024
6.525,0.025
6.526,0.025
6.527,0.025
6.528,0.028
6.529,0.034
6.530,0.039
6.531,0.047
6.532,0.049
6.533,0.050
6.534,0.049
6.535,0.050
6.536,0.058
6.537,0.059
6.538,0.061
6.539,0.059
6.540,0.067
6.541,0.072
6.542,0.077
6.543,0.078
6.544,0.084
6.545,0.084
6.546,0.086
6.547,0.088
6.548,0.080
6.549,0.075
6.550,0.073
6.551,0.069
6.552,0.066
6.553,0.062
6.554,0.055
6.555,0.047
6.556,0.037
6.557,0.028
6.558,0.025
6.559,0.019
6.560,0.017
6.561,0.019
6.562,0.009
6.563,0.006
6.564,0.003
6.565,0.000
6.566,-0.008
6.567,-0.012
6.568,-0.017
6.569,-0.025
6.570,-0.026
6.571,-0.028
6.572,-0.027
6.573,-0.028
6.574,-0.027
6.575,-0.025
6.576,-0.033
6.577,-0.034
6.578,-0.042
6.579,-0.050
6.580,-0.052
6.581,-0.050
6.582,-0.050
6.583,-0.053
6.584,-0.050
6.585,-0.053
6.586,-0.054
6.587,-0.059
6.588,-0.061
6.589,-0.066
6.590,-0.064
6.591,-0.063
6.592,-0.066
6.593,-0.069
6.594,-0.070
6.595,-0.072
6.596,-0.070
6.597,-0.075
6.598,-0.072
6.599,-0.072
6.600,-0.072
6.601,-0.072
6.602,-0.072
6.603,-0.072
6.604,-0.073
6.605,-0.078
6.606,-0.077
6.607,-0.075
6.608,-0.078
6.609,-0.078
6.610,-0.078
6.611,-0.078
6.612,-0.075
6.613,-0.072
6.614,-0.072
6.615,-0.072
6.616,-0.076
6.617,-0.081
6.618,-0.081
6.619,-0.081
6.620,-0.081
6.621,-0.081
6.622,-0.081
6.623,-0.081
6.624,-0.081
6.625,-0.081
6.626,-0.084
6.627,-0.084
6.628,-0.083
6.629,-0.084
6.630,-0.086
6.631,-0.094
6.632,-0.100
6.633,-0.106
6.634,-0.117
6.635,-0.125
6.636,-0.130
6.637,-0.125
6.638,-0.119
6.639,-0.109
6.640,-0.102
6.641,-0.088
6.642,-0.074
6.643,-0.053
6.644,-0.036
6.645,-0.012
6.646,0.017
6.647,0.050
6.648,0.089
6.649,0.134
6.650,0.184
6.651,0.237
6.652,0.287
6.653,0.341
6.654,0.386
6.655,0.428
6.656,0.478
6.657,0.534
6.658,0.593
6.659,0.656
6.660,0.721
6.661,0.775
6.662,0.831
6.663,0.881
6.664,0.927
6.665,0.972
6.666,1.003
6.667,1.019
6.668,1.021
6.669,1.009
6.670,0.983
6.671,0.931
6.672,0.871
6.673,0.797
6.674,0.722
6.675,0.647
6.676,0.578
6.677,0.506
6.678,0.436
6.679,0.375
6.680,0.313
6.681,0.250
6.682,0.184
6.683,0.119
6.684,0.059
6.685,0.012
6.686,-0.027
6.687,-0.050
6.688,-0.063
6.689,-0.059
6.690,-0.063
6.691,-0.059
6.692,-0.059
6.693,-0.066
6.694,-0.076
6.695,-0.091
6.696,-0.102
6.697,-0.106
6.698,-0.111
6.699,-0.109
6.700,-0.116
6.701,-0.125
6.702,-0.124
6.703,-0.119
6.704,-0.119
6.705,-0.113
6.706,-0.107
6.707,-0.103
6.708,-0.100
6.709,-0.097
6.710,-0.091
6.711,-0.088
6.712,-0.079
6.713,-0.075
6.714,-0.073
6.715,-0.072
6.716,-0.073
6.717,-0.075
6.718,-0.072
6.719,-0.072
6.720,-0.078
6.721,-0.081
6.722,-0.080
6.723,-0.081
6.724,-0.083
6.725,-0.084
6.726,-0.088
6.727,-0.088
6.728,-0.088
6.729,-0.091
6.730,-0.088
6.731,-0.088
6.732,-0.084
6.733,-0.081
6.734,-0.078
6.735,-0.078
6.736,-0.078
6.737,-0.081
6.738,-0.081
6.739,-0.078
6.740,-0.082
6.741,-0.084
6.742,-0.084
6.743,-0.088
6.744,-0.091
6.745,-0.091
6.746,-0.089
6.747,-0.088
6.748,-0.084
6.749,-0.084
6.750,-0.080
6.751,-0.075
6.752,-0.079
6.753,-0.081
6.754,-0.084
6.755,-0.084
6.756,-0.086
6.757,-0.084
6.758,-0.086
6.759,-0.084
6.760,-0.088
6.761,-0.088
6.762,-0.088
6.763,-0.088
6.764,-0.088
6.765,-0.088
6.766,-0.088
6.767,-0.088
6.768,-0.086
6.769,-0.084
6.770,-0.080
6.771,-0.075
6.772,-0.079
6.773,-0.081
6.774,-0.081
6.775,-0.081
6.776,-0.082
6.777,-0.084
6.778,-0.084
6.779,-0.088
6.780,-0.092
6.781,-0.091
6.782,-0.088
6.783,-0.084
6.784,-0.081
6.785,-0.075
6.786,-0.076
6.787,-0.078
6.788,-0.081
6.789,-0.084
6.790,-0.083
6.791,-0.084
6.792,-0.082
6.793,-0.088
6.794,-0.088
6.795,-0.088
6.796,-0.088
6.797,-0.084
6.798,-0.088
6.799,-0.084
6.800,-0.078
6.801,-0.078
6.802,-0.079
6.803,-0.081
6.804,-0.084
6.805,-0.084
6.806,-0.077
6.807,-0.075
6.808,-0.075
6.809,-0.075
6.810,-0.073
6.811,-0.078
6.812,-0.075
6.813,-0.075
6.814,-0.079
6.815,-0.078
6.816,-0.075
6.817,-0.072
6.818,-0.072
6.819,-0.072
6.820,-0.076
6.821,-0.081
6.822,-0.081
6.823,-0.081
6.824,-0.077
6.825,-0.075
6.826,-0.075
6.827,-0.075
6.828,-0.075
6.829,-0.072
6.830,-0.074
6.831,-0.069
6.832,-0.072
6.833,-0.072
6.834,-0.069
6.835,-0.069
6.836,-0.075
6.837,-0.072
6.838,-0.072
6.839,-0.072
6.840,-0.073
6.841,-0.072
6.842,-0.072
6.843,-0.072
6.844,-0.072
6.845,-0.072
6.846,-0.072
6.847,-0.072
6.848,-0.072
6.849,-0.072
6.850,-0.073
6.851,-0.075
6.852,-0.072
6.853,-0.072
6.854,-0.072
6.855,-0.072
6.856,-0.067
6.857,-0.059
6.858,-0.063
6.859,-0.066
6.860,-0.063
6.861,-0.063
6.862,-0.058
6.863,-0.056
6.864,-0.058
6.865,-0.056
6.866,-0.055
6.867,-0.053
6.868,-0.050
6.869,-0.050
6.870,-0.050
6.871,-0.050
6.872,-0.050
6.873,-0.050
6.874,-0.051
6.875,-0.053
6.876,-0.049
6.877,-0.044
6.878,-0.043
6.879,-0.041
6.880,-0.041
6.881,-0.041
6.882,-0.041
6.883,-0.044
6.884,-0.044
6.885,-0.044
6.886,-0.041
6.887,-0.041
6.888,-0.042
6.889,-0.041
6.890,-0.041
6.891,-0.041
6.892,-0.039
6.893,-0.041
6.894,-0.037
6.895,-0.034
6.896,-0.034
6.897,-0.034
6.898,-0.034
6.899,-0.034
6.900,-0.036
6.901,-0.034
6.902,-0.034
6.903,-0.034
6.904,-0.033
6.905,-0.034
6.906,-0.034
6.907,-0.034
6.908,-0.034
6.909,-0.031
6.910,-0.031
6.911,-0.031
6.912,-0.033
6.913,-0.034
6.914,-0.033
6.915,-0.031
6.916,-0.031
6.917,-0.031
6.918,-0.031
6.919,-0.031
6.920,-0.024
6.921,-0.019
6.922,-0.020
6.923,-0.022
6.924,-0.025
6.925,-0.028
6.926,-0.026
6.927,-0.028
6.928,-0.027
6.929,-0.025
6.930,-0.018
6.931,-0.016
6.932,-0.016
6.933,-0.016
6.934,-0.012
6.935,-0.016
6.936,-0.017
6.937,-0.016
6.938,-0.014
6.939,-0.012
6.940,-0.012
6.941,-0.012
6.942,-0.012
6.943,-0.012
6.944,-0.012
6.945,-0.012
6.946,-0.009
6.947,-0.009
6.948,-0.011
6.949,-0.009
6.950,-0.009
6.951,-0.009
6.952,-0.011
6.953,-0.009
6.954,-0.011
6.955,-0.012
6.956,-0.014
6.957,-0.016
6.958,-0.014
6.959,-0.012
6.960,-0.008
6.961,-0.003
6.962,-0.002
6.963,0.000
6.964,-0.001
6.965,-0.003
6.966,-0.001
6.967,-0.003
6.968,0.000
6.969,0.006
6.970,0.007
6.971,0.009
6.972,0.009
6.973,0.009
6.974,0.008
6.975,0.006
6.976,0.009
6.977,0.009
6.978,0.006
6.979,0.006
6.980,0.003
6.981,0.003
6.982,0.009
6.983,0.012
6.984,0.016
6.985,0.016
6.986,0.017
6.987,0.019
6.988,0.022
6.989,0.019
6.990,0.019
6.991,0.022
6.992,0.024
6.993,0.022
6.994,0.025
6.995,0.025
6.996,0.024
6.997,0.025
6.998,0.022
6.999,0.022
7.000,0.022
7.001,0.025
7.002,0.028
7.003,0.034
7.004,0.037
7.005,0.044
7.006,0.046
7.007,0.044
7.008,0.043
7.009,0.041
7.010,0.037
7.011,0.034
7.012,0.037
7.013,0.041
7.014,0.042
7.015,0.047
7.016,0.044
7.017,0.047
7.018,0.050
7.019,0.050
7.020,0.044
7.021,0.044
7.022,0.044
7.023,0.044
7.024,0.043
7.025,0.041
7.026,0.042
7.027,0.037
7.028,0.036
7.029,0.034
7.030,0.037
7.031,0.034
7.032,0.031
7.033,0.031
7.034,0.028
7.035,0.028
7.036,0.029
7.037,0.031
7.038,0.031
7.039,0.031
7.040,0.030
7.041,0.025
7.042,0.022
7.043,0.019
7.044,0.014
7.045,0.012
7.046,0.012
7.047,0.009
7.048,0.009
7.049,0.009
7.050,0.009
7.051,0.009
7.052,0.009
7.053,0.009
7.054,0.009
7.055,0.006
7.056,0.003
7.057,-0.003
7.058,-0.004
7.059,-0.006
7.060,-0.008
7.061,-0.006
7.062,-0.005
7.063,-0.003
7.064,-0.003
7.065,-0.006
7.066,-0.006
7.067,-0.006
7.068,-0.006
7.069,-0.006
7.070,-0.006
7.071,-0.006
7.072,-0.011
7.073,-0.009
7.074,-0.008
7.075,-0.009
7.076,-0.009
7.077,-0.009
7.078,-0.012
7.079,-0.012
7.080,-0.014
7.081,-0.012
7.082,-0.012
7.083,-0.016
7.084,-0.012
7.085,-0.012
7.086,-0.016
7.087,-0.016
7.088,-0.012
7.089,-0.016
7.090,-0.017
7.091,-0.019
7.092,-0.016
7.093,-0.019
7.094,-0.019
7.095,-0.022
7.096,-0.021
7.097,-0.019
7.098,-0.018
7.099,-0.016
7.100,-0.016
7.101,-0.012
7.102,-0.011
7.103,-0.012
7.104,-0.012
7.105,-0.009
7.106,-0.012
7.107,-0.012
7.108,-0.012
7.109,-0.016
7.110,-0.014
7.111,-0.016
7.112,-0.017
7.113,-0.019
7.114,-0.021
7.115,-0.019
7.116,-0.021
7.117,-0.019
7.118,-0.017
7.119,-0.019
7.120,-0.022
7.121,-0.022
7.122,-0.023
7.123,-0.025
7.124,-0.026
7.125,-0.028
7.126,-0.026
7.127,-0.028
7.128,-0.030
7.129,-0.031
7.130,-0.030
7.131,-0.031
7.132,-0.033
7.133,-0.031
7.134,-0.027
7.135,-0.019
7.136,-0.019
7.137,-0.019
7.138,-0.019
7.139,-0.022
7.140,-0.022
7.141,-0.019
7.142,-0.022
7.143,-0.022
7.144,-0.019
7.145,-0.019
7.146,-0.019
7.147,-0.019
7.148,-0.018
7.149,-0.016
7.150,-0.016
7.151,-0.016
7.152,-0.018
7.153,-0.019
7.154,-0.019
7.155,-0.016
7.156,-0.019
7.157,-0.022
7.158,-0.022
7.159,-0.022
7.160,-0.023
7.161,-0.025
7.162,-0.025
7.163,-0.025
7.164,-0.024
7.165,-0.025
7.166,-0.025
7.167,-0.025
7.168,-0.022
7.169,-0.019
7.170,-0.021
7.171,-0.022
7.172,-0.022
7.173,-0.022
7.174,-0.019
7.175,-0.022
7.176,-0.023
7.177,-0.025
7.178,-0.022
7.179,-0.022
7.180,-0.025
7.181,-0.025
7.182,-0.026
7.183,-0.031
7.184,-0.031
7.185,-0.028
7.186,-0.034
7.187,-0.031
7.188,-0.031
7.189,-0.031
7.190,-0.031
7.191,-0.031
7.192,-0.030
7.193,-0.028
7.194,-0.030
7.195,-0.028
7.196,-0.031
7.197,-0.031
7.198,-0.031
7.199,-0.031
7.200,-0.033
7.201,-0.034
7.202,-0.033
7.203,-0.031
7.204,-0.034
7.205,-0.034
7.206,-0.037
7.207,-0.041
7.208,-0.042
7.209,-0.044
7.210,-0.044
7.211,-0.044
7.212,-0.043
7.213,-0.041
7.214,-0.042
7.215,-0.044
7.216,-0.046
7.217,-0.044
7.218,-0.039
7.219,-0.037
7.220,-0.039
7.221,-0.037
7.222,-0.036
7.223,-0.034
7.224,-0.037
7.225,-0.034
7.226,-0.039
7.227,-0.041
7.228,-0.044
7.229,-0.044
7.230,-0.043
7.231,-0.037
7.232,-0.036
7.233,-0.031
7.234,-0.034
7.235,-0.034
7.236,-0.039
7.237,-0.044
7.238,-0.047
7.239,-0.047
7.240,-0.047
7.241,-0.047
7.242,-0.044
7.243,-0.044
7.244,-0.047
7.245,-0.047
7.246,-0.050
7.247,-0.050
7.248,-0.048
7.249,-0.050
7.250,-0.050
7.251,-0.050
7.252,-0.049
7.253,-0.047
7.254,-0.051
7.255,-0.050
7.256,-0.051
7.257,-0.053
7.258,-0.050
7.259,-0.047
7.260,-0.043
7.261,-0.037
7.262,-0.037
7.263,-0.037
7.264,-0.037
7.265,-0.037
7.266,-0.042
7.267,-0.041
7.268,-0.041
7.269,-0.044
7.270,-0.045
7.271,-0.047
7.272,-0.043
7.273,-0.037
7.274,-0.039
7.275,-0.041
7.276,-0.044
7.277,-0.047
7.278,-0.047
7.279,-0.047
7.280,-0.050
7.281,-0.050
7.282,-0.048
7.283,-0.050
7.284,-0.050
7.285,-0.050
7.286,-0.049
7.287,-0.050
7.288,-0.047
7.289,-0.047
7.290,-0.043
7.291,-0.037
7.292,-0.042
7.293,-0.041
7.294,-0.044
7.295,-0.053
7.296,-0.053
7.297,-0.056
7.298,-0.054
7.299,-0.053
7.300,-0.053
7.301,-0.053
7.302,-0.053
7.303,-0.050
7.304,-0.051
7.305,-0.050
7.306,-0.049
7.307,-0.047
7.308,-0.051
7.309,-0.050
7.310,-0.047
7.311,-0.050
7.312,-0.047
7.313,-0.047
7.314,-0.049
7.315,-0.047
7.316,-0.050
7.317,-0.050
7.318,-0.048
7.319,-0.050
7.320,-0.054
7.321,-0.053
7.322,-0.052
7.323,-0.050
7.324,-0.053
7.325,-0.053
7.326,-0.051
7.327,-0.053
7.328,-0.052
7.329,-0.050
7.330,-0.047
7.331,-0.044
7.332,-0.042
7.333,-0.044
7.334,-0.047
7.335,-0.050
7.336,-0.053
7.337,-0.053
7.338,-0.044
7.339,-0.037
7.340,-0.041
7.341,-0.041
7.342,-0.039
7.343,-0.031
7.344,-0.022
7.345,-0.012
7.346,-0.005
7.347,0.003
7.348,0.006
7.349,0.012
7.350,0.016
7.351,0.019
7.352,0.021
7.353,0.025
7.354,0.026
7.355,0.034
7.356,0.041
7.357,0.044
7.358,0.041
7.359,0.044
7.360,0.039
7.361,0.037
7.362,0.034
7.363,0.031
7.364,0.028
7.365,0.028
7.366,0.028
7.367,0.028
7.368,0.028
7.369,0.031
7.370,0.036
7.371,0.044
7.372,0.047
7.373,0.050
7.374,0.050
7.375,0.053
7.376,0.058
7.377,0.056
7.378,0.061
7.379,0.062
7.380,0.072
7.381,0.078
7.382,0.086
7.383,0.091
7.384,0.095
7.385,0.094
7.386,0.092
7.387,0.091
7.388,0.084
7.389,0.081
7.390,0.077
7.391,0.069
7.392,0.066
7.393,0.062
7.394,0.058
7.395,0.053
7.396,0.047
7.397,0.041
7.398,0.039
7.399,0.034
7.400,0.031
7.401,0.031
7.402,0.019
7.403,0.012
7.404,0.008
7.405,0.003
7.406,-0.003
7.407,-0.006
7.408,-0.011
7.409,-0.019
7.410,-0.019
7.411,-0.019
7.412,-0.019
7.413,-0.022
7.414,-0.021
7.415,-0.019
7.416,-0.024
7.417,-0.022
7.418,-0.028
7.419,-0.034
7.420,-0.041
7.421,-0.044
7.422,-0.043
7.423,-0.044
7.424,-0.044
7.425,-0.050
7.426,-0.050
7.427,-0.053
7.428,-0.058
7.429,-0.066
7.430,-0.066
7.431,-0.066
7.432,-0.069
7.433,-0.072
7.434,-0.073
7.435,-0.075
7.436,-0.071
7.437,-0.072
7.438,-0.069
7.439,-0.069
7.440,-0.069
7.441,-0.069
7.442,-0.069
7.443,-0.069
7.444,-0.067
7.445,-0.069
7.446,-0.069
7.447,-0.069
7.448,-0.073
7.449,-0.075
7.450,-0.072
7.451,-0.069
7.452,-0.069
7.453,-0.069
7.454,-0.070
7.455,-0.072
7.456,-0.072
7.457,-0.072
7.458,-0.072
7.459,-0.072
7.460,-0.072
7.461,-0.072
7.462,-0.071
7.463,-0.069
7.464,-0.071
7.465,-0.072
7.466,-0.075
7.467,-0.075
7.468,-0.074
7.469,-0.075
7.470,-0.071
7.471,-0.072
7.472,-0.077
7.473,-0.081
7.474,-0.091
7.475,-0.097
7.476,-0.109
7.477,-0.113
7.478,-0.114
7.479,-0.113
7.480,-0.107
7.481,-0.097
7.482,-0.086
7.483,-0.069
7.484,-0.049
7.485,-0.022
7.486,-0.001
7.487,0.022
7.488,0.056
7.489,0.097
7.490,0.143
7.491,0.191
7.492,0.242
7.493,0.297
7.494,0.344
7.495,0.387
7.496,0.434
7.497,0.487
7.498,0.551
7.499,0.622
7.500,0.691
7.501,0.750
7.502,0.808
7.503,0.859
7.504,0.911
7.505,0.962
7.506,1.004
7.507,1.031
7.508,1.042
7.509,1.041
7.510,1.031
7.511,0.997
7.512,0.941
7.513,0.872
7.514,0.797
7.515,0.722
7.516,0.657
7.517,0.591
7.518,0.525
7.519,0.469
7.520,0.409
7.521,0.350
7.522,0.281
7.523,0.213
7.524,0.143
7.525,0.084
7.526,0.034
7.527,0.000
7.528,-0.020
7.529,-0.025
7.530,-0.025
7.531,-0.019
7.532,-0.016
7.533,-0.019
7.534,-0.034
7.535,-0.053
7.536,-0.073
7.537,-0.088
7.538,-0.097
7.539,-0.100
7.540,-0.102
7.541,-0.106
7.542,-0.106
7.543,-0.103
7.544,-0.103
7.545,-0.097
7.546,-0.091
7.547,-0.084
7.548,-0.081
7.549,-0.078
7.550,-0.078
7.551,-0.081
7.552,-0.078
7.553,-0.078
7.554,-0.074
7.555,-0.069
7.556,-0.066
7.557,-0.063
7.558,-0.056
7.559,-0.053
7.560,-0.059
7.561,-0.063
7.562,-0.061
7.563,-0.063
7.564,-0.066
7.565,-0.069
7.566,-0.072
7.567,-0.072
7.568,-0.071
7.569,-0.072
7.570,-0.070
7.571,-0.072
7.572,-0.072
7.573,-0.072
7.574,-0.070
7.575,-0.072
7.576,-0.072
7.577,-0.075
7.578,-0.078
7.579,-0.078
7.580,-0.081
7.581,-0.081
7.582,-0.078
7.583,-0.078
7.584,-0.078
7.585,-0.075
7.586,-0.076
7.587,-0.078
7.588,-0.076
7.589,-0.078
7.590,-0.078
7.591,-0.078
7.592,-0.077
7.593,-0.072
7.594,-0.075
7.595,-0.075
7.596,-0.078
7.597,-0.078
7.598,-0.078
7.599,-0.075
7.600,-0.078
7.601,-0.078
7.602,-0.078
7.603,-0.078
7.604,-0.078
7.605,-0.078
7.606,-0.079
7.607,-0.081
7.608,-0.081
7.609,-0.081
7.610,-0.075
7.611,-0.069
7.612,-0.072
7.613,-0.072
7.614,-0.072
7.615,-0.072
7.616,-0.071
7.617,-0.069
7.618,-0.072
7.619,-0.078
7.620,-0.086
7.621,-0.088
7.622,-0.088
7.623,-0.088
7.624,-0.089
7.625,-0.088
7.626,-0.081
7.627,-0.075
7.628,-0.076
7.629,-0.078
7.630,-0.075
7.631,-0.075
7.632,-0.073
7.633,-0.078
7.634,-0.079
7.635,-0.081
7.636,-0.080
7.637,-0.075
7.638,-0.081
7.639,-0.081
7.640,-0.076
7.641,-0.078
7.642,-0.077
7.643,-0.075
7.644,-0.078
7.645,-0.078
7.646,-0.072
7.647,-0.072
7.648,-0.073
7.649,-0.075
7.650,-0.072
7.651,-0.075
7.652,-0.073
7.653,-0.075
7.654,-0.077
7.655,-0.072
7.656,-0.072
7.657,-0.072
7.658,-0.072
7.659,-0.072
7.660,-0.072
7.661,-0.072
7.662,-0.071
7.663,-0.069
7.664,-0.066
7.665,-0.066
7.666,-0.067
7.667,-0.069
7.668,-0.070
7.669,-0.069
7.670,-0.072
7.671,-0.069
7.672,-0.072
7.673,-0.072
7.674,-0.069
7.675,-0.069
7.676,-0.072
7.677,-0.066
7.678,-0.061
7.679,-0.056
7.680,-0.059
7.681,-0.059
7.682,-0.061
7.683,-0.063
7.684,-0.063
7.685,-0.063
7.686,-0.063
7.687,-0.063
7.688,-0.063
7.689,-0.063
7.690,-0.063
7.691,-0.063
7.692,-0.058
7.693,-0.056
7.694,-0.056
7.695,-0.056
7.696,-0.058
7.697,-0.056
7.698,-0.055
7.699,-0.053
7.700,-0.050
7.701,-0.050
7.702,-0.049
7.703,-0.050
7.704,-0.051
7.705,-0.050
7.706,-0.050
7.707,-0.050
7.708,-0.048
7.709,-0.050
7.710,-0.050
7.711,-0.050
7.712,-0.050
7.713,-0.050
7.714,-0.047
7.715,-0.044
7.716,-0.042
7.717,-0.041
7.718,-0.041
7.719,-0.041
7.720,-0.041
7.721,-0.041
7.722,-0.039
7.723,-0.041
7.724,-0.039
7.725,-0.037
7.726,-0.036
7.727,-0.037
7.728,-0.042
7.729,-0.044
7.730,-0.043
7.731,-0.041
7.732,-0.039
7.733,-0.041
7.734,-0.039
7.735,-0.037
7.736,-0.037
7.737,-0.037
7.738,-0.036
7.739,-0.034
7.740,-0.034
7.741,-0.031
7.742,-0.031
7.743,-0.031
7.744,-0.031
7.745,-0.034
7.746,-0.034
7.747,-0.034
7.748,-0.034
7.749,-0.031
7.750,-0.030
7.751,-0.028
7.752,-0.028
7.753,-0.028
7.754,-0.028
7.755,-0.028
7.756,-0.028
7.757,-0.028
7.758,-0.028
7.759,-0.028
7.760,-0.026
7.761,-0.028
7.762,-0.028
7.763,-0.028
7.764,-0.028
7.765,-0.028
7.766,-0.022
7.767,-0.019
7.768,-0.018
7.769,-0.016
7.770,-0.012
7.771,-0.016
7.772,-0.016
7.773,-0.016
7.774,-0.011
7.775,-0.012
7.776,-0.011
7.777,-0.006
7.778,-0.008
7.779,-0.009
7.780,-0.012
7.781,-0.016
7.782,-0.016
7.783,-0.016
7.784,-0.016
7.785,-0.016
7.786,-0.012
7.787,-0.012
7.788,-0.012
7.789,-0.009
7.790,-0.009
7.791,-0.009
7.792,-0.009
7.793,-0.006
7.794,-0.003
7.795,0.000
7.796,0.000
7.797,0.000
7.798,-0.001
7.799,-0.003
7.800,-0.004
7.801,-0.006
7.802,-0.008
7.803,-0.009
7.804,-0.008
7.805,-0.006
7.806,-0.003
7.807,-0.003
7.808,-0.002
7.809,0.003
7.810,0.000
7.811,-0.003
7.812,-0.003
7.813,-0.003
7.814,-0.003
7.815,-0.003
7.816,-0.001
7.817,-0.003
7.818,-0.002
7.819,0.003
7.820,0.003
7.821,0.006
7.822,0.009
7.823,0.009
7.824,0.012
7.825,0.012
7.826,0.016
7.827,0.019
7.828,0.026
7.829,0.028
7.830,0.025
7.831,0.025
7.832,0.028
7.833,0.028
7.834,0.031
7.835,0.031
7.836,0.030
7.837,0.031
7.838,0.034
7.839,0.041
7.840,0.039
7.841,0.041
7.842,0.039
7.843,0.041
7.844,0.037
7.845,0.037
7.846,0.041
7.847,0.041
7.848,0.044
7.849,0.047
7.850,0.047
7.851,0.047
7.852,0.046
7.853,0.044
7.854,0.044
7.855,0.047
7.856,0.043
7.857,0.044
7.858,0.048
7.859,0.050
7.860,0.045
7.861,0.047
7.862,0.046
7.863,0.044
7.864,0.044
7.865,0.044
7.866,0.044
7.867,0.037
7.868,0.036
7.869,0.034
7.870,0.041
7.871,0.041
7.872,0.039
7.873,0.041
7.874,0.034
7.875,0.031
7.876,0.031
7.877,0.031
7.878,0.028
7.879,0.025
7.880,0.025
7.881,0.022
7.882,0.023
7.883,0.025
7.884,0.021
7.885,0.019
7.886,0.019
7.887,0.016
7.888,0.012
7.889,0.009
7.890,0.009
7.891,0.009
7.892,0.011
7.893,0.012
7.894,0.014
7.895,0.012
7.896,0.009
7.897,0.003
7.898,0.004
7.899,0.006
7.900,0.003
7.901,0.003
7.902,0.003
7.903,0.003
7.904,0.003
7.905,0.000
7.906,-0.004
7.907,-0.009
7.908,-0.009
7.909,-0.009
7.910,-0.009
7.911,-0.009
7.912,-0.011
7.913,-0.006
7.914,-0.002
7.915,0.000
7.916,-0.001
7.917,-0.003
7.918,-0.009
7.919,-0.012
7.920,-0.014
7.921,-0.012
7.922,-0.012
7.923,-0.016
7.924,-0.012
7.925,-0.012
7.926,-0.016
7.927,-0.016
7.928,-0.012
7.929,-0.016
7.930,-0.017
7.931,-0.019
7.932,-0.014
7.933,-0.016
7.934,-0.012
7.935,-0.012
7.936,-0.011
7.937,-0.009
7.938,-0.011
7.939,-0.012
7.940,-0.014
7.941,-0.012
7.942,-0.012
7.943,-0.016
7.944,-0.012
7.945,-0.006
7.946,-0.006
7.947,-0.003
7.948,-0.004
7.949,-0.009
7.950,-0.009
7.951,-0.012
7.952,-0.011
7.953,-0.009
7.954,-0.012
7.955,-0.012
7.956,-0.016
7.957,-0.016
7.958,-0.012
7.959,-0.012
7.960,-0.016
7.961,-0.016
7.962,-0.016
7.963,-0.016
7.964,-0.017
7.965,-0.019
7.966,-0.016
7.967,-0.016
7.968,-0.018
7.969,-0.019
7.970,-0.019
7.971,-0.022
7.972,-0.022
7.973,-0.019
7.974,-0.022
7.975,-0.022
7.976,-0.021
7.977,-0.019
7.978,-0.018
7.979,-0.019
7.980,-0.019
7.981,-0.016
7.982,-0.019
7.983,-0.019
7.984,-0.016
7.985,-0.016
7.986,-0.016
7.987,-0.016
7.988,-0.016
7.989,-0.016
7.990,-0.016
7.991,-0.016
7.992,-0.019
7.993,-0.022
7.994,-0.023
7.995,-0.022
7.996,-0.024
7.997,-0.025
7.998,-0.022
7.999,-0.019
8.000,-0.019
8.001,-0.019
8.002,-0.020
8.003,-0.022
8.004,-0.022
8.005,-0.025
8.006,-0.025
8.007,-0.025
8.008,-0.025
8.009,-0.025
8.010,-0.027
8.011,-0.028
8.012,-0.029
8.013,-0.031
8.014,-0.028
8.015,-0.031
8.016,-0.028
8.017,-0.025
8.018,-0.023
8.019,-0.025
8.020,-0.029
8.021,-0.031
8.022,-0.028
8.023,-0.028
8.024,-0.028
8.025,-0.025
8.026,-0.033
8.027,-0.031
8.028,-0.031
8.029,-0.031
8.030,-0.031
8.031,-0.031
8.032,-0.031
8.033,-0.031
8.034,-0.034
8.035,-0.034
8.036,-0.036
8.037,-0.034
8.038,-0.034
8.039,-0.034
8.040,-0.034
8.041,-0.034
8.042,-0.033
8.043,-0.031
8.044,-0.034
8.045,-0.034
8.046,-0.034
8.047,-0.034
8.048,-0.036
8.049,-0.037
8.050,-0.036
8.051,-0.034
8.052,-0.034
8.053,-0.034
8.054,-0.039
8.055,-0.044
8.056,-0.046
8.057,-0.044
8.058,-0.039
8.059,-0.037
8.060,-0.041
8.061,-0.041
8.062,-0.041
8.063,-0.041
8.064,-0.044
8.065,-0.041
8.066,-0.041
8.067,-0.037
8.068,-0.039
8.069,-0.037
8.070,-0.042
8.071,-0.044
8.072,-0.047
8.073,-0.047
8.074,-0.051
8.075,-0.053
8.076,-0.053
8.077,-0.053
8.078,-0.055
8.079,-0.053
8.080,-0.050
8.081,-0.047
8.082,-0.044
8.083,-0.044
8.084,-0.046
8.085,-0.044
8.086,-0.047
8.087,-0.047
8.088,-0.044
8.089,-0.044
8.090,-0.043
8.091,-0.041
8.092,-0.044
8.093,-0.047
8.094,-0.051
8.095,-0.050
8.096,-0.050
8.097,-0.050
8.098,-0.050
8.099,-0.050
8.100,-0.050
8.101,-0.050
8.102,-0.050
8.103,-0.050
8.104,-0.051
8.105,-0.050
8.106,-0.051
8.107,-0.053
8.108,-0.056
8.109,-0.059
8.110,-0.061
8.111,-0.063
8.112,-0.059
8.113,-0.056
8.114,-0.058
8.115,-0.063
8.116,-0.064
8.117,-0.063
8.118,-0.063
8.119,-0.063
8.120,-0.059
8.121,-0.056
8.122,-0.058
8.123,-0.053
8.124,-0.053
8.125,-0.053
8.126,-0.052
8.127,-0.053
8.128,-0.050
8.129,-0.050
8.130,-0.053
8.131,-0.050
8.132,-0.054
8.133,-0.053
8.134,-0.054
8.135,-0.059
8.136,-0.061
8.137,-0.066
8.138,-0.067
8.139,-0.069
8.140,-0.061
8.141,-0.056
8.142,-0.053
8.143,-0.053
8.144,-0.051
8.145,-0.050
8.146,-0.053
8.147,-0.050
8.148,-0.047
8.149,-0.047
8.150,-0.046
8.151,-0.047
8.152,-0.050
8.153,-0.050
8.154,-0.051
8.155,-0.056
8.156,-0.054
8.157,-0.056
8.158,-0.055
8.159,-0.056
8.160,-0.056
8.161,-0.053
8.162,-0.053
8.163,-0.053
8.164,-0.056
8.165,-0.059
8.166,-0.063
8.167,-0.063
8.168,-0.063
8.169,-0.063
8.170,-0.063
8.171,-0.063
8.172,-0.061
8.173,-0.059
8.174,-0.059
8.175,-0.056
8.176,-0.053
8.177,-0.053
8.178,-0.045
8.179,-0.041
8.180,-0.031
8.181,-0.025
8.182,-0.021
8.183,-0.019
8.184,-0.016
8.185,-0.012
8.186,-0.008
8.187,-0.003
8.188,0.004
8.189,0.006
8.190,0.016
8.191,0.022
8.192,0.022
8.193,0.019
8.194,0.021
8.195,0.016
8.196,0.017
8.197,0.019
8.198,0.019
8.199,0.019
8.200,0.021
8.201,0.019
8.202,0.016
8.203,0.016
8.204,0.026
8.205,0.031
8.206,0.037
8.207,0.044
8.208,0.050
8.209,0.053
8.210,0.049
8.211,0.047
8.212,0.044
8.213,0.044
8.214,0.045
8.215,0.053
8.216,0.061
8.217,0.072
8.218,0.076
8.219,0.081
8.220,0.077
8.221,0.072
8.222,0.070
8.223,0.066
8.224,0.059
8.225,0.053
8.226,0.050
8.227,0.047
8.228,0.041
8.229,0.037
8.230,0.037
8.231,0.037
8.232,0.031
8.233,0.025
8.234,0.019
8.235,0.012
8.236,0.009
8.237,0.000
8.238,-0.004
8.239,-0.009
8.240,-0.009
8.241,-0.012
8.242,-0.020
8.243,-0.028
8.244,-0.037
8.245,-0.041
8.246,-0.036
8.247,-0.031
8.248,-0.034
8.249,-0.034
8.250,-0.034
8.251,-0.041
8.252,-0.039
8.253,-0.044
8.254,-0.047
8.255,-0.047
8.256,-0.047
8.257,-0.047
8.258,-0.053
8.259,-0.056
8.260,-0.066
8.261,-0.069
8.262,-0.071
8.263,-0.069
8.264,-0.075
8.265,-0.078
8.266,-0.078
8.267,-0.081
8.268,-0.083
8.269,-0.081
8.270,-0.081
8.271,-0.078
8.272,-0.082
8.273,-0.081
8.274,-0.081
8.275,-0.081
8.276,-0.077
8.277,-0.072
8.278,-0.072
8.279,-0.072
8.280,-0.078
8.281,-0.081
8.282,-0.077
8.283,-0.075
8.284,-0.076
8.285,-0.075
8.286,-0.073
8.287,-0.075
8.288,-0.075
8.289,-0.075
8.290,-0.076
8.291,-0.078
8.292,-0.077
8.293,-0.075
8.294,-0.075
8.295,-0.075
8.296,-0.078
8.297,-0.081
8.298,-0.080
8.299,-0.081
8.300,-0.084
8.301,-0.088
8.302,-0.086
8.303,-0.084
8.304,-0.086
8.305,-0.084
8.306,-0.094
8.307,-0.103
8.308,-0.108
8.309,-0.116
8.310,-0.122
8.311,-0.131
8.312,-0.133
8.313,-0.131
8.314,-0.128
8.315,-0.125
8.316,-0.113
8.317,-0.103
8.318,-0.083
8.319,-0.059
8.320,-0.039
8.321,-0.016
8.322,0.011
8.323,0.041
8.324,0.080
8.325,0.125
8.326,0.176
8.327,0.228
8.328,0.280
8.329,0.325
8.330,0.370
8.331,0.419
8.332,0.475
8.333,0.538
8.334,0.608
8.335,0.681
8.336,0.737
8.337,0.794
8.338,0.846
8.339,0.891
8.340,0.942
8.341,0.984
8.342,1.009
8.343,1.019
8.344,1.022
8.345,1.016
8.346,0.976
8.347,0.919
8.348,0.853
8.349,0.784
8.350,0.709
8.351,0.644
8.352,0.581
8.353,0.519
8.354,0.455
8.355,0.387
8.356,0.326
8.357,0.262
8.358,0.197
8.359,0.131
8.360,0.074
8.361,0.022
8.362,-0.014
8.363,-0.037
8.364,-0.042
8.365,-0.044
8.366,-0.037
8.367,-0.037
8.368,-0.044
8.369,-0.053
8.370,-0.066
8.371,-0.081
8.372,-0.092
8.373,-0.103
8.374,-0.107
8.375,-0.113
8.376,-0.120
8.377,-0.122
8.378,-0.120
8.379,-0.122
8.380,-0.117
8.381,-0.113
8.382,-0.107
8.383,-0.106
8.384,-0.100
8.385,-0.094
8.386,-0.092
8.387,-0.081
8.388,-0.076
8.389,-0.075
8.390,-0.072
8.391,-0.072
8.392,-0.073
8.393,-0.072
8.394,-0.069
8.395,-0.069
8.396,-0.069
8.397,-0.069
8.398,-0.073
8.399,-0.078
8.400,-0.084
8.401,-0.091
8.402,-0.091
8.403,-0.091
8.404,-0.092
8.405,-0.088
8.406,-0.084
8.407,-0.081
8.408,-0.078
8.409,-0.072
8.410,-0.072
8.411,-0.069
8.412,-0.067
8.413,-0.069
8.414,-0.072
8.415,-0.078
8.416,-0.079
8.417,-0.081
8.418,-0.084
8.419,-0.084
8.420,-0.081
8.421,-0.081
8.422,-0.080
8.423,-0.075
8.424,-0.075
8.425,-0.075
8.426,-0.079
8.427,-0.084
8.428,-0.080
8.429,-0.081
8.430,-0.080
8.431,-0.081
8.432,-0.081
8.433,-0.081
8.434,-0.078
8.435,-0.081
8.436,-0.081
8.437,-0.081
8.438,-0.080
8.439,-0.078
8.440,-0.078
8.441,-0.078
8.442,-0.077
8.443,-0.075
8.444,-0.078
8.445,-0.078
8.446,-0.076
8.447,-0.081
8.448,-0.081
8.449,-0.081
8.450,-0.081
8.451,-0.081
8.452,-0.081
8.453,-0.081
8.454,-0.086
8.455,-0.091
8.456,-0.083
8.457,-0.078
8.458,-0.078
8.459,-0.078
8.460,-0.076
8.461,-0.078
8.462,-0.079
8.463,-0.081
8.464,-0.078
8.465,-0.075
8.466,-0.081
8.467,-0.081
8.468,-0.083
8.469,-0.081
8.470,-0.080
8.471,-0.078
8.472,-0.074
8.473,-0.075
8.474,-0.073
8.475,-0.069
8.476,-0.069
8.477,-0.069
8.478,-0.067
8.479,-0.069
8.480,-0.073
8.481,-0.075
8.482,-0.078
8.483,-0.078
8.484,-0.078
8.485,-0.075
8.486,-0.079
8.487,-0.078
8.488,-0.077
8.489,-0.078
8.490,-0.074
8.491,-0.072
8.492,-0.072
8.493,-0.072
8.494,-0.073
8.495,-0.075
8.496,-0.074
8.497,-0.072
8.498,-0.073
8.499,-0.072
8.500,-0.072
8.501,-0.072
8.502,-0.072
8.503,-0.072
8.504,-0.069
8.505,-0.072
8.506,-0.069
8.507,-0.072
8.508,-0.072
8.509,-0.069
8.510,-0.069
8.511,-0.072
8.512,-0.069
8.513,-0.072
8.514,-0.071
8.515,-0.069
8.516,-0.066
8.517,-0.066
8.518,-0.066
8.519,-0.066
8.520,-0.066
8.521,-0.066
8.522,-0.066
8.523,-0.066
8.524,-0.061
8.525,-0.056
8.526,-0.055
8.527,-0.050
8.528,-0.051
8.529,-0.053
8.530,-0.054
8.531,-0.056
8.532,-0.054
8.533,-0.056
8.534,-0.055
8.535,-0.050
8.536,-0.050
8.537,-0.050
8.538,-0.053
8.539,-0.053
8.540,-0.053
8.541,-0.056
8.542,-0.056
8.543,-0.053
8.544,-0.053
8.545,-0.053
8.546,-0.052
8.547,-0.050
8.548,-0.050
8.549,-0.050
8.550,-0.050
8.551,-0.047
8.552,-0.044
8.553,-0.044
8.554,-0.043
8.555,-0.041
8.556,-0.042
8.557,-0.041
8.558,-0.042
8.559,-0.044
8.560,-0.041
8.561,-0.034
8.562,-0.036
8.563,-0.037
8.564,-0.036
8.565,-0.037
8.566,-0.036
8.567,-0.031
8.568,-0.030
8.569,-0.028
8.570,-0.028
8.571,-0.028
8.572,-0.028
8.573,-0.028
8.574,-0.028
8.575,-0.028
8.576,-0.026
8.577,-0.028
8.578,-0.029
8.579,-0.028
8.580,-0.027
8.581,-0.025
8.582,-0.025
8.583,-0.025
8.584,-0.023
8.585,-0.025
8.586,-0.026
8.587,-0.028
8.588,-0.027
8.589,-0.025
8.590,-0.022
8.591,-0.019
8.592,-0.022
8.593,-0.025
8.594,-0.024
8.595,-0.019
8.596,-0.020
8.597,-0.022
8.598,-0.023
8.599,-0.025
8.600,-0.022
8.601,-0.016
8.602,-0.014
8.603,-0.012
8.604,-0.016
8.605,-0.016
8.606,-0.019
8.607,-0.019
8.608,-0.019
8.609,-0.016
8.610,-0.019
8.611,-0.019
8.612,-0.014
8.613,-0.012
8.614,-0.012
8.615,-0.012
8.616,-0.012
8.617,-0.012
8.618,-0.014
8.619,-0.016
8.620,-0.014
8.621,-0.009
8.622,-0.008
8.623,-0.006
8.624,-0.003
8.625,-0.003
8.626,-0.004
8.627,-0.006
8.628,-0.003
8.629,-0.003
8.630,-0.003
8.631,-0.003
8.632,-0.004
8.633,-0.006
8.634,-0.008
8.635,-0.009
8.636,-0.009
8.637,-0.009
8.638,-0.005
8.639,0.000
8.640,0.000
8.641,0.003
8.642,0.002
8.643,0.000
8.644,0.002
8.645,0.000
8.646,-0.003
8.647,-0.006
8.648,-0.003
8.649,0.000
8.650,-0.001
8.651,0.000
8.652,0.003
8.653,0.006
8.654,0.009
8.655,0.009
8.656,0.009
8.657,0.009
8.658,0.008
8.659,0.009
8.660,0.009
8.661,0.009
8.662,0.009
8.663,0.016
8.664,0.017
8.665,0.019
8.666,0.021
8.667,0.022
8.668,0.023
8.669,0.028
8.670,0.031
8.671,0.034
8.672,0.041
8.673,0.044
8.674,0.047
8.675,0.047
8.676,0.051
8.677,0.053
8.678,0.056
8.679,0.056
8.680,0.056
8.681,0.056
8.682,0.056
8.683,0.056
8.684,0.056
8.685,0.056
8.686,0.055
8.687,0.053
8.688,0.053
8.689,0.053
8.690,0.058
8.691,0.056
8.692,0.056
8.693,0.056
8.694,0.056
8.695,0.050
8.696,0.050
8.697,0.050
8.698,0.051
8.699,0.053
8.700,0.056
8.701,0.059
8.702,0.053
8.703,0.053
8.704,0.049
8.705,0.047
8.706,0.047
8.707,0.047
8.708,0.048
8.709,0.047
8.710,0.043
8.711,0.037
8.712,0.037
8.713,0.034
8.714,0.033
8.715,0.034
8.716,0.031
8.717,0.031
8.718,0.031
8.719,0.028
8.720,0.028
8.721,0.028
8.722,0.024
8.723,0.019
8.724,0.019
8.725,0.022
8.726,0.021
8.727,0.019
8.728,0.022
8.729,0.025
8.730,0.022
8.731,0.022
8.732,0.018
8.733,0.016
8.734,0.016
8.735,0.012
8.736,0.012
8.737,0.012
8.738,0.011
8.739,0.009
8.740,0.002
8.741,-0.003
8.742,-0.002
8.743,0.000
8.744,0.000
8.745,0.000
8.746,0.001
8.747,0.000
8.748,0.006
8.749,0.009
8.750,0.006
8.751,0.006
8.752,0.007
8.753,0.006
8.754,0.006
8.755,0.006
8.756,0.009
8.757,0.009
8.758,0.006
8.759,0.009
8.760,0.011
8.761,0.009
8.762,0.005
8.763,0.003
8.764,0.000
8.765,0.000
8.766,0.000
8.767,0.003
8.768,0.000
8.769,0.003
8.770,0.003
8.771,0.003
8.772,0.003
8.773,0.000
8.774,-0.006
8.775,-0.009
8.776,-0.005
8.777,-0.003
8.778,-0.005
8.779,-0.003
8.780,0.000
8.781,0.000
8.782,0.003
8.783,0.003
8.784,0.001
8.785,0.006
8.786,0.006
8.787,0.006
8.788,0.006
8.789,0.003
8.790,0.004
8.791,0.003
8.792,0.002
8.793,0.003
8.794,0.006
8.795,0.006
8.796,0.006
8.797,0.006
8.798,0.006
8.799,0.006
8.800,0.005
8.801,0.006
8.802,0.007
8.803,0.006
8.804,0.003
8.805,0.003
8.806,0.000
8.807,0.000
8.808,0.000
8.809,-0.003
8.810,0.000
8.811,0.000
8.812,0.001
8.813,0.003
8.814,-0.001
8.815,-0.003
8.816,-0.001
8.817,-0.006
8.818,-0.009
8.819,-0.009
8.820,-0.009
8.821,-0.009
8.822,-0.005
8.823,0.000
8.824,0.000
8.825,0.000
8.826,0.001
8.827,0.000
8.828,-0.003
8.829,-0.003
8.830,-0.001
8.831,-0.006
8.832,-0.008
8.833,-0.003
8.834,0.000
8.835,0.000
8.836,0.000
8.837,0.000
8.838,-0.001
8.839,-0.003
8.840,-0.008
8.841,-0.009
8.842,-0.009
8.843,-0.009
8.844,-0.008
8.845,-0.009
8.846,-0.014
8.847,-0.016
8.848,-0.016
8.849,-0.012
8.850,-0.016
8.851,-0.016
8.852,-0.017
8.853,-0.016
8.854,-0.014
8.855,-0.016
8.856,-0.014
8.857,-0.012
8.858,-0.016
8.859,-0.016
8.860,-0.011
8.861,-0.016
8.862,-0.014
8.863,-0.016
8.864,-0.014
8.865,-0.012
8.866,-0.012
8.867,-0.012
8.868,-0.011
8.869,-0.012
8.870,-0.016
8.871,-0.022
8.872,-0.023
8.873,-0.025
8.874,-0.025
8.875,-0.025
8.876,-0.022
8.877,-0.019
8.878,-0.020
8.879,-0.025
8.880,-0.026
8.881,-0.028
8.882,-0.028
8.883,-0.028
8.884,-0.028
8.885,-0.028
8.886,-0.028
8.887,-0.028
8.888,-0.028
8.889,-0.028
8.890,-0.027
8.891,-0.028
8.892,-0.029
8.893,-0.028
8.894,-0.028
8.895,-0.028
8.896,-0.029
8.897,-0.031
8.898,-0.031
8.899,-0.031
8.900,-0.031
8.901,-0.031
8.902,-0.031
8.903,-0.031
8.904,-0.031
8.905,-0.034
8.906,-0.036
8.907,-0.034
8.908,-0.034
8.909,-0.034
8.910,-0.033
8.911,-0.031
8.912,-0.036
8.913,-0.034
8.914,-0.031
8.915,-0.028
8.916,-0.028
8.917,-0.031
8.918,-0.033
8.919,-0.037
8.920,-0.044
8.921,-0.044
8.922,-0.044
8.923,-0.037
8.924,-0.036
8.925,-0.037
8.926,-0.034
8.927,-0.034
8.928,-0.034
8.929,-0.034
8.930,-0.033
8.931,-0.034
8.932,-0.034
8.933,-0.037
8.934,-0.036
8.935,-0.034
8.936,-0.037
8.937,-0.034
8.938,-0.033
8.939,-0.034
8.940,-0.033
8.941,-0.034
8.942,-0.036
8.943,-0.034
8.944,-0.036
8.945,-0.041
8.946,-0.037
8.947,-0.037
8.948,-0.034
8.949,-0.034
8.950,-0.034
8.951,-0.031
8.952,-0.031
8.953,-0.031
8.954,-0.033
8.955,-0.034
8.956,-0.034
8.957,-0.031
8.958,-0.027
8.959,-0.022
8.960,-0.021
8.961,-0.019
8.962,-0.019
8.963,-0.019
8.964,-0.016
8.965,-0.009
8.966,-0.003
8.967,0.000
8.968,0.008
8.969,0.012
8.970,0.019
8.971,0.022
8.972,0.024
8.973,0.022
8.974,0.025
8.975,0.028
8.976,0.028
8.977,0.028
8.978,0.031
8.979,0.028
8.980,0.030
8.981,0.028
8.982,0.029
8.983,0.028
8.984,0.033
8.985,0.031
8.986,0.031
8.987,0.031
8.988,0.034
8.989,0.037
8.990,0.044
8.991,0.047
8.992,0.051
8.993,0.059
8.994,0.064
8.995,0.062
8.996,0.059
8.997,0.056
8.998,0.058
8.999,0.056
9.000,0.058
9.001,0.062
9.002,0.064
9.003,0.069
9.004,0.069
9.005,0.075
9.006,0.074
9.007,0.075
9.008,0.078
9.009,0.081
9.010,0.077
9.011,0.072
9.012,0.069
9.013,0.062
9.014,0.059
9.015,0.056
9.016,0.050
9.017,0.044
9.018,0.036
9.019,0.031
9.020,0.031
9.021,0.031
9.022,0.031
9.023,0.031
9.024,0.028
9.025,0.025
9.026,0.022
9.027,0.012
9.028,0.005
9.029,-0.003
9.030,-0.005
9.031,-0.009
9.032,-0.009
9.033,-0.009
9.034,-0.016
9.035,-0.016
9.036,-0.020
9.037,-0.025
9.038,-0.027
9.039,-0.025
9.040,-0.024
9.041,-0.028
9.042,-0.027
9.043,-0.031
9.044,-0.036
9.045,-0.037
9.046,-0.041
9.047,-0.044
9.048,-0.050
9.049,-0.053
9.050,-0.058
9.051,-0.056
9.052,-0.061
9.053,-0.063
9.054,-0.064
9.055,-0.063
9.056,-0.059
9.057,-0.059
9.058,-0.059
9.059,-0.056
9.060,-0.056
9.061,-0.053
9.062,-0.055
9.063,-0.050
9.064,-0.051
9.065,-0.053
9.066,-0.054
9.067,-0.056
9.068,-0.058
9.069,-0.059
9.070,-0.063
9.071,-0.063
9.072,-0.063
9.073,-0.066
9.074,-0.069
9.075,-0.069
9.076,-0.063
9.077,-0.059
9.078,-0.058
9.079,-0.056
9.080,-0.056
9.081,-0.056
9.082,-0.056
9.083,-0.056
9.084,-0.056
9.085,-0.056
9.086,-0.055
9.087,-0.053
9.088,-0.050
9.089,-0.050
9.090,-0.052
9.091,-0.053
9.092,-0.054
9.093,-0.056
9.094,-0.061
9.095,-0.063
9.096,-0.069
9.097,-0.075
9.098,-0.080
9.099,-0.088
9.100,-0.097
9.101,-0.109
9.102,-0.113
9.103,-0.113
9.104,-0.107
9.105,-0.103
9.106,-0.089
9.107,-0.078
9.108,-0.067
9.109,-0.053
9.110,-0.029
9.111,-0.003
9.112,0.027
9.113,0.059
9.114,0.104
9.115,0.156
9.116,0.205
9.117,0.253
9.118,0.309
9.119,0.359
9.120,0.403
9.121,0.450
9.122,0.506
9.123,0.569
9.124,0.633
9.125,0.700
9.126,0.752
9.127,0.803
9.128,0.849
9.129,0.888
9.130,0.936
9.131,0.975
9.132,1.004
9.133,1.019
9.134,1.013
9.135,0.997
9.136,0.953
9.137,0.891
9.138,0.816
9.139,0.737
9.140,0.659
9.141,0.591
9.142,0.525
9.143,0.459
9.144,0.399
9.145,0.334
9.146,0.276
9.147,0.216
9.148,0.158
9.149,0.100
9.150,0.048
9.151,0.003
9.152,-0.029
9.153,-0.050
9.154,-0.058
9.155,-0.063
9.156,-0.055
9.157,-0.053
9.158,-0.056
9.159,-0.063
9.160,-0.074
9.161,-0.088
9.162,-0.096
9.163,-0.103
9.164,-0.105
9.165,-0.106
9.166,-0.113
9.167,-0.113
9.168,-0.113
9.169,-0.116
9.170,-0.114
9.171,-0.113
9.172,-0.107
9.173,-0.106
9.174,-0.099
9.175,-0.091
9.176,-0.092
9.177,-0.084
9.178,-0.077
9.179,-0.072
9.180,-0.067
9.181,-0.066
9.182,-0.063
9.183,-0.056
9.184,-0.053
9.185,-0.053
9.186,-0.052
9.187,-0.050
9.188,-0.053
9.189,-0.056
9.190,-0.064
9.191,-0.072
9.192,-0.076
9.193,-0.081
9.194,-0.084
9.195,-0.081
9.196,-0.080
9.197,-0.078
9.198,-0.078
9.199,-0.075
9.200,-0.075
9.201,-0.072
9.202,-0.073
9.203,-0.078
9.204,-0.077
9.205,-0.078
9.206,-0.078
9.207,-0.078
9.208,-0.082
9.209,-0.084
9.210,-0.082
9.211,-0.084
9.212,-0.081
9.213,-0.075
9.214,-0.071
9.215,-0.066
9.216,-0.063
9.217,-0.059
9.218,-0.059
9.219,-0.066
9.220,-0.067
9.221,-0.072
9.222,-0.073
9.223,-0.075
9.224,-0.073
9.225,-0.078
9.226,-0.077
9.227,-0.075
9.228,-0.075
9.229,-0.075
9.230,-0.074
9.231,-0.072
9.232,-0.072
9.233,-0.072
9.234,-0.072
9.235,-0.069
9.236,-0.064
9.237,-0.066
9.238,-0.067
9.239,-0.069
9.240,-0.067
9.241,-0.066
9.242,-0.067
9.243,-0.069
9.244,-0.071
9.245,-0.072
9.246,-0.070
9.247,-0.072
9.248,-0.072
9.249,-0.072
9.250,-0.070
9.251,-0.072
9.252,-0.072
9.253,-0.072
9.254,-0.069
9.255,-0.066
9.256,-0.070
9.257,-0.069
9.258,-0.072
9.259,-0.072
9.260,-0.071
9.261,-0.069
9.262,-0.064
9.263,-0.066
9.264,-0.067
9.265,-0.066
9.266,-0.066
9.267,-0.066
9.268,-0.064
9.269,-0.066
9.270,-0.067
9.271,-0.066
9.272,-0.067
9.273,-0.066
9.274,-0.067
9.275,-0.066
9.276,-0.067
9.277,-0.063
9.278,-0.061
9.279,-0.063
9.280,-0.063
9.281,-0.066
9.282,-0.066
9.283,-0.066
9.284,-0.066
9.285,-0.066
9.286,-0.066
9.287,-0.066
9.288,-0.067
9.289,-0.066
9.290,-0.066
9.291,-0.066
9.292,-0.066
9.293,-0.066
9.294,-0.059
9.295,-0.059
9.296,-0.056
9.297,-0.059
9.298,-0.063
9.299,-0.063
9.300,-0.061
9.301,-0.063
9.302,-0.053
9.303,-0.050
9.304,-0.051
9.305,-0.053
9.306,-0.050
9.307,-0.050
9.308,-0.051
9.309,-0.053
9.310,-0.054
9.311,-0.056
9.312,-0.056
9.313,-0.056
9.314,-0.056
9.315,-0.056
9.316,-0.058
9.317,-0.056
9.318,-0.056
9.319,-0.056
9.320,-0.056
9.321,-0.056
9.322,-0.054
9.323,-0.056
9.324,-0.058
9.325,-0.056
9.326,-0.055
9.327,-0.053
9.328,-0.055
9.329,-0.053
9.330,-0.050
9.331,-0.050
9.332,-0.051
9.333,-0.050
9.334,-0.047
9.335,-0.044
9.336,-0.044
9.337,-0.044
9.338,-0.045
9.339,-0.047
9.340,-0.039
9.341,-0.028
9.342,-0.014
9.343,-0.003
9.344,-0.003
9.345,-0.003
9.346,-0.004
9.347,-0.003
9.348,-0.012
9.349,-0.022
9.350,-0.033
9.351,-0.041
9.352,-0.041
9.353,-0.041
9.354,-0.036
9.355,-0.034
9.356,-0.036
9.357,-0.034
9.358,-0.036
9.359,-0.037
9.360,-0.036
9.361,-0.034
9.362,-0.034
9.363,-0.034
9.364,-0.034
9.365,-0.034
9.366,-0.030
9.367,-0.028
9.368,-0.029
9.369,-0.028
9.370,-0.028
9.371,-0.028
9.372,-0.029
9.373,-0.031
9.374,-0.028
9.375,-0.028
9.376,-0.024
9.377,-0.019
9.378,-0.020
9.379,-0.022
9.380,-0.021
9.381,-0.019
9.382,-0.020
9.383,-0.022
9.384,-0.022
9.385,-0.019
9.386,-0.016
9.387,-0.012
9.388,-0.012
9.389,-0.012
9.390,-0.014
9.391,-0.012
9.392,-0.012
9.393,-0.012
9.394,-0.014
9.395,-0.012
9.396,-0.016
9.397,-0.016
9.398,-0.016
9.399,-0.012
9.400,-0.016
9.401,-0.016
9.402,-0.016
9.403,-0.019
9.404,-0.019
9.405,-0.019
9.406,-0.016
9.407,-0.012
9.408,-0.012
9.409,-0.012
9.410,-0.014
9.411,-0.012
9.412,-0.012
9.413,-0.012
9.414,-0.011
9.415,-0.012
9.416,-0.012
9.417,-0.012
9.418,-0.011
9.419,-0.012
9.420,-0.012
9.421,-0.012
9.422,-0.012
9.423,-0.012
9.424,-0.012
9.425,-0.012
9.426,-0.012
9.427,-0.012
9.428,-0.012
9.429,-0.012
9.430,-0.014
9.431,-0.012
9.432,-0.006
9.433,0.000
9.434,0.002
9.435,0.000
9.436,-0.001
9.437,-0.003
9.438,-0.003
