'Elapsed time','II'
'seconds','mV'
0.000,-0.131
0.001,-0.119
0.002,-0.122
0.003,-0.122
0.004,-0.120
0.005,-0.122
0.006,-0.121
0.007,-0.119
0.008,-0.116
0.009,-0.116
0.010,-0.116
0.011,-0.113
0.012,-0.111
0.013,-0.113
0.014,-0.105
0.015,-0.100
0.016,-0.099
0.017,-0.094
0.018,-0.094
0.019,-0.094
0.020,-0.094
0.021,-0.091
0.022,-0.080
0.023,-0.072
0.024,-0.068
0.025,-0.062
0.026,-0.059
0.027,-0.056
0.028,-0.051
0.029,-0.050
0.030,-0.047
0.031,-0.041
0.032,-0.036
0.033,-0.031
0.034,-0.029
0.035,-0.028
0.036,-0.031
0.037,-0.031
0.038,-0.028
0.039,-0.028
0.040,-0.022
0.041,-0.016
0.042,-0.014
0.043,-0.013
0.044,-0.011
0.045,-0.006
0.046,-0.008
0.047,-0.009
0.048,-0.011
0.049,-0.013
0.050,-0.014
0.051,-0.009
0.052,-0.003
0.053,0.003
0.054,0.011
0.055,0.022
0.056,0.036
0.057,0.047
0.058,0.056
0.059,0.069
0.060,0.071
0.061,0.069
0.062,0.069
0.063,0.069
0.064,0.066
0.065,0.066
0.066,0.059
0.067,0.053
0.068,0.044
0.069,0.038
0.070,0.032
0.071,0.031
0.072,0.032
0.073,0.031
0.074,0.030
0.075,0.028
0.076,0.028
0.077,0.028
0.078,0.029
0.079,0.028
0.080,0.029
0.081,0.028
0.082,0.024
0.083,0.025
0.084,0.025
0.085,0.025
0.086,0.024
0.087,0.016
0.088,0.009
0.089,0.003
0.090,-0.005
0.091,-0.016
0.092,-0.020
0.093,-0.019
0.094,-0.020
0.095,-0.019
0.096,-0.018
0.097,-0.016
0.098,-0.018
0.099,-0.016
0.100,-0.018
0.101,-0.022
0.102,-0.030
0.103,-0.038
0.104,-0.044
0.105,-0.053
0.106,-0.064
0.107,-0.072
0.108,-0.078
0.109,-0.084
0.110,-0.095
0.111,-0.106
0.112,-0.117
0.113,-0.131
0.114,-0.139
0.115,-0.141
0.116,-0.147
0.117,-0.147
0.118,-0.147
0.119,-0.147
0.120,-0.146
0.121,-0.147
0.122,-0.141
0.123,-0.134
0.124,-0.138
0.125,-0.138
0.126,-0.141
0.127,-0.144
0.128,-0.151
0.129,-0.163
0.130,-0.161
0.131,-0.163
0.132,-0.163
0.133,-0.163
0.134,-0.159
0.135,-0.159
0.136,-0.161
0.137,-0.159
0.138,-0.153
0.139,-0.153
0.140,-0.154
0.141,-0.156
0.142,-0.159
0.143,-0.163
0.144,-0.159
0.145,-0.159
0.146,-0.161
0.147,-0.163
0.148,-0.172
0.149,-0.175
0.150,-0.175
0.151,-0.178
0.152,-0.171
0.153,-0.166
0.154,-0.164
0.155,-0.163
0.156,-0.163
0.157,-0.163
0.158,-0.163
0.159,-0.163
0.160,-0.164
0.161,-0.166
0.162,-0.164
0.163,-0.169
0.164,-0.170
0.165,-0.169
0.166,-0.170
0.167,-0.172
0.168,-0.169
0.169,-0.169
0.170,-0.166
0.171,-0.166
0.172,-0.164
0.173,-0.166
0.174,-0.163
0.175,-0.163
0.176,-0.161
0.177,-0.159
0.178,-0.159
0.179,-0.163
0.180,-0.163
0.181,-0.163
0.182,-0.159
0.183,-0.150
0.184,-0.148
0.185,-0.153
0.186,-0.153
0.187,-0.156
0.188,-0.156
0.189,-0.156
0.190,-0.153
0.191,-0.153
0.192,-0.149
0.193,-0.150
0.194,-0.154
0.195,-0.159
0.196,-0.166
0.197,-0.175
0.198,-0.183
0.199,-0.184
0.200,-0.188
0.201,-0.188
0.202,-0.180
0.203,-0.175
0.204,-0.172
0.205,-0.169
0.206,-0.168
0.207,-0.166
0.208,-0.175
0.209,-0.188
0.210,-0.198
0.211,-0.203
0.212,-0.197
0.213,-0.181
0.214,-0.150
0.215,-0.113
0.216,-0.069
0.217,-0.016
0.218,0.053
0.219,0.122
0.220,0.201
0.221,0.281
0.222,0.358
0.223,0.444
0.224,0.549
0.225,0.662
0.226,0.789
0.227,0.928
0.228,1.111
0.229,1.272
0.230,1.366
0.231,1.416
0.232,1.401
0.233,1.387
0.234,1.386
0.235,1.387
0.236,1.404
0.237,1.428
0.238,1.437
0.239,1.444
0.240,1.425
0.241,1.387
0.242,1.314
0.243,1.225
0.244,1.086
0.245,0.934
0.246,0.797
0.247,0.669
0.248,0.506
0.249,0.341
0.250,0.177
0.251,0.034
0.252,-0.062
0.253,-0.113
0.254,-0.119
0.255,-0.094
0.256,-0.066
0.257,-0.056
0.258,-0.048
0.259,-0.047
0.260,-0.056
0.261,-0.066
0.262,-0.080
0.263,-0.094
0.264,-0.104
0.265,-0.103
0.266,-0.088
0.267,-0.072
0.268,-0.061
0.269,-0.056
0.270,-0.049
0.271,-0.038
0.272,-0.033
0.273,-0.031
0.274,-0.031
0.275,-0.028
0.276,-0.029
0.277,-0.028
0.278,-0.033
0.279,-0.031
0.280,-0.033
0.281,-0.031
0.282,-0.028
0.283,-0.028
0.284,-0.027
0.285,-0.031
0.286,-0.038
0.287,-0.047
0.288,-0.058
0.289,-0.062
0.290,-0.070
0.291,-0.075
0.292,-0.072
0.293,-0.072
0.294,-0.075
0.295,-0.075
0.296,-0.075
0.297,-0.075
0.298,-0.075
0.299,-0.072
0.300,-0.072
0.301,-0.072
0.302,-0.072
0.303,-0.075
0.304,-0.077
0.305,-0.075
0.306,-0.078
0.307,-0.081
0.308,-0.084
0.309,-0.084
0.310,-0.086
0.311,-0.088
0.312,-0.086
0.313,-0.088
0.314,-0.084
0.315,-0.081
0.316,-0.077
0.317,-0.075
0.318,-0.078
0.319,-0.081
0.320,-0.078
0.321,-0.072
0.322,-0.072
0.323,-0.072
0.324,-0.073
0.325,-0.072
0.326,-0.069
0.327,-0.069
0.328,-0.069
0.329,-0.072
0.330,-0.072
0.331,-0.072
0.332,-0.069
0.333,-0.066
0.334,-0.061
0.335,-0.059
0.336,-0.055
0.337,-0.056
0.338,-0.055
0.339,-0.053
0.340,-0.059
0.341,-0.062
0.342,-0.062
0.343,-0.056
0.344,-0.055
0.345,-0.053
0.346,-0.053
0.347,-0.053
0.348,-0.051
0.349,-0.050
0.350,-0.049
0.351,-0.050
0.352,-0.051
0.353,-0.050
0.354,-0.054
0.355,-0.050
0.356,-0.050
0.357,-0.050
0.358,-0.050
0.359,-0.047
0.360,-0.046
0.361,-0.044
0.362,-0.042
0.363,-0.044
0.364,-0.044
0.365,-0.041
0.366,-0.039
0.367,-0.031
0.368,-0.033
0.369,-0.034
0.370,-0.033
0.371,-0.034
0.372,-0.031
0.373,-0.031
0.374,-0.038
0.375,-0.034
0.376,-0.033
0.377,-0.031
0.378,-0.033
0.379,-0.031
0.380,-0.031
0.381,-0.031
0.382,-0.027
0.383,-0.022
0.384,-0.021
0.385,-0.019
0.386,-0.017
0.387,-0.016
0.388,-0.009
0.389,-0.013
0.390,-0.013
0.391,-0.013
0.392,-0.016
0.393,-0.016
0.394,-0.013
0.395,-0.009
0.396,-0.009
0.397,-0.009
0.398,-0.006
0.399,0.000
0.400,0.000
0.401,0.000
0.402,0.002
0.403,0.000
0.404,0.005
0.405,0.000
0.406,0.006
0.407,0.009
0.408,0.014
0.409,0.016
0.410,0.022
0.411,0.022
0.412,0.025
0.413,0.025
0.414,0.024
0.415,0.025
0.416,0.028
0.417,0.028
0.418,0.030
0.419,0.031
0.420,0.034
0.421,0.041
0.422,0.041
0.423,0.041
0.424,0.042
0.425,0.044
0.426,0.047
0.427,0.050
0.428,0.050
0.429,0.053
0.430,0.053
0.431,0.056
0.432,0.056
0.433,0.056
0.434,0.059
0.435,0.059
0.436,0.061
0.437,0.062
0.438,0.064
0.439,0.066
0.440,0.072
0.441,0.078
0.442,0.078
0.443,0.084
0.444,0.084
0.445,0.084
0.446,0.087
0.447,0.094
0.448,0.092
0.449,0.097
0.450,0.100
0.451,0.103
0.452,0.103
0.453,0.103
0.454,0.106
0.455,0.106
0.456,0.108
0.457,0.112
0.458,0.112
0.459,0.112
0.460,0.117
0.461,0.119
0.462,0.122
0.463,0.119
0.464,0.121
0.465,0.125
0.466,0.126
0.467,0.131
0.468,0.134
0.469,0.141
0.470,0.142
0.471,0.147
0.472,0.147
0.473,0.147
0.474,0.149
0.475,0.150
0.476,0.150
0.477,0.156
0.478,0.158
0.479,0.156
0.480,0.159
0.481,0.159
0.482,0.166
0.483,0.169
0.484,0.175
0.485,0.178
0.486,0.179
0.487,0.181
0.488,0.181
0.489,0.181
0.490,0.180
0.491,0.181
0.492,0.186
0.493,0.191
0.494,0.191
0.495,0.197
0.496,0.197
0.497,0.197
0.498,0.200
0.499,0.200
0.500,0.206
0.501,0.203
0.502,0.212
0.503,0.216
0.504,0.212
0.505,0.216
0.506,0.216
0.507,0.216
0.508,0.216
0.509,0.219
0.510,0.218
0.511,0.219
0.512,0.219
0.513,0.219
0.514,0.219
0.515,0.219
0.516,0.225
0.517,0.228
0.518,0.230
0.519,0.225
0.520,0.221
0.521,0.219
0.522,0.222
0.523,0.225
0.524,0.221
0.525,0.222
0.526,0.222
0.527,0.222
0.528,0.225
0.529,0.228
0.530,0.228
0.531,0.228
0.532,0.228
0.533,0.231
0.534,0.228
0.535,0.225
0.536,0.225
0.537,0.228
0.538,0.231
0.539,0.234
0.540,0.232
0.541,0.234
0.542,0.234
0.543,0.234
0.544,0.233
0.545,0.231
0.546,0.232
0.547,0.231
0.548,0.233
0.549,0.231
0.550,0.238
0.551,0.238
0.552,0.234
0.553,0.234
0.554,0.233
0.555,0.231
0.556,0.234
0.557,0.231
0.558,0.234
0.559,0.234
0.560,0.238
0.561,0.238
0.562,0.233
0.563,0.234
0.564,0.234
0.565,0.234
0.566,0.233
0.567,0.234
0.568,0.238
0.569,0.234
0.570,0.233
0.571,0.234
0.572,0.232
0.573,0.234
0.574,0.231
0.575,0.231
0.576,0.228
0.577,0.228
0.578,0.230
0.579,0.228
0.580,0.228
0.581,0.234
0.582,0.232
0.583,0.234
0.584,0.231
0.585,0.231
0.586,0.225
0.587,0.219
0.588,0.220
0.589,0.219
0.590,0.216
0.591,0.212
0.592,0.211
0.593,0.212
0.594,0.209
0.595,0.203
0.596,0.200
0.597,0.197
0.598,0.194
0.599,0.191
0.600,0.191
0.601,0.187
0.602,0.183
0.603,0.181
0.604,0.176
0.605,0.178
0.606,0.176
0.607,0.172
0.608,0.164
0.609,0.162
0.610,0.161
0.611,0.159
0.612,0.155
0.613,0.147
0.614,0.142
0.615,0.141
0.616,0.134
0.617,0.134
0.618,0.128
0.619,0.125
0.620,0.119
0.621,0.116
0.622,0.112
0.623,0.109
0.624,0.100
0.625,0.100
0.626,0.092
0.627,0.087
0.628,0.087
0.629,0.084
0.630,0.075
0.631,0.069
0.632,0.059
0.633,0.053
0.634,0.051
0.635,0.047
0.636,0.047
0.637,0.047
0.638,0.045
0.639,0.041
0.640,0.034
0.641,0.028
0.642,0.019
0.643,0.016
0.644,0.012
0.645,0.006
0.646,0.002
0.647,-0.006
0.648,-0.009
0.649,-0.009
0.650,-0.013
0.651,-0.013
0.652,-0.014
0.653,-0.016
0.654,-0.016
0.655,-0.016
0.656,-0.016
0.657,-0.016
0.658,-0.020
0.659,-0.025
0.660,-0.028
0.661,-0.028
0.662,-0.031
0.663,-0.031
0.664,-0.038
0.665,-0.041
0.666,-0.044
0.667,-0.044
0.668,-0.041
0.669,-0.041
0.670,-0.041
0.671,-0.044
0.672,-0.045
0.673,-0.047
0.674,-0.050
0.675,-0.053
0.676,-0.052
0.677,-0.050
0.678,-0.050
0.679,-0.053
0.680,-0.053
0.681,-0.053
0.682,-0.052
0.683,-0.053
0.684,-0.053
0.685,-0.056
0.686,-0.058
0.687,-0.059
0.688,-0.061
0.689,-0.062
0.690,-0.067
0.691,-0.069
0.692,-0.069
0.693,-0.069
0.694,-0.070
0.695,-0.072
0.696,-0.069
0.697,-0.069
0.698,-0.072
0.699,-0.072
0.700,-0.072
0.701,-0.072
0.702,-0.072
0.703,-0.072
0.704,-0.072
0.705,-0.072
0.706,-0.071
0.707,-0.072
0.708,-0.068
0.709,-0.066
0.710,-0.068
0.711,-0.069
0.712,-0.066
0.713,-0.072
0.714,-0.073
0.715,-0.072
0.716,-0.071
0.717,-0.069
0.718,-0.068
0.719,-0.066
0.720,-0.066
0.721,-0.072
0.722,-0.072
0.723,-0.075
0.724,-0.072
0.725,-0.069
0.726,-0.069
0.727,-0.069
0.728,-0.069
0.729,-0.069
0.730,-0.072
0.731,-0.072
0.732,-0.075
0.733,-0.075
0.734,-0.074
0.735,-0.072
0.736,-0.073
0.737,-0.078
0.738,-0.076
0.739,-0.078
0.740,-0.075
0.741,-0.075
0.742,-0.075
0.743,-0.072
0.744,-0.071
0.745,-0.072
0.746,-0.073
0.747,-0.075
0.748,-0.074
0.749,-0.072
0.750,-0.072
0.751,-0.072
0.752,-0.073
0.753,-0.075
0.754,-0.074
0.755,-0.072
0.756,-0.068
0.757,-0.066
0.758,-0.066
0.759,-0.066
0.760,-0.066
0.761,-0.066
0.762,-0.066
0.763,-0.069
0.764,-0.066
0.765,-0.069
0.766,-0.068
0.767,-0.066
0.768,-0.069
0.769,-0.069
0.770,-0.072
0.771,-0.072
0.772,-0.072
0.773,-0.075
0.774,-0.072
0.775,-0.072
0.776,-0.073
0.777,-0.072
0.778,-0.071
0.779,-0.072
0.780,-0.072
0.781,-0.069
0.782,-0.064
0.783,-0.066
0.784,-0.062
0.785,-0.062
0.786,-0.067
0.787,-0.066
0.788,-0.067
0.789,-0.066
0.790,-0.066
0.791,-0.069
0.792,-0.066
0.793,-0.072
0.794,-0.070
0.795,-0.072
0.796,-0.074
0.797,-0.072
0.798,-0.073
0.799,-0.078
0.800,-0.079
0.801,-0.078
0.802,-0.077
0.803,-0.078
0.804,-0.082
0.805,-0.081
0.806,-0.081
0.807,-0.084
0.808,-0.084
0.809,-0.084
0.810,-0.086
0.811,-0.088
0.812,-0.088
0.813,-0.088
0.814,-0.088
0.815,-0.088
0.816,-0.089
0.817,-0.094
0.818,-0.097
0.819,-0.097
0.820,-0.089
0.821,-0.081
0.822,-0.080
0.823,-0.078
0.824,-0.086
0.825,-0.088
0.826,-0.091
0.827,-0.091
0.828,-0.086
0.829,-0.088
0.830,-0.091
0.831,-0.091
0.832,-0.091
0.833,-0.091
0.834,-0.092
0.835,-0.091
0.836,-0.094
0.837,-0.094
0.838,-0.094
0.839,-0.094
0.840,-0.093
0.841,-0.091
0.842,-0.091
0.843,-0.091
0.844,-0.091
0.845,-0.097
0.846,-0.098
0.847,-0.100
0.848,-0.100
0.849,-0.100
0.850,-0.097
0.851,-0.094
0.852,-0.091
0.853,-0.088
0.854,-0.088
0.855,-0.088
0.856,-0.091
0.857,-0.097
0.858,-0.096
0.859,-0.094
0.860,-0.093
0.861,-0.094
0.862,-0.094
0.863,-0.100
0.864,-0.101
0.865,-0.103
0.866,-0.103
0.867,-0.103
0.868,-0.102
0.869,-0.100
0.870,-0.102
0.871,-0.097
0.872,-0.097
0.873,-0.097
0.874,-0.099
0.875,-0.097
0.876,-0.100
0.877,-0.100
0.878,-0.100
0.879,-0.103
0.880,-0.103
0.881,-0.103
0.882,-0.108
0.883,-0.109
0.884,-0.106
0.885,-0.106
0.886,-0.109
0.887,-0.109
0.888,-0.109
0.889,-0.109
0.890,-0.109
0.891,-0.109
0.892,-0.109
0.893,-0.106
0.894,-0.106
0.895,-0.106
0.896,-0.106
0.897,-0.109
0.898,-0.109
0.899,-0.109
0.900,-0.109
0.901,-0.109
0.902,-0.106
0.903,-0.103
0.904,-0.103
0.905,-0.106
0.906,-0.108
0.907,-0.106
0.908,-0.108
0.909,-0.106
0.910,-0.111
0.911,-0.109
0.912,-0.108
0.913,-0.109
0.914,-0.111
0.915,-0.113
0.916,-0.109
0.917,-0.109
0.918,-0.109
0.919,-0.109
0.920,-0.109
0.921,-0.109
0.922,-0.109
0.923,-0.109
0.924,-0.113
0.925,-0.113
0.926,-0.111
0.927,-0.113
0.928,-0.116
0.929,-0.119
0.930,-0.122
0.931,-0.119
0.932,-0.119
0.933,-0.116
0.934,-0.114
0.935,-0.113
0.936,-0.116
0.937,-0.119
0.938,-0.120
0.939,-0.119
0.940,-0.114
0.941,-0.113
0.942,-0.113
0.943,-0.109
0.944,-0.113
0.945,-0.113
0.946,-0.114
0.947,-0.119
0.948,-0.120
0.949,-0.122
0.950,-0.121
0.951,-0.119
0.952,-0.116
0.953,-0.113
0.954,-0.113
0.955,-0.113
0.956,-0.109
0.957,-0.109
0.958,-0.105
0.959,-0.103
0.960,-0.106
0.961,-0.106
0.962,-0.106
0.963,-0.109
0.964,-0.109
0.965,-0.109
0.966,-0.109
0.967,-0.109
0.968,-0.111
0.969,-0.113
0.970,-0.116
0.971,-0.113
0.972,-0.111
0.973,-0.109
0.974,-0.108
0.975,-0.109
0.976,-0.109
0.977,-0.109
0.978,-0.111
0.979,-0.113
0.980,-0.108
0.981,-0.109
0.982,-0.114
0.983,-0.116
0.984,-0.116
0.985,-0.113
0.986,-0.113
0.987,-0.116
0.988,-0.113
0.989,-0.116
0.990,-0.119
0.991,-0.116
0.992,-0.117
0.993,-0.116
0.994,-0.116
0.995,-0.116
0.996,-0.114
0.997,-0.119
0.998,-0.118
0.999,-0.119
1.000,-0.120
1.001,-0.122
1.002,-0.123
1.003,-0.125
1.004,-0.121
1.005,-0.122
1.006,-0.122
1.007,-0.119
1.008,-0.123
1.009,-0.125
1.010,-0.119
1.011,-0.116
1.012,-0.114
1.013,-0.113
1.014,-0.114
1.015,-0.113
1.016,-0.116
1.017,-0.116
1.018,-0.119
1.019,-0.122
1.020,-0.121
1.021,-0.119
1.022,-0.119
1.023,-0.119
1.024,-0.122
1.025,-0.122
1.026,-0.121
1.027,-0.119
1.028,-0.118
1.029,-0.119
1.030,-0.120
1.031,-0.119
1.032,-0.123
1.033,-0.122
1.034,-0.125
1.035,-0.122
1.036,-0.123
1.037,-0.125
1.038,-0.126
1.039,-0.125
1.040,-0.122
1.041,-0.119
1.042,-0.118
1.043,-0.116
1.044,-0.120
1.045,-0.125
1.046,-0.125
1.047,-0.125
1.048,-0.127
1.049,-0.128
1.050,-0.133
1.051,-0.131
1.052,-0.125
1.053,-0.119
1.054,-0.118
1.055,-0.116
1.056,-0.113
1.057,-0.119
1.058,-0.122
1.059,-0.119
1.060,-0.116
1.061,-0.116
1.062,-0.117
1.063,-0.119
1.064,-0.118
1.065,-0.119
1.066,-0.123
1.067,-0.125
1.068,-0.123
1.069,-0.125
1.070,-0.121
1.071,-0.122
1.072,-0.126
1.073,-0.125
1.074,-0.126
1.075,-0.131
1.076,-0.128
1.077,-0.128
1.078,-0.130
1.079,-0.128
1.080,-0.124
1.081,-0.125
1.082,-0.124
1.083,-0.122
1.084,-0.120
1.085,-0.122
1.086,-0.119
1.087,-0.122
1.088,-0.126
1.089,-0.128
1.090,-0.125
1.091,-0.128
1.092,-0.127
1.093,-0.125
1.094,-0.125
1.095,-0.125
1.096,-0.128
1.097,-0.128
1.098,-0.125
1.099,-0.125
1.100,-0.125
1.101,-0.125
1.102,-0.128
1.103,-0.125
1.104,-0.125
1.105,-0.125
1.106,-0.121
1.107,-0.113
1.108,-0.116
1.109,-0.119
1.110,-0.121
1.111,-0.119
1.112,-0.119
1.113,-0.119
1.114,-0.119
1.115,-0.119
1.116,-0.119
1.117,-0.116
1.118,-0.116
1.119,-0.116
1.120,-0.114
1.121,-0.113
1.122,-0.113
1.123,-0.109
1.124,-0.108
1.125,-0.106
1.126,-0.102
1.127,-0.097
1.128,-0.097
1.129,-0.097
1.130,-0.091
1.131,-0.084
1.132,-0.081
1.133,-0.078
1.134,-0.076
1.135,-0.075
1.136,-0.071
1.137,-0.062
1.138,-0.056
1.139,-0.050
1.140,-0.042
1.141,-0.034
1.142,-0.029
1.143,-0.028
1.144,-0.025
1.145,-0.028
1.146,-0.033
1.147,-0.034
1.148,-0.034
1.149,-0.034
1.150,-0.031
1.151,-0.025
1.152,-0.022
1.153,-0.022
1.154,-0.018
1.155,-0.019
1.156,-0.021
1.157,-0.019
1.158,-0.019
1.159,-0.022
1.160,-0.020
1.161,-0.016
1.162,-0.013
1.163,-0.006
1.164,0.007
1.165,0.022
1.166,0.031
1.167,0.041
1.168,0.052
1.169,0.056
1.170,0.061
1.171,0.062
1.172,0.064
1.173,0.062
1.174,0.064
1.175,0.059
1.176,0.053
1.177,0.044
1.178,0.033
1.179,0.022
1.180,0.019
1.181,0.019
1.182,0.016
1.183,0.016
1.184,0.016
1.185,0.016
1.186,0.016
1.187,0.016
1.188,0.016
1.189,0.019
1.190,0.016
1.191,0.012
1.192,0.016
1.193,0.016
1.194,0.016
1.195,0.016
1.196,0.008
1.197,0.000
1.198,-0.005
1.199,-0.013
1.200,-0.026
1.201,-0.031
1.202,-0.029
1.203,-0.028
1.204,-0.019
1.205,-0.016
1.206,-0.014
1.207,-0.016
1.208,-0.016
1.209,-0.019
1.210,-0.028
1.211,-0.041
1.212,-0.050
1.213,-0.059
1.214,-0.072
1.215,-0.081
1.216,-0.088
1.217,-0.097
1.218,-0.109
1.219,-0.119
1.220,-0.122
1.221,-0.128
1.222,-0.141
1.223,-0.147
1.224,-0.146
1.225,-0.147
1.226,-0.143
1.227,-0.138
1.228,-0.136
1.229,-0.138
1.230,-0.141
1.231,-0.141
1.232,-0.139
1.233,-0.144
1.234,-0.150
1.235,-0.153
1.236,-0.150
1.237,-0.150
1.238,-0.153
1.239,-0.150
1.240,-0.158
1.241,-0.163
1.242,-0.163
1.243,-0.159
1.244,-0.159
1.245,-0.159
1.246,-0.156
1.247,-0.153
1.248,-0.156
1.249,-0.156
1.250,-0.158
1.251,-0.163
1.252,-0.167
1.253,-0.166
1.254,-0.163
1.255,-0.163
1.256,-0.167
1.257,-0.172
1.258,-0.169
1.259,-0.169
1.260,-0.169
1.261,-0.163
1.262,-0.166
1.263,-0.169
1.264,-0.169
1.265,-0.169
1.266,-0.168
1.267,-0.166
1.268,-0.164
1.269,-0.163
1.270,-0.164
1.271,-0.166
1.272,-0.173
1.273,-0.175
1.274,-0.171
1.275,-0.169
1.276,-0.168
1.277,-0.163
1.278,-0.163
1.279,-0.159
1.280,-0.161
1.281,-0.163
1.282,-0.166
1.283,-0.163
1.284,-0.164
1.285,-0.163
1.286,-0.161
1.287,-0.163
1.288,-0.166
1.289,-0.166
1.290,-0.166
1.291,-0.169
1.292,-0.164
1.293,-0.159
1.294,-0.164
1.295,-0.163
1.296,-0.163
1.297,-0.163
1.298,-0.161
1.299,-0.159
1.300,-0.163
1.301,-0.159
1.302,-0.161
1.303,-0.163
1.304,-0.169
1.305,-0.181
1.306,-0.193
1.307,-0.200
1.308,-0.202
1.309,-0.200
1.310,-0.197
1.311,-0.194
1.312,-0.197
1.313,-0.197
1.314,-0.194
1.315,-0.194
1.316,-0.193
1.317,-0.200
1.318,-0.217
1.319,-0.231
1.320,-0.231
1.321,-0.219
1.322,-0.199
1.323,-0.166
1.324,-0.129
1.325,-0.081
1.326,-0.022
1.327,0.047
1.328,0.112
1.329,0.184
1.330,0.256
1.331,0.334
1.332,0.432
1.333,0.553
1.334,0.682
1.335,0.825
1.336,0.972
1.337,1.137
1.338,1.274
1.339,1.359
1.340,1.403
1.341,1.372
1.342,1.348
1.343,1.350
1.344,1.349
1.345,1.356
1.346,1.369
1.347,1.369
1.348,1.372
1.349,1.347
1.350,1.303
1.351,1.228
1.352,1.130
1.353,0.987
1.354,0.848
1.355,0.706
1.356,0.558
1.357,0.397
1.358,0.245
1.359,0.091
1.360,-0.041
1.361,-0.125
1.362,-0.168
1.363,-0.163
1.364,-0.125
1.365,-0.084
1.366,-0.058
1.367,-0.041
1.368,-0.036
1.369,-0.044
1.370,-0.050
1.371,-0.062
1.372,-0.078
1.373,-0.088
1.374,-0.086
1.375,-0.075
1.376,-0.061
1.377,-0.047
1.378,-0.044
1.379,-0.044
1.380,-0.041
1.381,-0.041
1.382,-0.039
1.383,-0.041
1.384,-0.041
1.385,-0.041
1.386,-0.038
1.387,-0.041
1.388,-0.036
1.389,-0.034
1.390,-0.031
1.391,-0.031
1.392,-0.036
1.393,-0.041
1.394,-0.047
1.395,-0.047
1.396,-0.050
1.397,-0.056
1.398,-0.059
1.399,-0.066
1.400,-0.072
1.401,-0.072
1.402,-0.075
1.403,-0.078
1.404,-0.076
1.405,-0.078
1.406,-0.078
1.407,-0.078
1.408,-0.074
1.409,-0.075
1.410,-0.079
1.411,-0.081
1.412,-0.086
1.413,-0.091
1.414,-0.091
1.415,-0.094
1.416,-0.094
1.417,-0.091
1.418,-0.086
1.419,-0.081
1.420,-0.075
1.421,-0.069
1.422,-0.069
1.423,-0.069
1.424,-0.069
1.425,-0.066
1.426,-0.064
1.427,-0.066
1.428,-0.069
1.429,-0.069
1.430,-0.064
1.431,-0.066
1.432,-0.070
1.433,-0.072
1.434,-0.072
1.435,-0.072
1.436,-0.073
1.437,-0.072
1.438,-0.073
1.439,-0.072
1.440,-0.069
1.441,-0.069
1.442,-0.069
1.443,-0.066
1.444,-0.067
1.445,-0.066
1.446,-0.069
1.447,-0.069
1.448,-0.068
1.449,-0.069
1.450,-0.070
1.451,-0.072
1.452,-0.066
1.453,-0.066
1.454,-0.066
1.455,-0.066
1.456,-0.064
1.457,-0.059
1.458,-0.056
1.459,-0.056
1.460,-0.059
1.461,-0.059
1.462,-0.058
1.463,-0.062
1.464,-0.055
1.465,-0.053
1.466,-0.050
1.467,-0.047
1.468,-0.044
1.469,-0.044
1.470,-0.047
1.471,-0.047
1.472,-0.048
1.473,-0.050
1.474,-0.044
1.475,-0.044
1.476,-0.038
1.477,-0.034
1.478,-0.038
1.479,-0.038
1.480,-0.036
1.481,-0.031
1.482,-0.031
1.483,-0.034
1.484,-0.029
1.485,-0.031
1.486,-0.031
1.487,-0.031
1.488,-0.029
1.489,-0.031
1.490,-0.033
1.491,-0.031
1.492,-0.024
1.493,-0.019
1.494,-0.020
1.495,-0.019
1.496,-0.017
1.497,-0.013
1.498,-0.013
1.499,-0.009
1.500,-0.008
1.501,-0.006
1.502,-0.004
1.503,-0.003
1.504,-0.003
1.505,-0.006
1.506,-0.003
1.507,0.000
1.508,0.002
1.509,0.000
1.510,0.000
1.511,0.003
1.512,0.000
1.513,0.003
1.514,0.006
1.515,0.016
1.516,0.016
1.517,0.019
1.518,0.016
1.519,0.019
1.520,0.019
1.521,0.022
1.522,0.022
1.523,0.022
1.524,0.025
1.525,0.028
1.526,0.031
1.527,0.038
1.528,0.036
1.529,0.031
1.530,0.033
1.531,0.031
1.532,0.032
1.533,0.038
1.534,0.041
1.535,0.044
1.536,0.050
1.537,0.053
1.538,0.056
1.539,0.056
1.540,0.058
1.541,0.056
1.542,0.058
1.543,0.062
1.544,0.061
1.545,0.062
1.546,0.067
1.547,0.072
1.548,0.075
1.549,0.078
1.550,0.081
1.551,0.081
1.552,0.084
1.553,0.081
1.554,0.082
1.555,0.084
1.556,0.086
1.557,0.084
1.558,0.094
1.559,0.097
1.560,0.097
1.561,0.100
1.562,0.100
1.563,0.100
1.564,0.101
1.565,0.106
1.566,0.114
1.567,0.119
1.568,0.122
1.569,0.125
1.570,0.125
1.571,0.128
1.572,0.124
1.573,0.125
1.574,0.134
1.575,0.138
1.576,0.138
1.577,0.134
1.578,0.134
1.579,0.134
1.580,0.141
1.581,0.141
1.582,0.144
1.583,0.150
1.584,0.152
1.585,0.150
1.586,0.156
1.587,0.159
1.588,0.161
1.589,0.166
1.590,0.167
1.591,0.175
1.592,0.177
1.593,0.178
1.594,0.177
1.595,0.175
1.596,0.172
1.597,0.172
1.598,0.175
1.599,0.175
1.600,0.178
1.601,0.178
1.602,0.179
1.603,0.181
1.604,0.194
1.605,0.200
1.606,0.204
1.607,0.212
1.608,0.209
1.609,0.212
1.610,0.206
1.611,0.209
1.612,0.208
1.613,0.206
1.614,0.212
1.615,0.212
1.616,0.212
1.617,0.212
1.618,0.214
1.619,0.212
1.620,0.219
1.621,0.222
1.622,0.223
1.623,0.225
1.624,0.225
1.625,0.228
1.626,0.227
1.627,0.228
1.628,0.225
1.629,0.225
1.630,0.229
1.631,0.231
1.632,0.234
1.633,0.234
1.634,0.236
1.635,0.234
1.636,0.234
1.637,0.234
1.638,0.233
1.639,0.231
1.640,0.231
1.641,0.231
1.642,0.234
1.643,0.234
1.644,0.233
1.645,0.231
1.646,0.231
1.647,0.228
1.648,0.229
1.649,0.228
1.650,0.228
1.651,0.228
1.652,0.229
1.653,0.231
1.654,0.231
1.655,0.231
1.656,0.231
1.657,0.238
1.658,0.236
1.659,0.241
1.660,0.242
1.661,0.241
1.662,0.239
1.663,0.238
1.664,0.236
1.665,0.238
1.666,0.233
1.667,0.234
1.668,0.236
1.669,0.241
1.670,0.244
1.671,0.244
1.672,0.244
1.673,0.241
1.674,0.239
1.675,0.238
1.676,0.242
1.677,0.247
1.678,0.245
1.679,0.247
1.680,0.251
1.681,0.250
1.682,0.250
1.683,0.247
1.684,0.247
1.685,0.244
1.686,0.245
1.687,0.250
1.688,0.251
1.689,0.250
1.690,0.250
1.691,0.244
1.692,0.244
1.693,0.241
1.694,0.238
1.695,0.234
1.696,0.236
1.697,0.238
1.698,0.236
1.699,0.231
1.700,0.225
1.701,0.222
1.702,0.221
1.703,0.216
1.704,0.212
1.705,0.212
1.706,0.206
1.707,0.203
1.708,0.204
1.709,0.203
1.710,0.197
1.711,0.194
1.712,0.191
1.713,0.181
1.714,0.181
1.715,0.178
1.716,0.175
1.717,0.172
1.718,0.171
1.719,0.166
1.720,0.164
1.721,0.162
1.722,0.155
1.723,0.147
1.724,0.145
1.725,0.141
1.726,0.141
1.727,0.134
1.728,0.127
1.729,0.116
1.730,0.111
1.731,0.106
1.732,0.107
1.733,0.103
1.734,0.107
1.735,0.106
1.736,0.096
1.737,0.087
1.738,0.089
1.739,0.084
1.740,0.078
1.741,0.072
1.742,0.070
1.743,0.069
1.744,0.059
1.745,0.053
1.746,0.049
1.747,0.044
1.748,0.039
1.749,0.038
1.750,0.038
1.751,0.034
1.752,0.034
1.753,0.031
1.754,0.026
1.755,0.025
1.756,0.018
1.757,0.012
1.758,0.011
1.759,0.003
1.760,0.000
1.761,-0.003
1.762,-0.009
1.763,-0.013
1.764,-0.014
1.765,-0.019
1.766,-0.022
1.767,-0.025
1.768,-0.028
1.769,-0.031
1.770,-0.031
1.771,-0.034
1.772,-0.033
1.773,-0.034
1.774,-0.036
1.775,-0.041
1.776,-0.039
1.777,-0.038
1.778,-0.042
1.779,-0.044
1.780,-0.047
1.781,-0.047
1.782,-0.046
1.783,-0.047
1.784,-0.050
1.785,-0.050
1.786,-0.050
1.787,-0.050
1.788,-0.053
1.789,-0.053
1.790,-0.053
1.791,-0.053
1.792,-0.055
1.793,-0.053
1.794,-0.056
1.795,-0.056
1.796,-0.058
1.797,-0.059
1.798,-0.056
1.799,-0.056
1.800,-0.058
1.801,-0.059
1.802,-0.061
1.803,-0.062
1.804,-0.064
1.805,-0.066
1.806,-0.069
1.807,-0.069
1.808,-0.066
1.809,-0.066
1.810,-0.064
1.811,-0.062
1.812,-0.062
1.813,-0.062
1.814,-0.061
1.815,-0.059
1.816,-0.064
1.817,-0.062
1.818,-0.062
1.819,-0.066
1.820,-0.068
1.821,-0.059
1.822,-0.061
1.823,-0.059
1.824,-0.058
1.825,-0.059
1.826,-0.061
1.827,-0.062
1.828,-0.062
1.829,-0.062
1.830,-0.069
1.831,-0.066
1.832,-0.061
1.833,-0.056
1.834,-0.061
1.835,-0.066
1.836,-0.064
1.837,-0.062
1.838,-0.061
1.839,-0.062
1.840,-0.062
1.841,-0.062
1.842,-0.059
1.843,-0.059
1.844,-0.058
1.845,-0.056
1.846,-0.062
1.847,-0.062
1.848,-0.062
1.849,-0.062
1.850,-0.062
1.851,-0.059
1.852,-0.055
1.853,-0.053
1.854,-0.061
1.855,-0.066
1.856,-0.067
1.857,-0.069
1.858,-0.068
1.859,-0.066
1.860,-0.066
1.861,-0.066
1.862,-0.066
1.863,-0.066
1.864,-0.064
1.865,-0.059
1.866,-0.058
1.867,-0.056
1.868,-0.058
1.869,-0.059
1.870,-0.061
1.871,-0.062
1.872,-0.069
1.873,-0.069
1.874,-0.072
1.875,-0.072
1.876,-0.071
1.877,-0.072
1.878,-0.073
1.879,-0.075
1.880,-0.071
1.881,-0.069
1.882,-0.072
1.883,-0.069
1.884,-0.069
1.885,-0.069
1.886,-0.067
1.887,-0.069
1.888,-0.069
1.889,-0.069
1.890,-0.070
1.891,-0.069
1.892,-0.072
1.893,-0.072
1.894,-0.076
1.895,-0.081
1.896,-0.079
1.897,-0.081
1.898,-0.077
1.899,-0.075
1.900,-0.078
1.901,-0.075
1.902,-0.086
1.903,-0.088
1.904,-0.086
1.905,-0.088
1.906,-0.084
1.907,-0.081
1.908,-0.081
1.909,-0.078
1.910,-0.075
1.911,-0.075
1.912,-0.079
1.913,-0.084
1.914,-0.082
1.915,-0.084
1.916,-0.088
1.917,-0.088
1.918,-0.088
1.919,-0.088
1.920,-0.088
1.921,-0.088
1.922,-0.088
1.923,-0.088
1.924,-0.086
1.925,-0.084
1.926,-0.084
1.927,-0.084
1.928,-0.088
1.929,-0.088
1.930,-0.086
1.931,-0.088
1.932,-0.084
1.933,-0.088
1.934,-0.089
1.935,-0.091
1.936,-0.091
1.937,-0.091
1.938,-0.093
1.939,-0.094
1.940,-0.093
1.941,-0.091
1.942,-0.086
1.943,-0.081
1.944,-0.079
1.945,-0.084
1.946,-0.086
1.947,-0.088
1.948,-0.088
1.949,-0.088
1.950,-0.089
1.951,-0.091
1.952,-0.089
1.953,-0.084
1.954,-0.086
1.955,-0.084
1.956,-0.086
1.957,-0.088
1.958,-0.089
1.959,-0.091
1.960,-0.091
1.961,-0.091
1.962,-0.091
1.963,-0.091
1.964,-0.089
1.965,-0.088
1.966,-0.089
1.967,-0.088
1.968,-0.091
1.969,-0.094
1.970,-0.098
1.971,-0.097
1.972,-0.100
1.973,-0.100
1.974,-0.097
1.975,-0.094
1.976,-0.095
1.977,-0.097
1.978,-0.097
1.979,-0.100
1.980,-0.098
1.981,-0.100
1.982,-0.099
1.983,-0.100
1.984,-0.101
1.985,-0.103
1.986,-0.100
1.987,-0.100
1.988,-0.100
1.989,-0.097
1.990,-0.097
1.991,-0.100
1.992,-0.101
1.993,-0.100
1.994,-0.099
1.995,-0.100
1.996,-0.103
1.997,-0.106
1.998,-0.105
1.999,-0.103
2.000,-0.104
2.001,-0.106
2.002,-0.103
2.003,-0.103
2.004,-0.099
2.005,-0.094
2.006,-0.096
2.007,-0.094
2.008,-0.095
2.009,-0.097
2.010,-0.098
2.011,-0.100
2.012,-0.100
2.013,-0.100
2.014,-0.103
2.015,-0.103
2.016,-0.101
2.017,-0.106
2.018,-0.105
2.019,-0.106
2.020,-0.103
2.021,-0.103
2.022,-0.106
2.023,-0.106
2.024,-0.108
2.025,-0.106
2.026,-0.106
2.027,-0.106
2.028,-0.108
2.029,-0.109
2.030,-0.108
2.031,-0.106
2.032,-0.106
2.033,-0.109
2.034,-0.111
2.035,-0.113
2.036,-0.116
2.037,-0.116
2.038,-0.114
2.039,-0.116
2.040,-0.114
2.041,-0.116
2.042,-0.114
2.043,-0.116
2.044,-0.113
2.045,-0.113
2.046,-0.119
2.047,-0.122
2.048,-0.120
2.049,-0.119
2.050,-0.118
2.051,-0.116
2.052,-0.113
2.053,-0.113
2.054,-0.108
2.055,-0.109
2.056,-0.108
2.057,-0.109
2.058,-0.111
2.059,-0.113
2.060,-0.113
2.061,-0.113
2.062,-0.111
2.063,-0.116
2.064,-0.119
2.065,-0.119
2.066,-0.118
2.067,-0.113
2.068,-0.109
2.069,-0.109
2.070,-0.106
2.071,-0.103
2.072,-0.103
2.073,-0.100
2.074,-0.104
2.075,-0.106
2.076,-0.106
2.077,-0.106
2.078,-0.108
2.079,-0.109
2.080,-0.111
2.081,-0.113
2.082,-0.116
2.083,-0.116
2.084,-0.117
2.085,-0.119
2.086,-0.120
2.087,-0.125
2.088,-0.125
2.089,-0.122
2.090,-0.121
2.091,-0.113
2.092,-0.116
2.093,-0.113
2.094,-0.114
2.095,-0.116
2.096,-0.119
2.097,-0.119
2.098,-0.119
2.099,-0.119
2.100,-0.119
2.101,-0.119
2.102,-0.119
2.103,-0.119
2.104,-0.116
2.105,-0.113
2.106,-0.113
2.107,-0.113
2.108,-0.116
2.109,-0.113
2.110,-0.111
2.111,-0.109
2.112,-0.109
2.113,-0.109
2.114,-0.105
2.115,-0.109
2.116,-0.114
2.117,-0.113
2.118,-0.111
2.119,-0.113
2.120,-0.109
2.121,-0.106
2.122,-0.103
2.123,-0.103
2.124,-0.106
2.125,-0.106
2.126,-0.104
2.127,-0.106
2.128,-0.104
2.129,-0.109
2.130,-0.114
2.131,-0.113
2.132,-0.113
2.133,-0.116
2.134,-0.117
2.135,-0.122
2.136,-0.125
2.137,-0.125
2.138,-0.121
2.139,-0.122
2.140,-0.122
2.141,-0.122
2.142,-0.116
2.143,-0.113
2.144,-0.109
2.145,-0.113
2.146,-0.116
2.147,-0.116
2.148,-0.113
2.149,-0.116
2.150,-0.117
2.151,-0.119
2.152,-0.119
2.153,-0.119
2.154,-0.122
2.155,-0.122
2.156,-0.121
2.157,-0.122
2.158,-0.121
2.159,-0.119
2.160,-0.123
2.161,-0.122
2.162,-0.122
2.163,-0.122
2.164,-0.122
2.165,-0.119
2.166,-0.114
2.167,-0.109
2.168,-0.111
2.169,-0.109
2.170,-0.108
2.171,-0.106
2.172,-0.108
2.173,-0.109
2.174,-0.111
2.175,-0.109
2.176,-0.108
2.177,-0.106
2.178,-0.104
2.179,-0.103
2.180,-0.104
2.181,-0.103
2.182,-0.100
2.183,-0.097
2.184,-0.095
2.185,-0.094
2.186,-0.086
2.187,-0.078
2.188,-0.073
2.189,-0.069
2.190,-0.067
2.191,-0.066
2.192,-0.061
2.193,-0.056
2.194,-0.054
2.195,-0.050
2.196,-0.046
2.197,-0.041
2.198,-0.036
2.199,-0.031
2.200,-0.025
2.201,-0.022
2.202,-0.019
2.203,-0.022
2.204,-0.025
2.205,-0.025
2.206,-0.024
2.207,-0.022
2.208,-0.022
2.209,-0.019
2.210,-0.019
2.211,-0.022
2.212,-0.020
2.213,-0.025
2.214,-0.028
2.215,-0.028
2.216,-0.024
2.217,-0.022
2.218,-0.019
2.219,-0.013
2.220,-0.005
2.221,0.006
2.222,0.020
2.223,0.034
2.224,0.045
2.225,0.056
2.226,0.062
2.227,0.062
2.228,0.064
2.229,0.062
2.230,0.064
2.231,0.062
2.232,0.064
2.233,0.059
2.234,0.053
2.235,0.044
2.236,0.036
2.237,0.028
2.238,0.028
2.239,0.031
2.240,0.028
2.241,0.028
2.242,0.027
2.243,0.025
2.244,0.025
2.245,0.025
2.246,0.019
2.247,0.016
2.248,0.014
2.249,0.012
2.250,0.014
2.251,0.012
2.252,0.011
2.253,0.009
2.254,0.002
2.255,-0.006
2.256,-0.014
2.257,-0.025
2.258,-0.034
2.259,-0.034
2.260,-0.027
2.261,-0.019
2.262,-0.014
2.263,-0.016
2.264,-0.016
2.265,-0.019
2.266,-0.020
2.267,-0.025
2.268,-0.036
2.269,-0.050
2.270,-0.062
2.271,-0.075
2.272,-0.088
2.273,-0.097
2.274,-0.102
2.275,-0.109
2.276,-0.118
2.277,-0.122
2.278,-0.127
2.279,-0.134
2.280,-0.141
2.281,-0.141
2.282,-0.138
2.283,-0.138
2.284,-0.138
2.285,-0.138
2.286,-0.134
2.287,-0.134
2.288,-0.141
2.289,-0.144
2.290,-0.144
2.291,-0.150
2.292,-0.154
2.293,-0.156
2.294,-0.158
2.295,-0.163
2.296,-0.168
2.297,-0.166
2.298,-0.168
2.299,-0.166
2.300,-0.169
2.301,-0.169
2.302,-0.166
2.303,-0.163
2.304,-0.159
2.305,-0.156
2.306,-0.159
2.307,-0.159
2.308,-0.158
2.309,-0.159
2.310,-0.163
2.311,-0.159
2.312,-0.163
2.313,-0.169
2.314,-0.171
2.315,-0.172
2.316,-0.168
2.317,-0.166
2.318,-0.170
2.319,-0.169
2.320,-0.168
2.321,-0.166
2.322,-0.166
2.323,-0.166
2.324,-0.166
2.325,-0.166
2.326,-0.166
2.327,-0.166
2.328,-0.164
2.329,-0.163
2.330,-0.170
2.331,-0.172
2.332,-0.169
2.333,-0.169
2.334,-0.172
2.335,-0.172
2.336,-0.172
2.337,-0.169
2.338,-0.168
2.339,-0.166
2.340,-0.168
2.341,-0.163
2.342,-0.166
2.343,-0.166
2.344,-0.163
2.345,-0.163
2.346,-0.164
2.347,-0.163
2.348,-0.163
2.349,-0.166
2.350,-0.166
2.351,-0.166
2.352,-0.170
2.353,-0.169
2.354,-0.169
2.355,-0.169
2.356,-0.168
2.357,-0.166
2.358,-0.169
2.359,-0.166
2.360,-0.166
2.361,-0.166
2.362,-0.168
2.363,-0.175
2.364,-0.191
2.365,-0.203
2.366,-0.205
2.367,-0.203
2.368,-0.199
2.369,-0.194
2.370,-0.191
2.371,-0.184
2.372,-0.183
2.373,-0.184
2.374,-0.183
2.375,-0.191
2.376,-0.204
2.377,-0.216
2.378,-0.228
2.379,-0.228
2.380,-0.209
2.381,-0.178
2.382,-0.134
2.383,-0.078
2.384,-0.018
2.385,0.053
2.386,0.121
2.387,0.194
2.388,0.262
2.389,0.337
2.390,0.427
2.391,0.537
2.392,0.658
2.393,0.791
2.394,0.936
2.395,1.100
2.396,1.248
2.397,1.347
2.398,1.397
2.399,1.372
2.400,1.344
2.401,1.341
2.402,1.342
2.403,1.353
2.404,1.376
2.405,1.387
2.406,1.392
2.407,1.369
2.408,1.329
2.409,1.259
2.410,1.168
2.411,1.031
2.412,0.883
2.413,0.731
2.414,0.594
2.415,0.444
2.416,0.283
2.417,0.119
2.418,-0.026
2.419,-0.125
2.420,-0.168
2.421,-0.163
2.422,-0.131
2.423,-0.097
2.424,-0.075
2.425,-0.062
2.426,-0.050
2.427,-0.050
2.428,-0.058
2.429,-0.072
2.430,-0.084
2.431,-0.091
2.432,-0.086
2.433,-0.072
2.434,-0.064
2.435,-0.056
2.436,-0.050
2.437,-0.047
2.438,-0.039
2.439,-0.034
2.440,-0.033
2.441,-0.034
2.442,-0.034
2.443,-0.034
2.444,-0.033
2.445,-0.038
2.446,-0.036
2.447,-0.038
2.448,-0.034
2.449,-0.034
2.450,-0.033
2.451,-0.031
2.452,-0.047
2.453,-0.056
2.454,-0.059
2.455,-0.066
2.456,-0.068
2.457,-0.072
2.458,-0.079
2.459,-0.081
2.460,-0.080
2.461,-0.078
2.462,-0.075
2.463,-0.075
2.464,-0.075
2.465,-0.075
2.466,-0.071
2.467,-0.072
2.468,-0.074
2.469,-0.072
2.470,-0.076
2.471,-0.081
2.472,-0.081
2.473,-0.084
2.474,-0.086
2.475,-0.084
2.476,-0.081
2.477,-0.078
2.478,-0.078
2.479,-0.078
2.480,-0.077
2.481,-0.075
2.482,-0.075
2.483,-0.072
2.484,-0.071
2.485,-0.072
2.486,-0.079
2.487,-0.084
2.488,-0.081
2.489,-0.084
2.490,-0.089
2.491,-0.091
2.492,-0.086
2.493,-0.081
2.494,-0.081
2.495,-0.078
2.496,-0.078
2.497,-0.075
2.498,-0.069
2.499,-0.066
2.500,-0.067
2.501,-0.066
2.502,-0.067
2.503,-0.066
2.504,-0.068
2.505,-0.066
2.506,-0.064
2.507,-0.066
2.508,-0.066
2.509,-0.066
2.510,-0.061
2.511,-0.062
2.512,-0.064
2.513,-0.066
2.514,-0.066
2.515,-0.062
2.516,-0.058
2.517,-0.056
2.518,-0.059
2.519,-0.059
2.520,-0.056
2.521,-0.059
2.522,-0.054
2.523,-0.056
2.524,-0.056
2.525,-0.056
2.526,-0.052
2.527,-0.050
2.528,-0.051
2.529,-0.050
2.530,-0.050
2.531,-0.050
2.532,-0.047
2.533,-0.050
2.534,-0.046
2.535,-0.044
2.536,-0.045
2.537,-0.044
2.538,-0.045
2.539,-0.044
2.540,-0.039
2.541,-0.038
2.542,-0.030
2.543,-0.028
2.544,-0.029
2.545,-0.031
2.546,-0.029
2.547,-0.031
2.548,-0.033
2.549,-0.031
2.550,-0.029
2.551,-0.031
2.552,-0.030
2.553,-0.025
2.554,-0.023
2.555,-0.019
2.556,-0.021
2.557,-0.019
2.558,-0.019
2.559,-0.019
2.560,-0.016
2.561,-0.013
2.562,-0.009
2.563,-0.009
2.564,-0.006
2.565,-0.003
2.566,0.001
2.567,0.003
2.568,0.002
2.569,0.003
2.570,0.000
2.571,0.003
2.572,0.000
2.573,0.003
2.574,0.003
2.575,0.006
2.576,0.005
2.577,0.009
2.578,0.008
2.579,0.009
2.580,0.012
2.581,0.016
2.582,0.019
2.583,0.022
2.584,0.022
2.585,0.025
2.586,0.027
2.587,0.025
2.588,0.028
2.589,0.028
2.590,0.028
2.591,0.031
2.592,0.036
2.593,0.041
2.594,0.042
2.595,0.041
2.596,0.042
2.597,0.041
2.598,0.045
2.599,0.047
2.600,0.047
2.601,0.050
2.602,0.051
2.603,0.056
2.604,0.058
2.605,0.059
2.606,0.066
2.607,0.072
2.608,0.076
2.609,0.078
2.610,0.083
2.611,0.081
2.612,0.081
2.613,0.081
2.614,0.081
2.615,0.078
2.616,0.087
2.617,0.091
2.618,0.092
2.619,0.097
2.620,0.099
2.621,0.100
2.622,0.097
2.623,0.097
2.624,0.104
2.625,0.109
2.626,0.112
2.627,0.116
2.628,0.114
2.629,0.116
2.630,0.112
2.631,0.116
2.632,0.122
2.633,0.122
2.634,0.128
2.635,0.131
2.636,0.131
2.637,0.131
2.638,0.138
2.639,0.138
2.640,0.141
2.641,0.147
2.642,0.151
2.643,0.153
2.644,0.155
2.645,0.153
2.646,0.154
2.647,0.159
2.648,0.162
2.649,0.172
2.650,0.175
2.651,0.178
2.652,0.178
2.653,0.178
2.654,0.174
2.655,0.172
2.656,0.175
2.657,0.175
2.658,0.179
2.659,0.181
2.660,0.184
2.661,0.187
2.662,0.191
2.663,0.187
2.664,0.189
2.665,0.194
2.666,0.197
2.667,0.206
2.668,0.202
2.669,0.206
2.670,0.206
2.671,0.206
2.672,0.211
2.673,0.209
2.674,0.209
2.675,0.209
2.676,0.214
2.677,0.216
2.678,0.219
2.679,0.219
2.680,0.218
2.681,0.216
2.682,0.216
2.683,0.219
2.684,0.218
2.685,0.219
2.686,0.216
2.687,0.216
2.688,0.219
2.689,0.219
2.690,0.223
2.691,0.225
2.692,0.228
2.693,0.228
2.694,0.228
2.695,0.228
2.696,0.224
2.697,0.219
2.698,0.218
2.699,0.216
2.700,0.220
2.701,0.222
2.702,0.225
2.703,0.228
2.704,0.232
2.705,0.234
2.706,0.236
2.707,0.234
2.708,0.233
2.709,0.231
2.710,0.231
2.711,0.231
2.712,0.231
2.713,0.231
2.714,0.225
2.715,0.225
2.716,0.224
2.717,0.228
2.718,0.229
2.719,0.228
2.720,0.231
2.721,0.234
2.722,0.233
2.723,0.234
2.724,0.231
2.725,0.234
2.726,0.236
2.727,0.241
2.728,0.242
2.729,0.241
2.730,0.242
2.731,0.241
2.732,0.239
2.733,0.238
2.734,0.241
2.735,0.244
2.736,0.239
2.737,0.238
2.738,0.241
2.739,0.238
2.740,0.238
2.741,0.234
2.742,0.236
2.743,0.234
2.744,0.231
2.745,0.231
2.746,0.232
2.747,0.231
2.748,0.233
2.749,0.228
2.750,0.228
2.751,0.225
2.752,0.225
2.753,0.225
2.754,0.225
2.755,0.225
2.756,0.222
2.757,0.216
2.758,0.212
2.759,0.212
2.760,0.212
2.761,0.209
2.762,0.204
2.763,0.203
2.764,0.200
2.765,0.200
2.766,0.200
2.767,0.197
2.768,0.189
2.769,0.184
2.770,0.183
2.771,0.175
2.772,0.174
2.773,0.169
2.774,0.162
2.775,0.156
2.776,0.153
2.777,0.147
2.778,0.142
2.779,0.138
2.780,0.130
2.781,0.122
2.782,0.122
2.783,0.119
2.784,0.120
2.785,0.116
2.786,0.112
2.787,0.106
2.788,0.100
2.789,0.094
2.790,0.094
2.791,0.087
2.792,0.084
2.793,0.075
2.794,0.069
2.795,0.066
2.796,0.069
2.797,0.066
2.798,0.064
2.799,0.062
2.800,0.059
2.801,0.056
2.802,0.047
2.803,0.041
2.804,0.036
2.805,0.031
2.806,0.026
2.807,0.025
2.808,0.022
2.809,0.016
2.810,0.014
2.811,0.009
2.812,0.004
2.813,0.003
2.814,0.000
2.815,0.000
2.816,0.000
2.817,-0.006
2.818,-0.009
2.819,-0.013
2.820,-0.016
2.821,-0.016
2.822,-0.016
2.823,-0.019
2.824,-0.023
2.825,-0.028
2.826,-0.030
2.827,-0.031
2.828,-0.031
2.829,-0.034
2.830,-0.038
2.831,-0.044
2.832,-0.042
2.833,-0.044
2.834,-0.045
2.835,-0.047
2.836,-0.049
2.837,-0.047
2.838,-0.050
2.839,-0.050
2.840,-0.049
2.841,-0.050
2.842,-0.053
2.843,-0.053
2.844,-0.054
2.845,-0.056
2.846,-0.061
2.847,-0.062
2.848,-0.062
2.849,-0.062
2.850,-0.067
2.851,-0.069
2.852,-0.071
2.853,-0.069
2.854,-0.069
2.855,-0.069
2.856,-0.068
2.857,-0.069
2.858,-0.070
2.859,-0.072
2.860,-0.069
2.861,-0.066
2.862,-0.066
2.863,-0.066
2.864,-0.069
2.865,-0.069
2.866,-0.066
2.867,-0.066
2.868,-0.066
2.869,-0.066
2.870,-0.067
2.871,-0.069
2.872,-0.070
2.873,-0.072
2.874,-0.075
2.875,-0.072
2.876,-0.069
2.877,-0.069
2.878,-0.073
2.879,-0.069
2.880,-0.072
2.881,-0.072
2.882,-0.068
2.883,-0.066
2.884,-0.066
2.885,-0.066
2.886,-0.067
2.887,-0.069
2.888,-0.076
2.889,-0.075
2.890,-0.076
2.891,-0.078
2.892,-0.078
2.893,-0.078
2.894,-0.078
2.895,-0.078
2.896,-0.077
2.897,-0.078
2.898,-0.077
2.899,-0.075
2.900,-0.075
2.901,-0.078
2.902,-0.078
2.903,-0.078
2.904,-0.080
2.905,-0.075
2.906,-0.076
2.907,-0.078
2.908,-0.081
2.909,-0.081
2.910,-0.077
2.911,-0.075
2.912,-0.078
2.913,-0.078
2.914,-0.078
2.915,-0.078
2.916,-0.078
2.917,-0.078
2.918,-0.079
2.919,-0.081
2.920,-0.082
2.921,-0.084
2.922,-0.086
2.923,-0.084
2.924,-0.084
2.925,-0.084
2.926,-0.083
2.927,-0.081
2.928,-0.080
2.929,-0.078
2.930,-0.080
2.931,-0.075
2.932,-0.077
2.933,-0.075
2.934,-0.079
2.935,-0.088
2.936,-0.088
2.937,-0.088
2.938,-0.083
2.939,-0.081
2.940,-0.086
2.941,-0.084
2.942,-0.083
2.943,-0.081
2.944,-0.078
2.945,-0.078
2.946,-0.080
2.947,-0.081
2.948,-0.082
2.949,-0.081
2.950,-0.084
2.951,-0.084
2.952,-0.086
2.953,-0.088
2.954,-0.083
2.955,-0.081
2.956,-0.079
2.957,-0.081
2.958,-0.084
2.959,-0.081
2.960,-0.088
2.961,-0.084
2.962,-0.083
2.963,-0.084
2.964,-0.084
2.965,-0.084
2.966,-0.084
2.967,-0.081
2.968,-0.081
2.969,-0.084
2.970,-0.088
2.971,-0.091
2.972,-0.088
2.973,-0.088
2.974,-0.091
2.975,-0.091
2.976,-0.089
2.977,-0.088
2.978,-0.088
2.979,-0.088
2.980,-0.088
2.981,-0.088
2.982,-0.089
2.983,-0.091
2.984,-0.094
2.985,-0.097
2.986,-0.096
2.987,-0.091
2.988,-0.088
2.989,-0.088
2.990,-0.084
2.991,-0.088
2.992,-0.088
2.993,-0.088
2.994,-0.088
2.995,-0.088
2.996,-0.092
2.997,-0.097
2.998,-0.100
2.999,-0.103
3.000,-0.104
3.001,-0.106
3.002,-0.102
3.003,-0.103
3.004,-0.103
3.005,-0.103
3.006,-0.104
3.007,-0.106
3.008,-0.106
3.009,-0.106
3.010,-0.106
3.011,-0.103
3.012,-0.105
3.013,-0.103
3.014,-0.102
3.015,-0.100
3.016,-0.100
3.017,-0.100
3.018,-0.100
3.019,-0.100
3.020,-0.100
3.021,-0.100
3.022,-0.101
3.023,-0.103
3.024,-0.106
3.025,-0.106
3.026,-0.106
3.027,-0.106
3.028,-0.109
3.029,-0.106
3.030,-0.108
3.031,-0.106
3.032,-0.105
3.033,-0.103
3.034,-0.106
3.035,-0.109
3.036,-0.108
3.037,-0.109
3.038,-0.108
3.039,-0.109
3.040,-0.108
3.041,-0.109
3.042,-0.108
3.043,-0.106
3.044,-0.104
3.045,-0.106
3.046,-0.109
3.047,-0.109
3.048,-0.108
3.049,-0.109
3.050,-0.113
3.051,-0.113
3.052,-0.111
3.053,-0.113
3.054,-0.113
3.055,-0.113
3.056,-0.114
3.057,-0.116
3.058,-0.116
3.059,-0.116
3.060,-0.111
3.061,-0.109
3.062,-0.113
3.063,-0.116
3.064,-0.119
3.065,-0.119
3.066,-0.118
3.067,-0.116
3.068,-0.116
3.069,-0.116
3.070,-0.117
3.071,-0.119
3.072,-0.119
3.073,-0.116
3.074,-0.113
3.075,-0.116
3.076,-0.114
3.077,-0.116
3.078,-0.116
3.079,-0.119
3.080,-0.122
3.081,-0.122
3.082,-0.119
3.083,-0.113
3.084,-0.114
3.085,-0.116
3.086,-0.116
3.087,-0.116
3.088,-0.116
3.089,-0.116
3.090,-0.116
3.091,-0.119
3.092,-0.118
3.093,-0.116
3.094,-0.119
3.095,-0.119
3.096,-0.118
3.097,-0.119
3.098,-0.116
3.099,-0.116
3.100,-0.114
3.101,-0.116
3.102,-0.116
3.103,-0.119
3.104,-0.118
3.105,-0.113
3.106,-0.113
3.107,-0.113
3.108,-0.113
3.109,-0.113
3.110,-0.111
3.111,-0.113
3.112,-0.113
3.113,-0.113
3.114,-0.114
3.115,-0.116
3.116,-0.114
3.117,-0.113
3.118,-0.114
3.119,-0.116
3.120,-0.114
3.121,-0.116
3.122,-0.116
3.123,-0.119
3.124,-0.122
3.125,-0.122
3.126,-0.119
3.127,-0.119
3.128,-0.118
3.129,-0.116
3.130,-0.116
3.131,-0.116
3.132,-0.114
3.133,-0.113
3.134,-0.117
3.135,-0.116
3.136,-0.116
3.137,-0.116
3.138,-0.114
3.139,-0.116
3.140,-0.116
3.141,-0.116
3.142,-0.114
3.143,-0.113
3.144,-0.108
3.145,-0.109
3.146,-0.113
3.147,-0.113
3.148,-0.113
3.149,-0.109
3.150,-0.113
3.151,-0.119
3.152,-0.114
3.153,-0.116
3.154,-0.120
3.155,-0.119
3.156,-0.119
3.157,-0.116
3.158,-0.117
3.159,-0.119
3.160,-0.114
3.161,-0.116
3.162,-0.114
3.163,-0.116
3.164,-0.116
3.165,-0.116
3.166,-0.114
3.167,-0.113
3.168,-0.108
3.169,-0.109
3.170,-0.111
3.171,-0.109
3.172,-0.114
3.173,-0.116
3.174,-0.114
3.175,-0.116
3.176,-0.114
3.177,-0.113
3.178,-0.113
3.179,-0.109
3.180,-0.111
3.181,-0.109
3.182,-0.109
3.183,-0.109
3.184,-0.113
3.185,-0.116
3.186,-0.116
3.187,-0.116
3.188,-0.119
3.189,-0.119
3.190,-0.119
3.191,-0.119
3.192,-0.116
3.193,-0.116
3.194,-0.116
3.195,-0.113
3.196,-0.119
3.197,-0.119
3.198,-0.122
3.199,-0.119
3.200,-0.116
3.201,-0.113
3.202,-0.114
3.203,-0.113
3.204,-0.113
3.205,-0.113
3.206,-0.114
3.207,-0.116
3.208,-0.119
3.209,-0.122
3.210,-0.122
3.211,-0.122
3.212,-0.122
3.213,-0.122
3.214,-0.124
3.215,-0.119
3.216,-0.119
3.217,-0.119
3.218,-0.120
3.219,-0.122
3.220,-0.118
3.221,-0.122
3.222,-0.126
3.223,-0.125
3.224,-0.119
3.225,-0.116
3.226,-0.116
3.227,-0.116
3.228,-0.119
3.229,-0.125
3.230,-0.128
3.231,-0.128
3.232,-0.122
3.233,-0.119
3.234,-0.116
3.235,-0.119
3.236,-0.123
3.237,-0.122
3.238,-0.122
3.239,-0.125
3.240,-0.123
3.241,-0.125
3.242,-0.127
3.243,-0.125
3.244,-0.118
3.245,-0.116
3.246,-0.119
3.247,-0.122
3.248,-0.119
3.249,-0.119
3.250,-0.116
3.251,-0.119
3.252,-0.122
3.253,-0.122
3.254,-0.119
3.255,-0.122
3.256,-0.123
3.257,-0.125
3.258,-0.124
3.259,-0.122
3.260,-0.121
3.261,-0.116
3.262,-0.117
3.263,-0.122
3.264,-0.122
3.265,-0.122
3.266,-0.126
3.267,-0.125
3.268,-0.125
3.269,-0.125
3.270,-0.125
3.271,-0.122
3.272,-0.122
3.273,-0.122
3.274,-0.124
3.275,-0.122
3.276,-0.116
3.277,-0.109
3.278,-0.109
3.279,-0.109
3.280,-0.111
3.281,-0.109
3.282,-0.111
3.283,-0.113
3.284,-0.113
3.285,-0.113
3.286,-0.114
3.287,-0.113
3.288,-0.111
3.289,-0.109
3.290,-0.108
3.291,-0.106
3.292,-0.102
3.293,-0.097
3.294,-0.091
3.295,-0.084
3.296,-0.078
3.297,-0.072
3.298,-0.068
3.299,-0.062
3.300,-0.064
3.301,-0.062
3.302,-0.061
3.303,-0.059
3.304,-0.053
3.305,-0.047
3.306,-0.041
3.307,-0.038
3.308,-0.031
3.309,-0.031
3.310,-0.031
3.311,-0.028
3.312,-0.027
3.313,-0.025
3.314,-0.025
3.315,-0.022
3.316,-0.019
3.317,-0.019
3.318,-0.014
3.319,-0.016
3.320,-0.018
3.321,-0.016
3.322,-0.016
3.323,-0.019
3.324,-0.020
3.325,-0.019
3.326,-0.013
3.327,-0.003
3.328,0.002
3.329,0.006
3.330,0.017
3.331,0.028
3.332,0.045
3.333,0.056
3.334,0.061
3.335,0.062
3.336,0.066
3.337,0.066
3.338,0.069
3.339,0.066
3.340,0.061
3.341,0.053
3.342,0.048
3.343,0.044
3.344,0.033
3.345,0.025
3.346,0.019
3.347,0.016
3.348,0.016
3.349,0.016
3.350,0.016
3.351,0.016
3.352,0.014
3.353,0.016
3.354,0.012
3.355,0.009
3.356,0.012
3.357,0.012
3.358,0.014
3.359,0.016
3.360,0.014
3.361,0.012
3.362,0.003
3.363,-0.009
3.364,-0.022
3.365,-0.025
3.366,-0.023
3.367,-0.022
3.368,-0.016
3.369,-0.016
3.370,-0.013
3.371,-0.013
3.372,-0.013
3.373,-0.016
3.374,-0.019
3.375,-0.025
3.376,-0.033
3.377,-0.041
3.378,-0.054
3.379,-0.066
3.380,-0.071
3.381,-0.078
3.382,-0.086
3.383,-0.091
3.384,-0.100
3.385,-0.113
3.386,-0.126
3.387,-0.134
3.388,-0.134
3.389,-0.138
3.390,-0.138
3.391,-0.138
3.392,-0.131
3.393,-0.128
3.394,-0.131
3.395,-0.131
3.396,-0.130
3.397,-0.134
3.398,-0.139
3.399,-0.141
3.400,-0.139
3.401,-0.141
3.402,-0.147
3.403,-0.147
3.404,-0.150
3.405,-0.150
3.406,-0.153
3.407,-0.153
3.408,-0.153
3.409,-0.153
3.410,-0.151
3.411,-0.150
3.412,-0.156
3.413,-0.159
3.414,-0.156
3.415,-0.156
3.416,-0.161
3.417,-0.159
3.418,-0.156
3.419,-0.156
3.420,-0.156
3.421,-0.156
3.422,-0.156
3.423,-0.159
3.424,-0.163
3.425,-0.159
3.426,-0.158
3.427,-0.156
3.428,-0.156
3.429,-0.156
3.430,-0.158
3.431,-0.159
3.432,-0.161
3.433,-0.163
3.434,-0.161
3.435,-0.159
3.436,-0.164
3.437,-0.163
3.438,-0.161
3.439,-0.163
3.440,-0.164
3.441,-0.163
3.442,-0.163
3.443,-0.159
3.444,-0.159
3.445,-0.159
3.446,-0.163
3.447,-0.159
3.448,-0.158
3.449,-0.153
3.450,-0.147
3.451,-0.144
3.452,-0.147
3.453,-0.147
3.454,-0.150
3.455,-0.156
3.456,-0.153
3.457,-0.150
3.458,-0.153
3.459,-0.150
3.460,-0.150
3.461,-0.150
3.462,-0.153
3.463,-0.156
3.464,-0.156
3.465,-0.150
3.466,-0.149
3.467,-0.147
3.468,-0.149
3.469,-0.156
3.470,-0.172
3.471,-0.184
3.472,-0.188
3.473,-0.188
3.474,-0.184
3.475,-0.181
3.476,-0.180
3.477,-0.175
3.478,-0.171
3.479,-0.169
3.480,-0.163
3.481,-0.166
3.482,-0.178
3.483,-0.188
3.484,-0.198
3.485,-0.197
3.486,-0.188
3.487,-0.166
3.488,-0.134
3.489,-0.091
3.490,-0.036
3.491,0.028
3.492,0.096
3.493,0.169
3.494,0.239
3.495,0.316
3.496,0.394
3.497,0.494
3.498,0.608
3.499,0.734
3.500,0.880
3.501,1.044
3.502,1.228
3.503,1.362
3.504,1.432
3.505,1.428
3.506,1.399
3.507,1.394
3.508,1.397
3.509,1.409
3.510,1.439
3.511,1.456
3.512,1.473
3.513,1.462
3.514,1.436
3.515,1.378
3.516,1.300
3.517,1.178
3.518,1.032
3.519,0.884
3.520,0.754
3.521,0.613
3.522,0.439
3.523,0.262
3.524,0.096
3.525,-0.025
3.526,-0.084
3.527,-0.097
3.528,-0.076
3.529,-0.053
3.530,-0.034
3.531,-0.025
3.532,-0.016
3.533,-0.019
3.534,-0.028
3.535,-0.044
3.536,-0.062
3.537,-0.075
3.538,-0.081
3.539,-0.078
3.540,-0.069
3.541,-0.059
3.542,-0.049
3.543,-0.041
3.544,-0.033
3.545,-0.028
3.546,-0.027
3.547,-0.028
3.548,-0.028
3.549,-0.028
3.550,-0.025
3.551,-0.028
3.552,-0.024
3.553,-0.022
3.554,-0.019
3.555,-0.019
3.556,-0.023
3.557,-0.028
3.558,-0.039
3.559,-0.044
3.560,-0.047
3.561,-0.053
3.562,-0.053
3.563,-0.056
3.564,-0.062
3.565,-0.062
3.566,-0.066
3.567,-0.069
3.568,-0.066
3.569,-0.066
3.570,-0.064
3.571,-0.062
3.572,-0.059
3.573,-0.062
3.574,-0.069
3.575,-0.072
3.576,-0.074
3.577,-0.075
3.578,-0.072
3.579,-0.072
3.580,-0.075
3.581,-0.075
3.582,-0.075
3.583,-0.075
3.584,-0.075
3.585,-0.075
3.586,-0.074
3.587,-0.072
3.588,-0.073
3.589,-0.072
3.590,-0.071
3.591,-0.072
3.592,-0.075
3.593,-0.075
3.594,-0.071
3.595,-0.072
3.596,-0.075
3.597,-0.075
3.598,-0.073
3.599,-0.072
3.600,-0.075
3.601,-0.075
3.602,-0.074
3.603,-0.069
3.604,-0.067
3.605,-0.069
3.606,-0.069
3.607,-0.066
3.608,-0.067
3.609,-0.066
3.610,-0.062
3.611,-0.056
3.612,-0.055
3.613,-0.056
3.614,-0.058
3.615,-0.059
3.616,-0.054
3.617,-0.056
3.618,-0.052
3.619,-0.047
3.620,-0.050
3.621,-0.050
3.622,-0.048
3.623,-0.050
3.624,-0.053
3.625,-0.053
3.626,-0.049
3.627,-0.050
3.628,-0.044
3.629,-0.044
3.630,-0.042
3.631,-0.041
3.632,-0.036
3.633,-0.034
3.634,-0.036
3.635,-0.034
3.636,-0.036
3.637,-0.038
3.638,-0.034
3.639,-0.038
3.640,-0.034
3.641,-0.034
3.642,-0.036
3.643,-0.034
3.644,-0.036
3.645,-0.034
3.646,-0.033
3.647,-0.034
3.648,-0.028
3.649,-0.028
3.650,-0.025
3.651,-0.022
3.652,-0.020
3.653,-0.022
3.654,-0.023
3.655,-0.022
3.656,-0.018
3.657,-0.016
3.658,-0.016
3.659,-0.013
3.660,-0.011
3.661,-0.006
3.662,-0.009
3.663,-0.009
3.664,-0.011
3.665,-0.013
3.666,-0.006
3.667,0.000
3.668,0.000
3.669,-0.003
3.670,-0.003
3.671,-0.003
3.672,0.001
3.673,0.003
3.674,0.004
3.675,0.009
3.676,0.009
3.677,0.016
3.678,0.011
3.679,0.012
3.680,0.012
3.681,0.016
3.682,0.019
3.683,0.028
3.684,0.027
3.685,0.028
3.686,0.028
3.687,0.028
3.688,0.028
3.689,0.028
3.690,0.029
3.691,0.034
3.692,0.039
3.693,0.041
3.694,0.042
3.695,0.041
3.696,0.041
3.697,0.044
3.698,0.048
3.699,0.053
3.700,0.055
3.701,0.053
3.702,0.055
3.703,0.053
3.704,0.058
3.705,0.059
3.706,0.058
3.707,0.059
3.708,0.061
3.709,0.066
3.710,0.064
3.711,0.062
3.712,0.067
3.713,0.072
3.714,0.075
3.715,0.075
3.716,0.082
3.717,0.084
3.718,0.084
3.719,0.084
3.720,0.091
3.721,0.094
3.722,0.097
3.723,0.094
3.724,0.092
3.725,0.094
3.726,0.097
3.727,0.100
3.728,0.103
3.729,0.109
3.730,0.116
3.731,0.119
3.732,0.122
3.733,0.125
3.734,0.128
3.735,0.134
3.736,0.128
3.737,0.128
3.738,0.133
3.739,0.131
3.740,0.133
3.741,0.131
3.742,0.134
3.743,0.138
3.744,0.142
3.745,0.141
3.746,0.139
3.747,0.141
3.748,0.144
3.749,0.144
3.750,0.153
3.751,0.159
3.752,0.164
3.753,0.172
3.754,0.171
3.755,0.175
3.756,0.177
3.757,0.178
3.758,0.179
3.759,0.181
3.760,0.180
3.761,0.181
3.762,0.183
3.763,0.181
3.764,0.187
3.765,0.191
3.766,0.191
3.767,0.191
3.768,0.196
3.769,0.194
3.770,0.194
3.771,0.197
3.772,0.196
3.773,0.200
3.774,0.196
3.775,0.200
3.776,0.203
3.777,0.206
3.778,0.211
3.779,0.209
3.780,0.208
3.781,0.206
3.782,0.208
3.783,0.206
3.784,0.212
3.785,0.216
3.786,0.217
3.787,0.219
3.788,0.218
3.789,0.219
3.790,0.218
3.791,0.219
3.792,0.216
3.793,0.216
3.794,0.219
3.795,0.219
3.796,0.216
3.797,0.209
3.798,0.212
3.799,0.212
3.800,0.212
3.801,0.212
3.802,0.216
3.803,0.219
3.804,0.222
3.805,0.225
3.806,0.227
3.807,0.225
3.808,0.225
3.809,0.225
3.810,0.229
3.811,0.231
3.812,0.230
3.813,0.225
3.814,0.222
3.815,0.219
3.816,0.219
3.817,0.219
3.818,0.219
3.819,0.219
3.820,0.219
3.821,0.225
3.822,0.221
3.823,0.222
3.824,0.223
3.825,0.222
3.826,0.225
3.827,0.228
3.828,0.228
3.829,0.231
3.830,0.227
3.831,0.228
3.832,0.227
3.833,0.228
3.834,0.228
3.835,0.225
3.836,0.228
3.837,0.228
3.838,0.228
3.839,0.228
3.840,0.230
3.841,0.231
3.842,0.229
3.843,0.231
3.844,0.234
3.845,0.231
3.846,0.232
3.847,0.231
3.848,0.234
3.849,0.234
3.850,0.233
3.851,0.234
3.852,0.231
3.853,0.225
3.854,0.229
3.855,0.228
3.856,0.228
3.857,0.225
3.858,0.226
3.859,0.228
3.860,0.228
3.861,0.228
3.862,0.226
3.863,0.222
3.864,0.216
3.865,0.212
3.866,0.212
3.867,0.209
3.868,0.203
3.869,0.200
3.870,0.197
3.871,0.197
3.872,0.200
3.873,0.200
3.874,0.192
3.875,0.187
3.876,0.189
3.877,0.184
3.878,0.183
3.879,0.178
3.880,0.172
3.881,0.166
3.882,0.167
3.883,0.166
3.884,0.164
3.885,0.162
3.886,0.155
3.887,0.147
3.888,0.139
3.889,0.128
3.890,0.128
3.891,0.122
3.892,0.123
3.893,0.122
3.894,0.119
3.895,0.116
3.896,0.111
3.897,0.100
3.898,0.103
3.899,0.100
3.900,0.097
3.901,0.097
3.902,0.092
3.903,0.081
3.904,0.075
3.905,0.069
3.906,0.062
3.907,0.056
3.908,0.051
3.909,0.050
3.910,0.050
3.911,0.050
3.912,0.042
3.913,0.038
3.914,0.034
3.915,0.028
3.916,0.028
3.917,0.025
3.918,0.016
3.919,0.009
3.920,0.006
3.921,0.006
3.922,0.006
3.923,0.000
3.924,-0.003
3.925,-0.006
3.926,-0.009
3.927,-0.009
3.928,-0.009
3.929,-0.013
3.930,-0.016
3.931,-0.019
3.932,-0.022
3.933,-0.025
3.934,-0.028
3.935,-0.034
3.936,-0.033
3.937,-0.034
3.938,-0.033
3.939,-0.034
3.940,-0.034
3.941,-0.034
3.942,-0.042
3.943,-0.047
3.944,-0.050
3.945,-0.050
3.946,-0.047
3.947,-0.047
3.948,-0.050
3.949,-0.050
3.950,-0.050
3.951,-0.050
3.952,-0.056
3.953,-0.059
3.954,-0.058
3.955,-0.056
3.956,-0.058
3.957,-0.056
3.958,-0.062
3.959,-0.066
3.960,-0.066
3.961,-0.066
3.962,-0.064
3.963,-0.066
3.964,-0.059
3.965,-0.053
3.966,-0.053
3.967,-0.053
3.968,-0.054
3.969,-0.056
3.970,-0.059
3.971,-0.059
3.972,-0.058
3.973,-0.059
3.974,-0.062
3.975,-0.066
3.976,-0.062
3.977,-0.059
3.978,-0.061
3.979,-0.062
3.980,-0.066
3.981,-0.062
3.982,-0.064
3.983,-0.069
3.984,-0.073
3.985,-0.069
3.986,-0.073
3.987,-0.075
3.988,-0.073
3.989,-0.075
3.990,-0.074
3.991,-0.072
3.992,-0.072
3.993,-0.072
3.994,-0.077
3.995,-0.072
3.996,-0.071
3.997,-0.069
3.998,-0.069
3.999,-0.069
4.000,-0.072
4.001,-0.075
4.002,-0.075
4.003,-0.078
4.004,-0.077
4.005,-0.075
4.006,-0.072
4.007,-0.072
4.008,-0.071
4.009,-0.069
4.010,-0.071
4.011,-0.066
4.012,-0.066
4.013,-0.066
4.014,-0.069
4.015,-0.069
4.016,-0.066
4.017,-0.066
4.018,-0.070
4.019,-0.072
4.020,-0.069
4.021,-0.066
4.022,-0.066
4.023,-0.066
4.024,-0.067
4.025,-0.069
4.026,-0.069
4.027,-0.069
4.028,-0.072
4.029,-0.072
4.030,-0.073
4.031,-0.075
4.032,-0.075
4.033,-0.075
4.034,-0.074
4.035,-0.072
4.036,-0.075
4.037,-0.072
4.038,-0.074
4.039,-0.072
4.040,-0.071
4.041,-0.072
4.042,-0.072
4.043,-0.072
4.044,-0.069
4.045,-0.069
4.046,-0.073
4.047,-0.072
4.048,-0.072
4.049,-0.072
4.050,-0.069
4.051,-0.069
4.052,-0.071
4.053,-0.072
4.054,-0.073
4.055,-0.072
4.056,-0.074
4.057,-0.072
4.058,-0.074
4.059,-0.075
4.060,-0.073
4.061,-0.075
4.062,-0.076
4.063,-0.081
4.064,-0.084
4.065,-0.081
4.066,-0.083
4.067,-0.075
4.068,-0.075
4.069,-0.078
4.070,-0.077
4.071,-0.075
4.072,-0.079
4.073,-0.081
4.074,-0.078
4.075,-0.078
4.076,-0.080
4.077,-0.081
4.078,-0.079
4.079,-0.081
4.080,-0.084
4.081,-0.084
4.082,-0.084
4.083,-0.084
4.084,-0.083
4.085,-0.081
4.086,-0.084
4.087,-0.088
4.088,-0.089
4.089,-0.091
4.090,-0.091
4.091,-0.091
4.092,-0.095
4.093,-0.097
4.094,-0.094
4.095,-0.094
4.096,-0.091
4.097,-0.094
4.098,-0.094
4.099,-0.094
4.100,-0.092
4.101,-0.091
4.102,-0.093
4.103,-0.094
4.104,-0.094
4.105,-0.094
4.106,-0.093
4.107,-0.091
4.108,-0.086
4.109,-0.088
4.110,-0.089
4.111,-0.091
4.112,-0.094
4.113,-0.097
4.114,-0.094
4.115,-0.091
4.116,-0.092
4.117,-0.091
4.118,-0.093
4.119,-0.091
4.120,-0.091
4.121,-0.091
4.122,-0.094
4.123,-0.097
4.124,-0.098
4.125,-0.100
4.126,-0.097
4.127,-0.094
4.128,-0.094
4.129,-0.094
4.130,-0.098
4.131,-0.100
4.132,-0.101
4.133,-0.103
4.134,-0.106
4.135,-0.103
4.136,-0.105
4.137,-0.103
4.138,-0.099
4.139,-0.094
4.140,-0.094
4.141,-0.094
4.142,-0.093
4.143,-0.094
4.144,-0.094
4.145,-0.097
4.146,-0.100
4.147,-0.106
4.148,-0.105
4.149,-0.103
4.150,-0.100
4.151,-0.100
4.152,-0.103
4.153,-0.103
4.154,-0.103
4.155,-0.106
4.156,-0.106
4.157,-0.103
4.158,-0.102
4.159,-0.103
4.160,-0.104
4.161,-0.106
4.162,-0.108
4.163,-0.109
4.164,-0.109
4.165,-0.109
4.166,-0.105
4.167,-0.103
4.168,-0.103
4.169,-0.103
4.170,-0.106
4.171,-0.106
4.172,-0.111
4.173,-0.116
4.174,-0.116
4.175,-0.116
4.176,-0.113
4.177,-0.109
4.178,-0.113
4.179,-0.113
4.180,-0.111
4.181,-0.116
4.182,-0.114
4.183,-0.116
4.184,-0.111
4.185,-0.109
4.186,-0.113
4.187,-0.113
4.188,-0.114
4.189,-0.113
4.190,-0.113
4.191,-0.113
4.192,-0.111
4.193,-0.109
4.194,-0.109
4.195,-0.109
4.196,-0.111
4.197,-0.116
4.198,-0.114
4.199,-0.113
4.200,-0.116
4.201,-0.116
4.202,-0.117
4.203,-0.122
4.204,-0.120
4.205,-0.122
4.206,-0.120
4.207,-0.122
4.208,-0.121
4.209,-0.122
4.210,-0.119
4.211,-0.113
4.212,-0.113
4.213,-0.113
4.214,-0.113
4.215,-0.113
4.216,-0.111
4.217,-0.113
4.218,-0.117
4.219,-0.119
4.220,-0.119
4.221,-0.116
4.222,-0.119
4.223,-0.119
4.224,-0.123
4.225,-0.122
4.226,-0.119
4.227,-0.119
4.228,-0.120
4.229,-0.122
4.230,-0.126
4.231,-0.128
4.232,-0.128
4.233,-0.131
4.234,-0.127
4.235,-0.128
4.236,-0.128
4.237,-0.125
4.238,-0.125
4.239,-0.125
4.240,-0.125
4.241,-0.125
4.242,-0.125
4.243,-0.125
4.244,-0.125
4.245,-0.125
4.246,-0.122
4.247,-0.119
4.248,-0.121
4.249,-0.116
4.250,-0.117
4.251,-0.122
4.252,-0.123
4.253,-0.122
4.254,-0.121
4.255,-0.119
4.256,-0.119
4.257,-0.119
4.258,-0.120
4.259,-0.122
4.260,-0.118
4.261,-0.116
4.262,-0.116
4.263,-0.119
4.264,-0.119
4.265,-0.119
4.266,-0.122
4.267,-0.122
4.268,-0.123
4.269,-0.125
4.270,-0.125
4.271,-0.122
4.272,-0.124
4.273,-0.125
4.274,-0.126
4.275,-0.128
4.276,-0.121
4.277,-0.116
4.278,-0.120
4.279,-0.119
4.280,-0.126
4.281,-0.134
4.282,-0.128
4.283,-0.125
4.284,-0.123
4.285,-0.125
4.286,-0.126
4.287,-0.125
4.288,-0.125
4.289,-0.122
4.290,-0.125
4.291,-0.125
4.292,-0.125
4.293,-0.125
4.294,-0.126
4.295,-0.125
4.296,-0.129
4.297,-0.131
4.298,-0.127
4.299,-0.128
4.300,-0.129
4.301,-0.128
4.302,-0.131
4.303,-0.131
4.304,-0.128
4.305,-0.131
4.306,-0.127
4.307,-0.125
4.308,-0.125
4.309,-0.125
4.310,-0.125
4.311,-0.125
4.312,-0.125
4.313,-0.125
4.314,-0.125
4.315,-0.128
4.316,-0.128
4.317,-0.128
4.318,-0.128
4.319,-0.128
4.320,-0.130
4.321,-0.128
4.322,-0.126
4.323,-0.131
4.324,-0.128
4.325,-0.131
4.326,-0.128
4.327,-0.128
4.328,-0.129
4.329,-0.131
4.330,-0.128
4.331,-0.128
4.332,-0.128
4.333,-0.128
4.334,-0.127
4.335,-0.125
4.336,-0.125
4.337,-0.125
4.338,-0.124
4.339,-0.125
4.340,-0.131
4.341,-0.138
4.342,-0.138
4.343,-0.138
4.344,-0.131
4.345,-0.128
4.346,-0.129
4.347,-0.128
4.348,-0.130
4.349,-0.128
4.350,-0.126
4.351,-0.125
4.352,-0.126
4.353,-0.128
4.354,-0.127
4.355,-0.125
4.356,-0.125
4.357,-0.125
4.358,-0.126
4.359,-0.125
4.360,-0.125
4.361,-0.122
4.362,-0.124
4.363,-0.125
4.364,-0.119
4.365,-0.116
4.366,-0.119
4.367,-0.116
4.368,-0.117
4.369,-0.122
4.370,-0.123
4.371,-0.122
4.372,-0.125
4.373,-0.125
4.374,-0.126
4.375,-0.125
4.376,-0.125
4.377,-0.122
4.378,-0.124
4.379,-0.125
4.380,-0.125
4.381,-0.122
4.382,-0.124
4.383,-0.122
4.384,-0.123
4.385,-0.125
4.386,-0.126
4.387,-0.128
4.388,-0.125
4.389,-0.125
4.390,-0.129
4.391,-0.131
4.392,-0.131
4.393,-0.134
4.394,-0.133
4.395,-0.134
4.396,-0.134
4.397,-0.134
4.398,-0.133
4.399,-0.134
4.400,-0.134
4.401,-0.138
4.402,-0.139
4.403,-0.138
4.404,-0.131
4.405,-0.128
4.406,-0.128
4.407,-0.128
4.408,-0.125
4.409,-0.125
4.410,-0.121
4.411,-0.113
4.412,-0.111
4.413,-0.113
4.414,-0.109
4.415,-0.109
4.416,-0.113
4.417,-0.113
4.418,-0.105
4.419,-0.097
4.420,-0.091
4.421,-0.081
4.422,-0.076
4.423,-0.075
4.424,-0.073
4.425,-0.072
4.426,-0.072
4.427,-0.072
4.428,-0.066
4.429,-0.062
4.430,-0.062
4.431,-0.059
4.432,-0.054
4.433,-0.050
4.434,-0.044
4.435,-0.038
4.436,-0.041
4.437,-0.041
4.438,-0.038
4.439,-0.038
4.440,-0.036
4.441,-0.034
4.442,-0.031
4.443,-0.028
4.444,-0.028
4.445,-0.025
4.446,-0.028
4.447,-0.031
4.448,-0.033
4.449,-0.034
4.450,-0.039
4.451,-0.038
4.452,-0.028
4.453,-0.019
4.454,-0.008
4.455,0.006
4.456,0.020
4.457,0.031
4.458,0.039
4.459,0.050
4.460,0.058
4.461,0.062
4.462,0.062
4.463,0.062
4.464,0.055
4.465,0.050
4.466,0.048
4.467,0.047
4.468,0.039
4.469,0.034
4.470,0.025
4.471,0.019
4.472,0.020
4.473,0.019
4.474,0.019
4.475,0.019
4.476,0.020
4.477,0.022
4.478,0.019
4.479,0.012
4.480,0.014
4.481,0.012
4.482,0.008
4.483,0.009
4.484,0.009
4.485,0.009
4.486,0.008
4.487,0.000
4.488,-0.005
4.489,-0.009
4.490,-0.016
4.491,-0.025
4.492,-0.028
4.493,-0.025
4.494,-0.025
4.495,-0.022
4.496,-0.023
4.497,-0.025
4.498,-0.028
4.499,-0.028
4.500,-0.031
4.501,-0.038
4.502,-0.047
4.503,-0.056
4.504,-0.062
4.505,-0.072
4.506,-0.080
4.507,-0.084
4.508,-0.091
4.509,-0.097
4.510,-0.106
4.511,-0.116
4.512,-0.129
4.513,-0.147
4.514,-0.154
4.515,-0.156
4.516,-0.161
4.517,-0.159
4.518,-0.159
4.519,-0.159
4.520,-0.153
4.521,-0.150
4.522,-0.150
4.523,-0.150
4.524,-0.156
4.525,-0.159
4.526,-0.159
4.527,-0.159
4.528,-0.161
4.529,-0.166
4.530,-0.166
4.531,-0.169
4.532,-0.169
4.533,-0.169
4.534,-0.167
4.535,-0.169
4.536,-0.170
4.537,-0.169
4.538,-0.166
4.539,-0.169
4.540,-0.170
4.541,-0.172
4.542,-0.169
4.543,-0.166
4.544,-0.164
4.545,-0.166
4.546,-0.168
4.547,-0.169
4.548,-0.172
4.549,-0.169
4.550,-0.169
4.551,-0.172
4.552,-0.169
4.553,-0.169
4.554,-0.169
4.555,-0.169
4.556,-0.169
4.557,-0.169
4.558,-0.169
4.559,-0.169
4.560,-0.169
4.561,-0.169
4.562,-0.166
4.563,-0.169
4.564,-0.172
4.565,-0.172
4.566,-0.172
4.567,-0.172
4.568,-0.170
4.569,-0.172
4.570,-0.168
4.571,-0.166
4.572,-0.164
4.573,-0.166
4.574,-0.164
4.575,-0.166
4.576,-0.161
4.577,-0.156
4.578,-0.156
4.579,-0.159
4.580,-0.159
4.581,-0.159
4.582,-0.166
4.583,-0.166
4.584,-0.161
4.585,-0.163
4.586,-0.158
4.587,-0.156
4.588,-0.155
4.589,-0.153
4.590,-0.154
4.591,-0.159
4.592,-0.155
4.593,-0.156
4.594,-0.163
4.595,-0.169
4.596,-0.177
4.597,-0.188
4.598,-0.194
4.599,-0.194
4.600,-0.193
4.601,-0.188
4.602,-0.184
4.603,-0.184
4.604,-0.184
4.605,-0.184
4.606,-0.184
4.607,-0.184
4.608,-0.195
4.609,-0.209
4.610,-0.211
4.611,-0.206
4.612,-0.193
4.613,-0.169
4.614,-0.130
4.615,-0.084
4.616,-0.030
4.617,0.034
4.618,0.106
4.619,0.178
4.620,0.253
4.621,0.328
4.622,0.423
4.623,0.528
4.624,0.645
4.625,0.772
4.626,0.914
4.627,1.069
4.628,1.216
4.629,1.341
4.630,1.392
4.631,1.400
4.632,1.386
4.633,1.372
4.634,1.371
4.635,1.372
4.636,1.384
4.637,1.403
4.638,1.402
4.639,1.397
4.640,1.359
4.641,1.303
4.642,1.209
4.643,1.100
4.644,0.962
4.645,0.812
4.646,0.659
4.647,0.516
4.648,0.359
4.649,0.200
4.650,0.066
4.651,-0.047
4.652,-0.102
4.653,-0.109
4.654,-0.105
4.655,-0.069
4.656,-0.039
4.657,-0.028
4.658,-0.022
4.659,-0.022
4.660,-0.034
4.661,-0.047
4.662,-0.062
4.663,-0.078
4.664,-0.081
4.665,-0.072
4.666,-0.064
4.667,-0.056
4.668,-0.045
4.669,-0.041
4.670,-0.041
4.671,-0.038
4.672,-0.033
4.673,-0.031
4.674,-0.033
4.675,-0.031
4.676,-0.030
4.677,-0.025
4.678,-0.029
4.679,-0.028
4.680,-0.031
4.681,-0.031
4.682,-0.028
4.683,-0.028
4.684,-0.031
4.685,-0.041
4.686,-0.047
4.687,-0.056
4.688,-0.067
4.689,-0.072
4.690,-0.077
4.691,-0.078
4.692,-0.075
4.693,-0.075
4.694,-0.075
4.695,-0.072
4.696,-0.072
4.697,-0.072
4.698,-0.073
4.699,-0.072
4.700,-0.074
4.701,-0.075
4.702,-0.078
4.703,-0.084
4.704,-0.086
4.705,-0.084
4.706,-0.086
4.707,-0.088
4.708,-0.086
4.709,-0.081
4.710,-0.077
4.711,-0.072
4.712,-0.070
4.713,-0.072
4.714,-0.072
4.715,-0.072
4.716,-0.069
4.717,-0.069
4.718,-0.071
4.719,-0.072
4.720,-0.075
4.721,-0.075
4.722,-0.079
4.723,-0.084
4.724,-0.084
4.725,-0.081
4.726,-0.077
4.727,-0.075
4.728,-0.073
4.729,-0.075
4.730,-0.072
4.731,-0.069
4.732,-0.070
4.733,-0.072
4.734,-0.069
4.735,-0.069
4.736,-0.066
4.737,-0.069
4.738,-0.068
4.739,-0.066
4.740,-0.069
4.741,-0.069
4.742,-0.072
4.743,-0.069
4.744,-0.068
4.745,-0.066
4.746,-0.066
4.747,-0.066
4.748,-0.066
4.749,-0.066
4.750,-0.064
4.751,-0.066
4.752,-0.067
4.753,-0.066
4.754,-0.068
4.755,-0.059
4.756,-0.058
4.757,-0.056
4.758,-0.056
4.759,-0.053
4.760,-0.050
4.761,-0.047
4.762,-0.044
4.763,-0.044
4.764,-0.047
4.765,-0.047
4.766,-0.050
4.767,-0.047
4.768,-0.044
4.769,-0.041
4.770,-0.038
4.771,-0.038
4.772,-0.034
4.773,-0.034
4.774,-0.038
4.775,-0.031
4.776,-0.031
4.777,-0.031
4.778,-0.034
4.779,-0.034
4.780,-0.033
4.781,-0.031
4.782,-0.024
4.783,-0.016
4.784,-0.017
4.785,-0.019
4.786,-0.014
4.787,-0.009
4.788,-0.003
4.789,-0.006
4.790,-0.008
4.791,-0.009
4.792,-0.008
4.793,-0.003
4.794,-0.001
4.795,0.000
4.796,0.000
4.797,0.000
4.798,-0.003
4.799,-0.003
4.800,-0.003
4.801,-0.003
4.802,0.000
4.803,0.000
4.804,0.006
4.805,0.003
4.806,0.006
4.807,0.006
4.808,0.012
4.809,0.016
4.810,0.025
4.811,0.028
4.812,0.031
4.813,0.031
4.814,0.028
4.815,0.028
4.816,0.030
4.817,0.028
4.818,0.030
4.819,0.031
4.820,0.030
4.821,0.031
4.822,0.034
4.823,0.038
4.824,0.041
4.825,0.044
4.826,0.046
4.827,0.047
4.828,0.046
4.829,0.047
4.830,0.048
4.831,0.053
4.832,0.056
4.833,0.059
4.834,0.061
4.835,0.059
4.836,0.059
4.837,0.059
4.838,0.062
4.839,0.066
4.840,0.070
4.841,0.075
4.842,0.078
4.843,0.087
4.844,0.091
4.845,0.094
4.846,0.091
4.847,0.091
4.848,0.089
4.849,0.094
4.850,0.095
4.851,0.097
4.852,0.096
4.853,0.094
4.854,0.101
4.855,0.106
4.856,0.109
4.857,0.116
4.858,0.118
4.859,0.119
4.860,0.122
4.861,0.122
4.862,0.125
4.863,0.122
4.864,0.124
4.865,0.128
4.866,0.129
4.867,0.134
4.868,0.134
4.869,0.138
4.870,0.139
4.871,0.144
4.872,0.147
4.873,0.150
4.874,0.153
4.875,0.156
4.876,0.153
4.877,0.156
4.878,0.158
4.879,0.156
4.880,0.158
4.881,0.156
4.882,0.162
4.883,0.166
4.884,0.172
4.885,0.175
4.886,0.175
4.887,0.175
4.888,0.177
4.889,0.178
4.890,0.178
4.891,0.181
4.892,0.187
4.893,0.194
4.894,0.191
4.895,0.194
4.896,0.192
4.897,0.191
4.898,0.191
4.899,0.187
4.900,0.194
4.901,0.191
4.902,0.196
4.903,0.194
4.904,0.197
4.905,0.206
4.906,0.209
4.907,0.212
4.908,0.211
4.909,0.212
4.910,0.214
4.911,0.219
4.912,0.219
4.913,0.219
4.914,0.218
4.915,0.216
4.916,0.218
4.917,0.216
4.918,0.220
4.919,0.219
4.920,0.216
4.921,0.216
4.922,0.216
4.923,0.216
4.924,0.212
4.925,0.216
4.926,0.220
4.927,0.225
4.928,0.226
4.929,0.228
4.930,0.227
4.931,0.225
4.932,0.225
4.933,0.228
4.934,0.227
4.935,0.225
4.936,0.225
4.937,0.228
4.938,0.228
4.939,0.228
4.940,0.225
4.941,0.225
4.942,0.226
4.943,0.228
4.944,0.228
4.945,0.228
4.946,0.229
4.947,0.228
4.948,0.231
4.949,0.231
4.950,0.236
4.951,0.234
4.952,0.232
4.953,0.234
4.954,0.234
4.955,0.234
4.956,0.238
4.957,0.234
4.958,0.239
4.959,0.241
4.960,0.244
4.961,0.244
4.962,0.238
4.963,0.238
4.964,0.238
4.965,0.238
4.966,0.241
4.967,0.247
4.968,0.250
4.969,0.247
4.970,0.246
4.971,0.247
4.972,0.241
4.973,0.238
4.974,0.236
4.975,0.238
4.976,0.234
4.977,0.234
4.978,0.238
4.979,0.238
4.980,0.234
4.981,0.238
4.982,0.236
4.983,0.238
4.984,0.234
4.985,0.234
4.986,0.234
4.987,0.234
4.988,0.236
4.989,0.234
4.990,0.228
4.991,0.222
4.992,0.218
4.993,0.216
4.994,0.212
4.995,0.206
4.996,0.203
4.997,0.200
4.998,0.200
4.999,0.200
5.000,0.197
5.001,0.191
5.002,0.186
5.003,0.184
5.004,0.179
5.005,0.181
5.006,0.179
5.007,0.175
5.008,0.167
5.009,0.166
5.010,0.162
5.011,0.159
5.012,0.158
5.013,0.153
5.014,0.146
5.015,0.141
5.016,0.136
5.017,0.138
5.018,0.128
5.019,0.122
5.020,0.120
5.021,0.122
5.022,0.118
5.023,0.112
5.024,0.102
5.025,0.100
5.026,0.094
5.027,0.091
5.028,0.092
5.029,0.091
5.030,0.082
5.031,0.078
5.032,0.071
5.033,0.066
5.034,0.061
5.035,0.053
5.036,0.050
5.037,0.047
5.038,0.045
5.039,0.041
5.040,0.034
5.041,0.028
5.042,0.021
5.043,0.019
5.044,0.019
5.045,0.016
5.046,0.014
5.047,0.009
5.048,0.003
5.049,0.000
5.050,-0.006
5.051,-0.009
5.052,-0.011
5.053,-0.013
5.054,-0.013
5.055,-0.013
5.056,-0.016
5.057,-0.019
5.058,-0.023
5.059,-0.028
5.060,-0.030
5.061,-0.028
5.062,-0.031
5.063,-0.031
5.064,-0.036
5.065,-0.038
5.066,-0.041
5.067,-0.041
5.068,-0.041
5.069,-0.044
5.070,-0.044
5.071,-0.047
5.072,-0.047
5.073,-0.047
5.074,-0.049
5.075,-0.050
5.076,-0.050
5.077,-0.050
5.078,-0.051
5.079,-0.056
5.080,-0.059
5.081,-0.062
5.082,-0.058
5.083,-0.056
5.084,-0.056
5.085,-0.059
5.086,-0.062
5.087,-0.066
5.088,-0.066
5.089,-0.066
5.090,-0.068
5.091,-0.066
5.092,-0.067
5.093,-0.069
5.094,-0.068
5.095,-0.066
5.096,-0.067
5.097,-0.072
5.098,-0.073
5.099,-0.072
5.100,-0.071
5.101,-0.069
5.102,-0.070
5.103,-0.072
5.104,-0.072
5.105,-0.072
5.106,-0.066
5.107,-0.062
5.108,-0.062
5.109,-0.066
5.110,-0.066
5.111,-0.066
5.112,-0.061
5.113,-0.066
5.114,-0.067
5.115,-0.066
5.116,-0.066
5.117,-0.066
5.118,-0.067
5.119,-0.069
5.120,-0.068
5.121,-0.072
5.122,-0.069
5.123,-0.069
5.124,-0.070
5.125,-0.072
5.126,-0.069
5.127,-0.066
5.128,-0.066
5.129,-0.066
5.130,-0.069
5.131,-0.069
5.132,-0.070
5.133,-0.069
5.134,-0.068
5.135,-0.066
5.136,-0.066
5.137,-0.069
5.138,-0.066
5.139,-0.066
5.140,-0.066
5.141,-0.069
5.142,-0.070
5.143,-0.069
5.144,-0.069
5.145,-0.072
5.146,-0.073
5.147,-0.075
5.148,-0.075
5.149,-0.075
5.150,-0.074
5.151,-0.072
5.152,-0.072
5.153,-0.072
5.154,-0.073
5.155,-0.075
5.156,-0.073
5.157,-0.075
5.158,-0.075
5.159,-0.075
5.160,-0.074
5.161,-0.072
5.162,-0.072
5.163,-0.075
5.164,-0.072
5.165,-0.075
5.166,-0.074
5.167,-0.072
5.168,-0.074
5.169,-0.072
5.170,-0.071
5.171,-0.066
5.172,-0.066
5.173,-0.069
5.174,-0.067
5.175,-0.069
5.176,-0.070
5.177,-0.069
5.178,-0.068
5.179,-0.069
5.180,-0.073
5.181,-0.075
5.182,-0.072
5.183,-0.075
5.184,-0.075
5.185,-0.078
5.186,-0.084
5.187,-0.084
5.188,-0.084
5.189,-0.081
5.190,-0.080
5.191,-0.081
5.192,-0.077
5.193,-0.081
5.194,-0.079
5.195,-0.081
5.196,-0.086
5.197,-0.088
5.198,-0.086
5.199,-0.088
5.200,-0.089
5.201,-0.088
5.202,-0.084
5.203,-0.084
5.204,-0.086
5.205,-0.081
5.206,-0.080
5.207,-0.081
5.208,-0.084
5.209,-0.088
5.210,-0.084
5.211,-0.081
5.212,-0.081
5.213,-0.081
5.214,-0.081
5.215,-0.081
5.216,-0.082
5.217,-0.088
5.218,-0.094
5.219,-0.097
5.220,-0.091
5.221,-0.084
5.222,-0.084
5.223,-0.084
5.224,-0.094
5.225,-0.097
5.226,-0.098
5.227,-0.097
5.228,-0.093
5.229,-0.094
5.230,-0.094
5.231,-0.091
5.232,-0.091
5.233,-0.091
5.234,-0.094
5.235,-0.094
5.236,-0.097
5.237,-0.097
5.238,-0.097
5.239,-0.097
5.240,-0.096
5.241,-0.094
5.242,-0.093
5.243,-0.091
5.244,-0.086
5.245,-0.088
5.246,-0.088
5.247,-0.088
5.248,-0.089
5.249,-0.091
5.250,-0.091
5.251,-0.091
5.252,-0.091
5.253,-0.091
5.254,-0.092
5.255,-0.094
5.256,-0.093
5.257,-0.094
5.258,-0.094
5.259,-0.094
5.260,-0.093
5.261,-0.094
5.262,-0.092
5.263,-0.097
5.264,-0.098
5.265,-0.100
5.266,-0.101
5.267,-0.103
5.268,-0.099
5.269,-0.094
5.270,-0.097
5.271,-0.094
5.272,-0.094
5.273,-0.094
5.274,-0.100
5.275,-0.103
5.276,-0.104
5.277,-0.103
5.278,-0.102
5.279,-0.103
5.280,-0.103
5.281,-0.103
5.282,-0.106
5.283,-0.106
5.284,-0.103
5.285,-0.103
5.286,-0.106
5.287,-0.106
5.288,-0.106
5.289,-0.106
5.290,-0.105
5.291,-0.103
5.292,-0.103
5.293,-0.100
5.294,-0.100
5.295,-0.100
5.296,-0.100
5.297,-0.103
5.298,-0.103
5.299,-0.103
5.300,-0.103
5.301,-0.103
5.302,-0.104
5.303,-0.106
5.304,-0.106
5.305,-0.109
5.306,-0.108
5.307,-0.103
5.308,-0.106
5.309,-0.106
5.310,-0.108
5.311,-0.103
5.312,-0.102
5.313,-0.103
5.314,-0.104
5.315,-0.106
5.316,-0.104
5.317,-0.106
5.318,-0.105
5.319,-0.103
5.320,-0.106
5.321,-0.109
5.322,-0.108
5.323,-0.106
5.324,-0.109
5.325,-0.109
5.326,-0.106
5.327,-0.106
5.328,-0.106
5.329,-0.106
5.330,-0.113
5.331,-0.113
5.332,-0.114
5.333,-0.113
5.334,-0.109
5.335,-0.106
5.336,-0.108
5.337,-0.109
5.338,-0.113
5.339,-0.113
5.340,-0.108
5.341,-0.106
5.342,-0.104
5.343,-0.103
5.344,-0.100
5.345,-0.103
5.346,-0.106
5.347,-0.106
5.348,-0.109
5.349,-0.109
5.350,-0.109
5.351,-0.113
5.352,-0.108
5.353,-0.109
5.354,-0.114
5.355,-0.113
5.356,-0.113
5.357,-0.109
5.358,-0.109
5.359,-0.109
5.360,-0.106
5.361,-0.109
5.362,-0.108
5.363,-0.109
5.364,-0.108
5.365,-0.106
5.366,-0.108
5.367,-0.109
5.368,-0.105
5.369,-0.106
5.370,-0.109
5.371,-0.109
5.372,-0.114
5.373,-0.116
5.374,-0.114
5.375,-0.116
5.376,-0.111
5.377,-0.106
5.378,-0.108
5.379,-0.106
5.380,-0.111
5.381,-0.113
5.382,-0.113
5.383,-0.113
5.384,-0.111
5.385,-0.109
5.386,-0.109
5.387,-0.109
5.388,-0.109
5.389,-0.106
5.390,-0.106
5.391,-0.106
5.392,-0.106
5.393,-0.109
5.394,-0.108
5.395,-0.103
5.396,-0.106
5.397,-0.103
5.398,-0.108
5.399,-0.106
5.400,-0.106
5.401,-0.106
5.402,-0.108
5.403,-0.106
5.404,-0.105
5.405,-0.103
5.406,-0.103
5.407,-0.103
5.408,-0.104
5.409,-0.106
5.410,-0.105
5.411,-0.103
5.412,-0.106
5.413,-0.109
5.414,-0.114
5.415,-0.113
5.416,-0.108
5.417,-0.103
5.418,-0.104
5.419,-0.106
5.420,-0.100
5.421,-0.103
5.422,-0.108
5.423,-0.106
5.424,-0.104
5.425,-0.106
5.426,-0.106
5.427,-0.106
5.428,-0.106
5.429,-0.109
5.430,-0.117
5.431,-0.122
5.432,-0.116
5.433,-0.113
5.434,-0.109
5.435,-0.113
5.436,-0.114
5.437,-0.109
5.438,-0.108
5.439,-0.109
5.440,-0.106
5.441,-0.106
5.442,-0.109
5.443,-0.109
5.444,-0.105
5.445,-0.106
5.446,-0.108
5.447,-0.109
5.448,-0.109
5.449,-0.113
5.450,-0.109
5.451,-0.113
5.452,-0.116
5.453,-0.116
5.454,-0.114
5.455,-0.119
5.456,-0.119
5.457,-0.119
5.458,-0.119
5.459,-0.119
5.460,-0.119
5.461,-0.116
5.462,-0.116
5.463,-0.119
5.464,-0.118
5.465,-0.116
5.466,-0.116
5.467,-0.109
5.468,-0.109
5.469,-0.109
5.470,-0.113
5.471,-0.113
5.472,-0.111
5.473,-0.109
5.474,-0.113
5.475,-0.113
5.476,-0.111
5.477,-0.109
5.478,-0.109
5.479,-0.109
5.480,-0.113
5.481,-0.113
5.482,-0.109
5.483,-0.106
5.484,-0.103
5.485,-0.100
5.486,-0.099
5.487,-0.094
5.488,-0.093
5.489,-0.091
5.490,-0.084
5.491,-0.078
5.492,-0.075
5.493,-0.072
5.494,-0.066
5.495,-0.059
5.496,-0.062
5.497,-0.066
5.498,-0.064
5.499,-0.062
5.500,-0.053
5.501,-0.041
5.502,-0.036
5.503,-0.031
5.504,-0.025
5.505,-0.019
5.506,-0.011
5.507,-0.006
5.508,-0.003
5.509,-0.006
5.510,-0.009
5.511,-0.009
5.512,-0.009
5.513,-0.009
5.514,-0.014
5.515,-0.016
5.516,-0.014
5.517,-0.016
5.518,-0.011
5.519,-0.013
5.520,-0.017
5.521,-0.019
5.522,-0.018
5.523,-0.019
5.524,-0.014
5.525,-0.006
5.526,0.003
5.527,0.016
5.528,0.027
5.529,0.038
5.530,0.042
5.531,0.047
5.532,0.059
5.533,0.066
5.534,0.067
5.535,0.066
5.536,0.067
5.537,0.066
5.538,0.064
5.539,0.056
5.540,0.053
5.541,0.047
5.542,0.039
5.543,0.031
5.544,0.029
5.545,0.031
5.546,0.027
5.547,0.025
5.548,0.025
5.549,0.025
5.550,0.025
5.551,0.025
5.552,0.023
5.553,0.025
5.554,0.021
5.555,0.016
5.556,0.020
5.557,0.022
5.558,0.022
5.559,0.022
5.560,0.014
5.561,0.006
5.562,-0.001
5.563,-0.013
5.564,-0.021
5.565,-0.019
5.566,-0.013
5.567,-0.006
5.568,-0.001
5.569,-0.003
5.570,-0.006
5.571,-0.013
5.572,-0.014
5.573,-0.019
5.574,-0.025
5.575,-0.034
5.576,-0.044
5.577,-0.053
5.578,-0.066
5.579,-0.075
5.580,-0.081
5.581,-0.091
5.582,-0.100
5.583,-0.106
5.584,-0.111
5.585,-0.119
5.586,-0.131
5.587,-0.138
5.588,-0.138
5.589,-0.141
5.590,-0.141
5.591,-0.141
5.592,-0.139
5.593,-0.141
5.594,-0.144
5.595,-0.144
5.596,-0.144
5.597,-0.150
5.598,-0.153
5.599,-0.153
5.600,-0.152
5.601,-0.153
5.602,-0.161
5.603,-0.163
5.604,-0.164
5.605,-0.163
5.606,-0.164
5.607,-0.163
5.608,-0.159
5.609,-0.156
5.610,-0.152
5.611,-0.147
5.612,-0.149
5.613,-0.147
5.614,-0.150
5.615,-0.156
5.616,-0.161
5.617,-0.159
5.618,-0.159
5.619,-0.163
5.620,-0.167
5.621,-0.172
5.622,-0.169
5.623,-0.169
5.624,-0.172
5.625,-0.169
5.626,-0.166
5.627,-0.163
5.628,-0.164
5.629,-0.166
5.630,-0.164
5.631,-0.163
5.632,-0.164
5.633,-0.166
5.634,-0.164
5.635,-0.163
5.636,-0.168
5.637,-0.166
5.638,-0.164
5.639,-0.166
5.640,-0.167
5.641,-0.166
5.642,-0.167
5.643,-0.166
5.644,-0.164
5.645,-0.163
5.646,-0.167
5.647,-0.166
5.648,-0.166
5.649,-0.163
5.650,-0.155
5.651,-0.150
5.652,-0.153
5.653,-0.153
5.654,-0.152
5.655,-0.153
5.656,-0.151
5.657,-0.150
5.658,-0.156
5.659,-0.156
5.660,-0.156
5.661,-0.156
5.662,-0.155
5.663,-0.153
5.664,-0.156
5.665,-0.153
5.666,-0.156
5.667,-0.159
5.668,-0.164
5.669,-0.175
5.670,-0.186
5.671,-0.194
5.672,-0.197
5.673,-0.197
5.674,-0.197
5.675,-0.197
5.676,-0.196
5.677,-0.191
5.678,-0.186
5.679,-0.184
5.680,-0.186
5.681,-0.197
5.682,-0.209
5.683,-0.219
5.684,-0.219
5.685,-0.206
5.686,-0.191
5.687,-0.163
5.688,-0.125
5.689,-0.075
5.690,-0.016
5.691,0.053
5.692,0.122
5.693,0.197
5.694,0.272
5.695,0.353
5.696,0.447
5.697,0.562
5.698,0.686
5.699,0.822
5.700,0.976
5.701,1.150
5.702,1.283
5.703,1.366
5.704,1.414
5.705,1.387
5.706,1.364
5.707,1.366
5.708,1.369
5.709,1.381
5.710,1.394
5.711,1.394
5.712,1.392
5.713,1.362
5.714,1.317
5.715,1.241
5.716,1.151
5.717,1.019
5.718,0.873
5.719,0.725
5.720,0.574
5.721,0.409
5.722,0.257
5.723,0.103
5.724,-0.028
5.725,-0.113
5.726,-0.152
5.727,-0.144
5.728,-0.109
5.729,-0.072
5.730,-0.049
5.731,-0.034
5.732,-0.030
5.733,-0.038
5.734,-0.048
5.735,-0.066
5.736,-0.078
5.737,-0.084
5.738,-0.080
5.739,-0.066
5.740,-0.053
5.741,-0.041
5.742,-0.034
5.743,-0.031
5.744,-0.028
5.745,-0.028
5.746,-0.029
5.747,-0.034
5.748,-0.033
5.749,-0.031
5.750,-0.028
5.751,-0.031
5.752,-0.028
5.753,-0.028
5.754,-0.025
5.755,-0.025
5.756,-0.025
5.757,-0.025
5.758,-0.034
5.759,-0.038
5.760,-0.042
5.761,-0.050
5.762,-0.056
5.763,-0.066
5.764,-0.070
5.765,-0.069
5.766,-0.066
5.767,-0.062
5.768,-0.061
5.769,-0.062
5.770,-0.061
5.771,-0.059
5.772,-0.055
5.773,-0.056
5.774,-0.061
5.775,-0.062
5.776,-0.064
5.777,-0.066
5.778,-0.066
5.779,-0.069
5.780,-0.073
5.781,-0.075
5.782,-0.075
5.783,-0.075
5.784,-0.073
5.785,-0.072
5.786,-0.072
5.787,-0.072
5.788,-0.073
5.789,-0.072
5.790,-0.071
5.791,-0.072
5.792,-0.074
5.793,-0.072
5.794,-0.066
5.795,-0.066
5.796,-0.069
5.797,-0.069
5.798,-0.069
5.799,-0.069
5.800,-0.066
5.801,-0.059
5.802,-0.059
5.803,-0.056
5.804,-0.053
5.805,-0.053
5.806,-0.054
5.807,-0.053
5.808,-0.054
5.809,-0.053
5.810,-0.056
5.811,-0.056
5.812,-0.055
5.813,-0.056
5.814,-0.058
5.815,-0.059
5.816,-0.053
5.817,-0.053
5.818,-0.052
5.819,-0.050
5.820,-0.047
5.821,-0.041
5.822,-0.036
5.823,-0.034
5.824,-0.038
5.825,-0.038
5.826,-0.034
5.827,-0.038
5.828,-0.033
5.829,-0.034
5.830,-0.036
5.831,-0.038
5.832,-0.036
5.833,-0.038
5.834,-0.038
5.835,-0.034
5.836,-0.033
5.837,-0.031
5.838,-0.025
5.839,-0.025
5.840,-0.023
5.841,-0.025
5.842,-0.025
5.843,-0.022
5.844,-0.022
5.845,-0.019
5.846,-0.019
5.847,-0.022
5.848,-0.019
5.849,-0.022
5.850,-0.022
5.851,-0.022
5.852,-0.016
5.853,-0.013
5.854,-0.014
5.855,-0.013
5.856,-0.011
5.857,-0.013
5.858,-0.014
5.859,-0.013
5.860,-0.009
5.861,-0.003
5.862,-0.006
5.863,-0.006
5.864,-0.005
5.865,-0.003
5.866,0.000
5.867,0.003
5.868,0.007
5.869,0.009
5.870,0.011
5.871,0.012
5.872,0.014
5.873,0.012
5.874,0.012
5.875,0.016
5.876,0.020
5.877,0.031
5.878,0.025
5.879,0.025
5.880,0.022
5.881,0.022
5.882,0.021
5.883,0.025
5.884,0.026
5.885,0.031
5.886,0.030
5.887,0.028
5.888,0.028
5.889,0.028
5.890,0.029
5.891,0.034
5.892,0.042
5.893,0.047
5.894,0.049
5.895,0.047
5.896,0.046
5.897,0.047
5.898,0.050
5.899,0.053
5.900,0.056
5.901,0.056
5.902,0.059
5.903,0.059
5.904,0.061
5.905,0.059
5.906,0.064
5.907,0.072
5.908,0.073
5.909,0.078
5.910,0.080
5.911,0.081
5.912,0.083
5.913,0.084
5.914,0.091
5.915,0.094
5.916,0.100
5.917,0.100
5.918,0.099
5.919,0.097
5.920,0.099
5.921,0.097
5.922,0.102
5.923,0.100
5.924,0.099
5.925,0.100
5.926,0.107
5.927,0.116
5.928,0.114
5.929,0.116
5.930,0.118
5.931,0.116
5.932,0.118
5.933,0.119
5.934,0.120
5.935,0.125
5.936,0.125
5.937,0.131
5.938,0.139
5.939,0.141
5.940,0.144
5.941,0.144
5.942,0.147
5.943,0.150
5.944,0.155
5.945,0.153
5.946,0.153
5.947,0.156
5.948,0.162
5.949,0.166
5.950,0.172
5.951,0.175
5.952,0.174
5.953,0.175
5.954,0.167
5.955,0.166
5.956,0.169
5.957,0.172
5.958,0.175
5.959,0.178
5.960,0.181
5.961,0.187
5.962,0.191
5.963,0.191
5.964,0.194
5.965,0.194
5.966,0.194
5.967,0.194
5.968,0.199
5.969,0.197
5.970,0.198
5.971,0.203
5.972,0.204
5.973,0.212
5.974,0.208
5.975,0.212
5.976,0.211
5.977,0.209
5.978,0.214
5.979,0.212
5.980,0.211
5.981,0.209
5.982,0.212
5.983,0.212
5.984,0.217
5.985,0.219
5.986,0.219
5.987,0.219
5.988,0.218
5.989,0.219
5.990,0.220
5.991,0.225
5.992,0.225
5.993,0.228
5.994,0.232
5.995,0.234
5.996,0.234
5.997,0.231
5.998,0.234
5.999,0.234
6.000,0.233
6.001,0.231
6.002,0.228
6.003,0.225
6.004,0.225
6.005,0.225
6.006,0.229
6.007,0.231
6.008,0.232
6.009,0.234
6.010,0.239
6.011,0.241
6.012,0.239
6.013,0.234
6.014,0.233
6.015,0.231
6.016,0.231
6.017,0.231
6.018,0.231
6.019,0.231
6.020,0.228
6.021,0.231
6.022,0.232
6.023,0.241
6.024,0.242
6.025,0.241
6.026,0.244
6.027,0.247
6.028,0.246
6.029,0.247
6.030,0.239
6.031,0.238
6.032,0.234
6.033,0.234
6.034,0.239
6.035,0.241
6.036,0.244
6.037,0.244
6.038,0.245
6.039,0.247
6.040,0.249
6.041,0.250
6.042,0.247
6.043,0.247
6.044,0.250
6.045,0.247
6.046,0.246
6.047,0.241
6.048,0.239
6.049,0.234
6.050,0.233
6.051,0.234
6.052,0.236
6.053,0.234
6.054,0.238
6.055,0.234
6.056,0.236
6.057,0.234
6.058,0.233
6.059,0.231
6.060,0.232
6.061,0.234
6.062,0.230
6.063,0.222
6.064,0.217
6.065,0.216
6.066,0.214
6.067,0.209
6.068,0.204
6.069,0.203
6.070,0.200
6.071,0.200
6.072,0.199
6.073,0.194
6.074,0.186
6.075,0.181
6.076,0.181
6.077,0.175
6.078,0.175
6.079,0.172
6.080,0.162
6.081,0.153
6.082,0.154
6.083,0.153
6.084,0.150
6.085,0.147
6.086,0.144
6.087,0.141
6.088,0.138
6.089,0.131
6.090,0.132
6.091,0.128
6.092,0.125
6.093,0.119
6.094,0.112
6.095,0.106
6.096,0.103
6.097,0.094
6.098,0.094
6.099,0.087
6.100,0.083
6.101,0.081
6.102,0.077
6.103,0.066
6.104,0.061
6.105,0.056
6.106,0.054
6.107,0.053
6.108,0.050
6.109,0.050
6.110,0.050
6.111,0.050
6.112,0.041
6.113,0.034
6.114,0.031
6.115,0.025
6.116,0.026
6.117,0.025
6.118,0.018
6.119,0.012
6.120,0.006
6.121,0.003
6.122,0.002
6.123,-0.006
6.124,-0.006
6.125,-0.006
6.126,-0.009
6.127,-0.009
6.128,-0.013
6.129,-0.019
6.130,-0.023
6.131,-0.028
6.132,-0.030
6.133,-0.031
6.134,-0.027
6.135,-0.025
6.136,-0.025
6.137,-0.028
6.138,-0.028
6.139,-0.031
6.140,-0.030
6.141,-0.028
6.142,-0.030
6.143,-0.028
6.144,-0.033
6.145,-0.034
6.146,-0.038
6.147,-0.044
6.148,-0.047
6.149,-0.047
6.150,-0.047
6.151,-0.047
6.152,-0.051
6.153,-0.053
6.154,-0.053
6.155,-0.053
6.156,-0.055
6.157,-0.053
6.158,-0.055
6.159,-0.053
6.160,-0.052
6.161,-0.050
6.162,-0.051
6.163,-0.056
6.164,-0.056
6.165,-0.056
6.166,-0.058
6.167,-0.059
6.168,-0.062
6.169,-0.066
6.170,-0.069
6.171,-0.069
6.172,-0.067
6.173,-0.069
6.174,-0.066
6.175,-0.062
6.176,-0.062
6.177,-0.062
6.178,-0.064
6.179,-0.066
6.180,-0.070
6.181,-0.069
6.182,-0.066
6.183,-0.066
6.184,-0.072
6.185,-0.069
6.186,-0.072
6.187,-0.072
6.188,-0.068
6.189,-0.066
6.190,-0.066
6.191,-0.066
6.192,-0.064
6.193,-0.062
6.194,-0.070
6.195,-0.069
6.196,-0.069
6.197,-0.069
6.198,-0.069
6.199,-0.069
6.200,-0.069
6.201,-0.069
6.202,-0.068
6.203,-0.069
6.204,-0.069
6.205,-0.069
6.206,-0.066
6.207,-0.066
6.208,-0.066
6.209,-0.066
6.210,-0.070
6.211,-0.069
6.212,-0.070
6.213,-0.072
6.214,-0.075
6.215,-0.075
6.216,-0.072
6.217,-0.072
6.218,-0.074
6.219,-0.072
6.220,-0.071
6.221,-0.069
6.222,-0.069
6.223,-0.069
6.224,-0.070
6.225,-0.072
6.226,-0.072
6.227,-0.072
6.228,-0.072
6.229,-0.069
6.230,-0.069
6.231,-0.069
6.232,-0.069
6.233,-0.069
6.234,-0.070
6.235,-0.072
6.236,-0.075
6.237,-0.072
6.238,-0.071
6.239,-0.066
6.240,-0.064
6.241,-0.066
6.242,-0.067
6.243,-0.069
6.244,-0.067
6.245,-0.069
6.246,-0.072
6.247,-0.069
6.248,-0.070
6.249,-0.072
6.250,-0.068
6.251,-0.066
6.252,-0.066
6.253,-0.066
6.254,-0.072
6.255,-0.075
6.256,-0.077
6.257,-0.075
6.258,-0.078
6.259,-0.081
6.260,-0.077
6.261,-0.075
6.262,-0.073
6.263,-0.075
6.264,-0.079
6.265,-0.078
6.266,-0.084
6.267,-0.081
6.268,-0.078
6.269,-0.078
6.270,-0.077
6.271,-0.075
6.272,-0.078
6.273,-0.078
6.274,-0.076
6.275,-0.078
6.276,-0.078
6.277,-0.078
6.278,-0.075
6.279,-0.075
6.280,-0.082
6.281,-0.088
6.282,-0.088
6.283,-0.088
6.284,-0.088
6.285,-0.088
6.286,-0.088
6.287,-0.088
6.288,-0.086
6.289,-0.084
6.290,-0.086
6.291,-0.088
6.292,-0.091
6.293,-0.091
6.294,-0.089
6.295,-0.091
6.296,-0.088
6.297,-0.091
6.298,-0.092
6.299,-0.094
6.300,-0.091
6.301,-0.088
6.302,-0.089
6.303,-0.091
6.304,-0.092
6.305,-0.094
6.306,-0.095
6.307,-0.097
6.308,-0.091
6.309,-0.091
6.310,-0.089
6.311,-0.088
6.312,-0.088
6.313,-0.088
6.314,-0.091
6.315,-0.094
6.316,-0.097
6.317,-0.097
6.318,-0.100
6.319,-0.100
6.320,-0.097
6.321,-0.094
6.322,-0.094
6.323,-0.094
6.324,-0.095
6.325,-0.097
6.326,-0.096
6.327,-0.094
6.328,-0.094
6.329,-0.094
6.330,-0.098
6.331,-0.100
6.332,-0.097
6.333,-0.094
6.334,-0.097
6.335,-0.094
6.336,-0.100
6.337,-0.103
6.338,-0.103
6.339,-0.103
6.340,-0.100
6.341,-0.097
6.342,-0.096
6.343,-0.097
6.344,-0.095
6.345,-0.097
6.346,-0.097
6.347,-0.100
6.348,-0.101
6.349,-0.103
6.350,-0.100
6.351,-0.100
6.352,-0.103
6.353,-0.103
6.354,-0.103
6.355,-0.106
6.356,-0.108
6.357,-0.106
6.358,-0.105
6.359,-0.106
6.360,-0.105
6.361,-0.103
6.362,-0.106
6.363,-0.109
6.364,-0.109
6.365,-0.109
6.366,-0.106
6.367,-0.106
6.368,-0.106
6.369,-0.106
6.370,-0.108
6.371,-0.106
6.372,-0.108
6.373,-0.109
6.374,-0.109
6.375,-0.109
6.376,-0.109
6.377,-0.109
6.378,-0.111
6.379,-0.109
6.380,-0.105
6.381,-0.106
6.382,-0.106
6.383,-0.109
6.384,-0.105
6.385,-0.103
6.386,-0.106
6.387,-0.106
6.388,-0.108
6.389,-0.106
6.390,-0.106
6.391,-0.106
6.392,-0.105
6.393,-0.103
6.394,-0.103
6.395,-0.103
6.396,-0.103
6.397,-0.106
6.398,-0.106
6.399,-0.106
6.400,-0.109
6.401,-0.109
6.402,-0.108
6.403,-0.109
6.404,-0.105
6.405,-0.103
6.406,-0.100
6.407,-0.100
6.408,-0.097
6.409,-0.097
6.410,-0.101
6.411,-0.103
6.412,-0.104
6.413,-0.106
6.414,-0.106
6.415,-0.106
6.416,-0.105
6.417,-0.109
6.418,-0.109
6.419,-0.109
6.420,-0.114
6.421,-0.116
6.422,-0.111
6.423,-0.109
6.424,-0.106
6.425,-0.109
6.426,-0.111
6.427,-0.109
6.428,-0.109
6.429,-0.109
6.430,-0.109
6.431,-0.109
6.432,-0.109
6.433,-0.109
6.434,-0.109
6.435,-0.109
6.436,-0.111
6.437,-0.113
6.438,-0.116
6.439,-0.113
6.440,-0.113
6.441,-0.116
6.442,-0.117
6.443,-0.116
6.444,-0.113
6.445,-0.109
6.446,-0.109
6.447,-0.109
6.448,-0.109
6.449,-0.109
6.450,-0.108
6.451,-0.109
6.452,-0.108
6.453,-0.109
6.454,-0.111
6.455,-0.113
6.456,-0.116
6.457,-0.116
6.458,-0.114
6.459,-0.113
6.460,-0.111
6.461,-0.106
6.462,-0.111
6.463,-0.116
6.464,-0.117
6.465,-0.119
6.466,-0.119
6.467,-0.122
6.468,-0.122
6.469,-0.116
6.470,-0.116
6.471,-0.116
6.472,-0.114
6.473,-0.116
6.474,-0.113
6.475,-0.113
6.476,-0.111
6.477,-0.106
6.478,-0.109
6.479,-0.109
6.480,-0.114
6.481,-0.116
6.482,-0.119
6.483,-0.122
6.484,-0.125
6.485,-0.125
6.486,-0.128
6.487,-0.128
6.488,-0.124
6.489,-0.125
6.490,-0.126
6.491,-0.125
6.492,-0.122
6.493,-0.116
6.494,-0.113
6.495,-0.116
6.496,-0.116
6.497,-0.119
6.498,-0.120
6.499,-0.122
6.500,-0.121
6.501,-0.119
6.502,-0.119
6.503,-0.119
6.504,-0.118
6.505,-0.119
6.506,-0.122
6.507,-0.125
6.508,-0.125
6.509,-0.125
6.510,-0.128
6.511,-0.128
6.512,-0.125
6.513,-0.128
6.514,-0.125
6.515,-0.128
6.516,-0.125
6.517,-0.125
6.518,-0.122
6.519,-0.119
6.520,-0.117
6.521,-0.119
6.522,-0.119
6.523,-0.119
6.524,-0.119
6.525,-0.119
6.526,-0.118
6.527,-0.116
6.528,-0.113
6.529,-0.113
6.530,-0.119
6.531,-0.125
6.532,-0.125
6.533,-0.125
6.534,-0.123
6.535,-0.125
6.536,-0.126
6.537,-0.125
6.538,-0.128
6.539,-0.128
6.540,-0.125
6.541,-0.122
6.542,-0.121
6.543,-0.119
6.544,-0.116
6.545,-0.113
6.546,-0.114
6.547,-0.116
6.548,-0.119
6.549,-0.119
6.550,-0.120
6.551,-0.119
6.552,-0.119
6.553,-0.119
6.554,-0.117
6.555,-0.119
6.556,-0.123
6.557,-0.122
6.558,-0.121
6.559,-0.122
6.560,-0.123
6.561,-0.122
6.562,-0.125
6.563,-0.125
6.564,-0.124
6.565,-0.119
6.566,-0.120
6.567,-0.119
6.568,-0.121
6.569,-0.122
6.570,-0.123
6.571,-0.122
6.572,-0.124
6.573,-0.122
6.574,-0.121
6.575,-0.119
6.576,-0.119
6.577,-0.119
6.578,-0.117
6.579,-0.119
6.580,-0.122
6.581,-0.122
6.582,-0.121
6.583,-0.122
6.584,-0.120
6.585,-0.122
6.586,-0.123
6.587,-0.125
6.588,-0.123
6.589,-0.125
6.590,-0.124
6.591,-0.125
6.592,-0.125
6.593,-0.122
6.594,-0.120
6.595,-0.122
6.596,-0.121
6.597,-0.119
6.598,-0.113
6.599,-0.109
6.600,-0.113
6.601,-0.113
6.602,-0.108
6.603,-0.106
6.604,-0.102
6.605,-0.100
6.606,-0.101
6.607,-0.100
6.608,-0.098
6.609,-0.097
6.610,-0.093
6.611,-0.084
6.612,-0.079
6.613,-0.078
6.614,-0.075
6.615,-0.072
6.616,-0.066
6.617,-0.059
6.618,-0.056
6.619,-0.056
6.620,-0.054
6.621,-0.050
6.622,-0.045
6.623,-0.041
6.624,-0.034
6.625,-0.028
6.626,-0.028
6.627,-0.025
6.628,-0.022
6.629,-0.022
6.630,-0.022
6.631,-0.022
6.632,-0.018
6.633,-0.013
6.634,-0.009
6.635,-0.003
6.636,-0.005
6.637,-0.006
6.638,-0.013
6.639,-0.019
6.640,-0.026
6.641,-0.028
6.642,-0.021
6.643,-0.013
6.644,-0.004
6.645,0.006
6.646,0.020
6.647,0.031
6.648,0.041
6.649,0.053
6.650,0.059
6.651,0.062
6.652,0.064
6.653,0.066
6.654,0.064
6.655,0.066
6.656,0.056
6.657,0.047
6.658,0.039
6.659,0.034
6.660,0.028
6.661,0.025
6.662,0.025
6.663,0.022
6.664,0.022
6.665,0.022
6.666,0.022
6.667,0.022
6.668,0.023
6.669,0.022
6.670,0.019
6.671,0.012
6.672,0.008
6.673,0.009
6.674,0.009
6.675,0.009
6.676,0.014
6.677,0.012
6.678,0.009
6.679,0.006
6.680,-0.003
6.681,-0.016
6.682,-0.026
6.683,-0.031
6.684,-0.029
6.685,-0.025
6.686,-0.024
6.687,-0.022
6.688,-0.022
6.689,-0.019
6.690,-0.016
6.691,-0.016
6.692,-0.022
6.693,-0.028
6.694,-0.041
6.695,-0.056
6.696,-0.067
6.697,-0.075
6.698,-0.083
6.699,-0.091
6.700,-0.100
6.701,-0.109
6.702,-0.119
6.703,-0.131
6.704,-0.139
6.705,-0.141
6.706,-0.145
6.707,-0.144
6.708,-0.142
6.709,-0.141
6.710,-0.134
6.711,-0.131
6.712,-0.133
6.713,-0.134
6.714,-0.141
6.715,-0.144
6.716,-0.143
6.717,-0.141
6.718,-0.148
6.719,-0.159
6.720,-0.161
6.721,-0.166
6.722,-0.167
6.723,-0.169
6.724,-0.163
6.725,-0.159
6.726,-0.158
6.727,-0.153
6.728,-0.150
6.729,-0.153
6.730,-0.152
6.731,-0.150
6.732,-0.154
6.733,-0.159
6.734,-0.156
6.735,-0.156
6.736,-0.159
6.737,-0.163
6.738,-0.170
6.739,-0.172
6.740,-0.171
6.741,-0.172
6.742,-0.169
6.743,-0.169
6.744,-0.166
6.745,-0.163
6.746,-0.163
6.747,-0.163
6.748,-0.164
6.749,-0.166
6.750,-0.170
6.751,-0.175
6.752,-0.172
6.753,-0.175
6.754,-0.178
6.755,-0.178
6.756,-0.179
6.757,-0.181
6.758,-0.175
6.759,-0.172
6.760,-0.169
6.761,-0.169
6.762,-0.169
6.763,-0.172
6.764,-0.169
6.765,-0.169
6.766,-0.164
6.767,-0.159
6.768,-0.159
6.769,-0.163
6.770,-0.161
6.771,-0.159
6.772,-0.164
6.773,-0.163
6.774,-0.158
6.775,-0.159
6.776,-0.158
6.777,-0.159
6.778,-0.161
6.779,-0.163
6.780,-0.163
6.781,-0.166
6.782,-0.161
6.783,-0.163
6.784,-0.167
6.785,-0.172
6.786,-0.180
6.787,-0.191
6.788,-0.199
6.789,-0.200
6.790,-0.201
6.791,-0.200
6.792,-0.196
6.793,-0.194
6.794,-0.192
6.795,-0.191
6.796,-0.188
6.797,-0.184
6.798,-0.195
6.799,-0.209
6.800,-0.223
6.801,-0.231
6.802,-0.226
6.803,-0.213
6.804,-0.183
6.805,-0.147
6.806,-0.098
6.807,-0.041
6.808,0.031
6.809,0.103
6.810,0.181
6.811,0.259
6.812,0.334
6.813,0.419
6.814,0.524
6.815,0.637
6.816,0.766
6.817,0.906
6.818,1.097
6.819,1.266
6.820,1.369
6.821,1.428
6.822,1.416
6.823,1.403
6.824,1.399
6.825,1.397
6.826,1.409
6.827,1.428
6.828,1.437
6.829,1.444
6.830,1.426
6.831,1.391
6.832,1.322
6.833,1.237
6.834,1.104
6.835,0.959
6.836,0.826
6.837,0.703
6.838,0.537
6.839,0.369
6.840,0.202
6.841,0.056
6.842,-0.044
6.843,-0.097
6.844,-0.104
6.845,-0.081
6.846,-0.051
6.847,-0.041
6.848,-0.031
6.849,-0.028
6.850,-0.039
6.851,-0.050
6.852,-0.066
6.853,-0.081
6.854,-0.091
6.855,-0.088
6.856,-0.078
6.857,-0.069
6.858,-0.055
6.859,-0.047
6.860,-0.039
6.861,-0.028
6.862,-0.026
6.863,-0.028
6.864,-0.030
6.865,-0.028
6.866,-0.029
6.867,-0.028
6.868,-0.033
6.869,-0.031
6.870,-0.033
6.871,-0.031
6.872,-0.030
6.873,-0.031
6.874,-0.034
6.875,-0.044
6.876,-0.047
6.877,-0.053
6.878,-0.064
6.879,-0.069
6.880,-0.078
6.881,-0.084
6.882,-0.078
6.883,-0.075
6.884,-0.075
6.885,-0.072
6.886,-0.072
6.887,-0.072
6.888,-0.072
6.889,-0.069
6.890,-0.071
6.891,-0.072
6.892,-0.071
6.893,-0.072
6.894,-0.078
6.895,-0.081
6.896,-0.083
6.897,-0.084
6.898,-0.089
6.899,-0.091
6.900,-0.091
6.901,-0.091
6.902,-0.086
6.903,-0.084
6.904,-0.080
6.905,-0.075
6.906,-0.073
6.907,-0.075
6.908,-0.077
6.909,-0.078
6.910,-0.078
6.911,-0.075
6.912,-0.078
6.913,-0.081
6.914,-0.082
6.915,-0.081
6.916,-0.078
6.917,-0.078
6.918,-0.075
6.919,-0.075
6.920,-0.072
6.921,-0.069
6.922,-0.069
6.923,-0.069
6.924,-0.067
6.925,-0.069
6.926,-0.066
6.927,-0.069
6.928,-0.069
6.929,-0.069
6.930,-0.071
6.931,-0.069
6.932,-0.070
6.933,-0.066
6.934,-0.066
6.935,-0.066
6.936,-0.067
6.937,-0.069
6.938,-0.062
6.939,-0.056
6.940,-0.056
6.941,-0.059
6.942,-0.056
6.943,-0.050
6.944,-0.054
6.945,-0.050
6.946,-0.050
6.947,-0.050
6.948,-0.051
6.949,-0.050
6.950,-0.051
6.951,-0.053
6.952,-0.051
6.953,-0.053
6.954,-0.052
6.955,-0.047
6.956,-0.050
6.957,-0.047
6.958,-0.044
6.959,-0.041
6.960,-0.038
6.961,-0.038
6.962,-0.034
6.963,-0.034
6.964,-0.041
6.965,-0.038
6.966,-0.038
6.967,-0.038
6.968,-0.036
6.969,-0.031
6.970,-0.030
6.971,-0.028
6.972,-0.028
6.973,-0.028
6.974,-0.027
6.975,-0.025
6.976,-0.022
6.977,-0.019
6.978,-0.009
6.979,-0.009
6.980,-0.009
6.981,-0.009
6.982,-0.011
6.983,-0.009
6.984,-0.009
6.985,-0.009
6.986,-0.009
6.987,-0.009
6.988,-0.011
6.989,-0.009
6.990,-0.011
6.991,-0.013
6.992,-0.008
6.993,-0.006
6.994,0.000
6.995,-0.003
6.996,0.001
6.997,0.003
6.998,0.005
6.999,0.003
7.000,0.008
7.001,0.006
7.002,0.009
7.003,0.009
7.004,0.014
7.005,0.022
7.006,0.025
7.007,0.025
7.008,0.025
7.009,0.025
7.010,0.029
7.011,0.038
7.012,0.038
7.013,0.038
7.014,0.041
7.015,0.044
7.016,0.047
7.017,0.050
7.018,0.049
7.019,0.050
7.020,0.049
7.021,0.050
7.022,0.049
7.023,0.047
7.024,0.051
7.025,0.053
7.026,0.055
7.027,0.056
7.028,0.061
7.029,0.066
7.030,0.070
7.031,0.075
7.032,0.074
7.033,0.078
7.034,0.078
7.035,0.078
7.036,0.075
7.037,0.075
7.038,0.074
7.039,0.078
7.040,0.079
7.041,0.081
7.042,0.087
7.043,0.094
7.044,0.097
7.045,0.097
7.046,0.096
7.047,0.097
7.048,0.100
7.049,0.103
7.050,0.106
7.051,0.106
7.052,0.112
7.053,0.112
7.054,0.119
7.055,0.128
7.056,0.127
7.057,0.128
7.058,0.125
7.059,0.125
7.060,0.128
7.061,0.134
7.062,0.134
7.063,0.134
7.064,0.138
7.065,0.141
7.066,0.141
7.067,0.147
7.068,0.150
7.069,0.150
7.070,0.154
7.071,0.156
7.072,0.162
7.073,0.166
7.074,0.167
7.075,0.166
7.076,0.166
7.077,0.166
7.078,0.169
7.079,0.172
7.080,0.172
7.081,0.175
7.082,0.174
7.083,0.172
7.084,0.171
7.085,0.175
7.086,0.178
7.087,0.181
7.088,0.186
7.089,0.187
7.090,0.192
7.091,0.187
7.092,0.194
7.093,0.194
7.094,0.194
7.095,0.200
7.096,0.201
7.097,0.203
7.098,0.203
7.099,0.206
7.100,0.205
7.101,0.206
7.102,0.207
7.103,0.209
7.104,0.212
7.105,0.216
7.106,0.218
7.107,0.216
7.108,0.220
7.109,0.219
7.110,0.218
7.111,0.219
7.112,0.219
7.113,0.219
7.114,0.214
7.115,0.216
7.116,0.216
7.117,0.216
7.118,0.216
7.119,0.216
7.120,0.216
7.121,0.216
7.122,0.214
7.123,0.216
7.124,0.219
7.125,0.222
7.126,0.223
7.127,0.228
7.128,0.229
7.129,0.231
7.130,0.228
7.131,0.228
7.132,0.229
7.133,0.231
7.134,0.231
7.135,0.231
7.136,0.232
7.137,0.231
7.138,0.230
7.139,0.225
7.140,0.230
7.141,0.228
7.142,0.224
7.143,0.222
7.144,0.223
7.145,0.225
7.146,0.228
7.147,0.225
7.148,0.227
7.149,0.225
7.150,0.229
7.151,0.231
7.152,0.227
7.153,0.228
7.154,0.228
7.155,0.228
7.156,0.227
7.157,0.228
7.158,0.231
7.159,0.228
7.160,0.227
7.161,0.228
7.162,0.228
7.163,0.231
7.164,0.229
7.165,0.231
7.166,0.228
7.167,0.228
7.168,0.232
7.169,0.234
7.170,0.231
7.171,0.234
7.172,0.230
7.173,0.228
7.174,0.222
7.175,0.219
7.176,0.219
7.177,0.219
7.178,0.222
7.179,0.222
7.180,0.219
7.181,0.216
7.182,0.214
7.183,0.216
7.184,0.216
7.185,0.212
7.186,0.208
7.187,0.203
7.188,0.197
7.189,0.191
7.190,0.191
7.191,0.187
7.192,0.186
7.193,0.187
7.194,0.180
7.195,0.178
7.196,0.175
7.197,0.169
7.198,0.164
7.199,0.166
7.200,0.164
7.201,0.162
7.202,0.156
7.203,0.147
7.204,0.144
7.205,0.144
7.206,0.133
7.207,0.128
7.208,0.121
7.209,0.116
7.210,0.112
7.211,0.112
7.212,0.111
7.213,0.109
7.214,0.101
7.215,0.103
7.216,0.096
7.217,0.091
7.218,0.092
7.219,0.091
7.220,0.086
7.221,0.084
7.222,0.077
7.223,0.072
7.224,0.066
7.225,0.056
7.226,0.054
7.227,0.053
7.228,0.053
7.229,0.050
7.230,0.047
7.231,0.044
7.232,0.034
7.233,0.031
7.234,0.025
7.235,0.016
7.236,0.017
7.237,0.016
7.238,0.014
7.239,0.016
7.240,0.009
7.241,0.006
7.242,0.002
7.243,-0.003
7.244,-0.004
7.245,-0.006
7.246,-0.009
7.247,-0.013
7.248,-0.013
7.249,-0.013
7.250,-0.020
7.251,-0.025
7.252,-0.028
7.253,-0.028
7.254,-0.031
7.255,-0.031
7.256,-0.034
7.257,-0.034
7.258,-0.036
7.259,-0.041
7.260,-0.039
7.261,-0.041
7.262,-0.044
7.263,-0.047
7.264,-0.047
7.265,-0.047
7.266,-0.047
7.267,-0.047
7.268,-0.044
7.269,-0.044
7.270,-0.045
7.271,-0.047
7.272,-0.050
7.273,-0.056
7.274,-0.056
7.275,-0.059
7.276,-0.058
7.277,-0.056
7.278,-0.058
7.279,-0.059
7.280,-0.064
7.281,-0.066
7.282,-0.066
7.283,-0.066
7.284,-0.067
7.285,-0.069
7.286,-0.066
7.287,-0.066
7.288,-0.062
7.289,-0.056
7.290,-0.058
7.291,-0.059
7.292,-0.058
7.293,-0.056
7.294,-0.056
7.295,-0.056
7.296,-0.056
7.297,-0.059
7.298,-0.059
7.299,-0.062
7.300,-0.067
7.301,-0.072
7.302,-0.066
7.303,-0.069
7.304,-0.069
7.305,-0.066
7.306,-0.066
7.307,-0.066
7.308,-0.066
7.309,-0.066
7.310,-0.062
7.311,-0.066
7.312,-0.064
7.313,-0.066
7.314,-0.066
7.315,-0.066
7.316,-0.066
7.317,-0.066
7.318,-0.069
7.319,-0.072
7.320,-0.075
7.321,-0.075
7.322,-0.075
7.323,-0.072
7.324,-0.072
7.325,-0.072
7.326,-0.071
7.327,-0.072
7.328,-0.070
7.329,-0.072
7.330,-0.071
7.331,-0.072
7.332,-0.075
7.333,-0.075
7.334,-0.074
7.335,-0.075
7.336,-0.075
7.337,-0.075
7.338,-0.075
7.339,-0.075
7.340,-0.076
7.341,-0.078
7.342,-0.078
7.343,-0.078
7.344,-0.075
7.345,-0.072
7.346,-0.069
7.347,-0.069
7.348,-0.070
7.349,-0.072
7.350,-0.073
7.351,-0.075
7.352,-0.074
7.353,-0.075
7.354,-0.071
7.355,-0.072
7.356,-0.075
7.357,-0.078
7.358,-0.081
7.359,-0.081
7.360,-0.080
7.361,-0.075
7.362,-0.075
7.363,-0.078
7.364,-0.074
7.365,-0.072
7.366,-0.072
7.367,-0.069
7.368,-0.070
7.369,-0.075
7.370,-0.079
7.371,-0.081
7.372,-0.078
7.373,-0.081
7.374,-0.081
7.375,-0.084
7.376,-0.088
7.377,-0.084
7.378,-0.083
7.379,-0.078
7.380,-0.077
7.381,-0.078
7.382,-0.075
7.383,-0.081
7.384,-0.079
7.385,-0.081
7.386,-0.084
7.387,-0.084
7.388,-0.084
7.389,-0.088
7.390,-0.089
7.391,-0.088
7.392,-0.086
7.393,-0.088
7.394,-0.091
7.395,-0.088
7.396,-0.088
7.397,-0.091
7.398,-0.091
7.399,-0.091
7.400,-0.091
7.401,-0.091
7.402,-0.091
7.403,-0.091
7.404,-0.092
7.405,-0.094
7.406,-0.093
7.407,-0.094
7.408,-0.098
7.409,-0.100
7.410,-0.100
7.411,-0.100
7.412,-0.100
7.413,-0.100
7.414,-0.105
7.415,-0.103
7.416,-0.100
7.417,-0.094
7.418,-0.091
7.419,-0.094
7.420,-0.097
7.421,-0.097
7.422,-0.100
7.423,-0.103
7.424,-0.104
7.425,-0.103
7.426,-0.106
7.427,-0.106
7.428,-0.105
7.429,-0.103
7.430,-0.099
7.431,-0.094
7.432,-0.095
7.433,-0.097
7.434,-0.097
7.435,-0.103
7.436,-0.102
7.437,-0.100
7.438,-0.099
7.439,-0.097
7.440,-0.097
7.441,-0.097
7.442,-0.098
7.443,-0.100
7.444,-0.100
7.445,-0.100
7.446,-0.100
7.447,-0.103
7.448,-0.104
7.449,-0.106
7.450,-0.106
7.451,-0.109
7.452,-0.105
7.453,-0.106
7.454,-0.105
7.455,-0.103
7.456,-0.103
7.457,-0.103
7.458,-0.104
7.459,-0.106
7.460,-0.109
7.461,-0.106
7.462,-0.108
7.463,-0.109
7.464,-0.113
7.465,-0.113
7.466,-0.114
7.467,-0.113
7.468,-0.111
7.469,-0.113
7.470,-0.113
7.471,-0.113
7.472,-0.119
7.473,-0.122
7.474,-0.116
7.475,-0.113
7.476,-0.114
7.477,-0.113
7.478,-0.114
7.479,-0.116
7.480,-0.116
7.481,-0.116
7.482,-0.117
7.483,-0.116
7.484,-0.117
7.485,-0.119
7.486,-0.118
7.487,-0.119
7.488,-0.118
7.489,-0.116
7.490,-0.117
7.491,-0.119
7.492,-0.119
7.493,-0.119
7.494,-0.118
7.495,-0.119
7.496,-0.120
7.497,-0.119
7.498,-0.122
7.499,-0.122
7.500,-0.125
7.501,-0.122
7.502,-0.121
7.503,-0.122
7.504,-0.121
7.505,-0.119
7.506,-0.116
7.507,-0.116
7.508,-0.114
7.509,-0.113
7.510,-0.113
7.511,-0.113
7.512,-0.111
7.513,-0.109
7.514,-0.113
7.515,-0.113
7.516,-0.113
7.517,-0.116
7.518,-0.114
7.519,-0.113
7.520,-0.119
7.521,-0.119
7.522,-0.122
7.523,-0.122
7.524,-0.122
7.525,-0.122
7.526,-0.121
7.527,-0.119
7.528,-0.119
7.529,-0.116
7.530,-0.116
7.531,-0.119
7.532,-0.120
7.533,-0.122
7.534,-0.120
7.535,-0.125
7.536,-0.126
7.537,-0.125
7.538,-0.122
7.539,-0.119
7.540,-0.119
7.541,-0.119
7.542,-0.120
7.543,-0.122
7.544,-0.122
7.545,-0.122
7.546,-0.122
7.547,-0.122
7.548,-0.126
7.549,-0.125
7.550,-0.124
7.551,-0.125
7.552,-0.126
7.553,-0.125
7.554,-0.125
7.555,-0.125
7.556,-0.125
7.557,-0.125
7.558,-0.124
7.559,-0.122
7.560,-0.121
7.561,-0.122
7.562,-0.122
7.563,-0.125
7.564,-0.124
7.565,-0.122
7.566,-0.125
7.567,-0.125
7.568,-0.126
7.569,-0.128
7.570,-0.129
7.571,-0.128
7.572,-0.130
7.573,-0.131
7.574,-0.130
7.575,-0.128
7.576,-0.124
7.577,-0.122
7.578,-0.122
7.579,-0.116
7.580,-0.119
7.581,-0.122
7.582,-0.120
7.583,-0.122
7.584,-0.120
7.585,-0.122
7.586,-0.123
7.587,-0.122
7.588,-0.125
7.589,-0.125
7.590,-0.133
7.591,-0.138
7.592,-0.134
7.593,-0.131
7.594,-0.128
7.595,-0.122
7.596,-0.125
7.597,-0.125
7.598,-0.119
7.599,-0.119
7.600,-0.120
7.601,-0.119
7.602,-0.120
7.603,-0.119
7.604,-0.114
7.605,-0.116
7.606,-0.116
7.607,-0.119
7.608,-0.122
7.609,-0.125
7.610,-0.125
7.611,-0.125
7.612,-0.125
7.613,-0.125
7.614,-0.124
7.615,-0.125
7.616,-0.124
7.617,-0.122
7.618,-0.121
7.619,-0.119
7.620,-0.122
7.621,-0.122
7.622,-0.119
7.623,-0.122
7.624,-0.122
7.625,-0.128
7.626,-0.125
7.627,-0.125
7.628,-0.126
7.629,-0.128
7.630,-0.125
7.631,-0.125
7.632,-0.124
7.633,-0.122
7.634,-0.123
7.635,-0.125
7.636,-0.126
7.637,-0.128
7.638,-0.125
7.639,-0.125
7.640,-0.125
7.641,-0.125
7.642,-0.125
7.643,-0.125
7.644,-0.123
7.645,-0.125
7.646,-0.125
7.647,-0.122
7.648,-0.125
7.649,-0.125
7.650,-0.123
7.651,-0.122
7.652,-0.125
7.653,-0.128
7.654,-0.129
7.655,-0.131
7.656,-0.133
7.657,-0.134
7.658,-0.133
7.659,-0.128
7.660,-0.129
7.661,-0.128
7.662,-0.130
7.663,-0.131
7.664,-0.128
7.665,-0.128
7.666,-0.130
7.667,-0.125
7.668,-0.124
7.669,-0.125
7.670,-0.128
7.671,-0.128
7.672,-0.131
7.673,-0.131
7.674,-0.133
7.675,-0.131
7.676,-0.131
7.677,-0.128
7.678,-0.134
7.679,-0.141
7.680,-0.142
7.681,-0.141
7.682,-0.143
7.683,-0.141
7.684,-0.141
7.685,-0.141
7.686,-0.138
7.687,-0.134
7.688,-0.130
7.689,-0.128
7.690,-0.131
7.691,-0.131
7.692,-0.131
7.693,-0.134
7.694,-0.133
7.695,-0.134
7.696,-0.134
7.697,-0.134
7.698,-0.131
7.699,-0.131
7.700,-0.130
7.701,-0.131
7.702,-0.133
7.703,-0.131
7.704,-0.128
7.705,-0.128
7.706,-0.127
7.707,-0.125
7.708,-0.123
7.709,-0.125
7.710,-0.126
7.711,-0.125
7.712,-0.125
7.713,-0.128
7.714,-0.125
7.715,-0.125
7.716,-0.121
7.717,-0.113
7.718,-0.111
7.719,-0.109
7.720,-0.108
7.721,-0.103
7.722,-0.096
7.723,-0.091
7.724,-0.086
7.725,-0.081
7.726,-0.078
7.727,-0.075
7.728,-0.072
7.729,-0.072
7.730,-0.072
7.731,-0.069
7.732,-0.067
7.733,-0.066
7.734,-0.055
7.735,-0.044
7.736,-0.042
7.737,-0.038
7.738,-0.036
7.739,-0.038
7.740,-0.038
7.741,-0.038
7.742,-0.034
7.743,-0.031
7.744,-0.030
7.745,-0.025
7.746,-0.027
7.747,-0.028
7.748,-0.028
7.749,-0.028
7.750,-0.036
7.751,-0.038
7.752,-0.036
7.753,-0.034
7.754,-0.024
7.755,-0.009
7.756,0.002
7.757,0.009
7.758,0.022
7.759,0.038
7.760,0.047
7.761,0.053
7.762,0.054
7.763,0.056
7.764,0.054
7.765,0.056
7.766,0.051
7.767,0.047
7.768,0.038
7.769,0.031
7.770,0.024
7.771,0.019
7.772,0.018
7.773,0.012
7.774,0.012
7.775,0.012
7.776,0.012
7.777,0.012
7.778,0.014
7.779,0.012
7.780,0.014
7.781,0.012
7.782,0.008
7.783,0.009
7.784,0.009
7.785,0.009
7.786,0.014
7.787,0.012
7.788,0.006
7.789,0.000
7.790,-0.009
7.791,-0.022
7.792,-0.028
7.793,-0.028
7.794,-0.029
7.795,-0.028
7.796,-0.022
7.797,-0.016
7.798,-0.016
7.799,-0.013
7.800,-0.017
7.801,-0.025
7.802,-0.038
7.803,-0.050
7.804,-0.056
7.805,-0.066
7.806,-0.078
7.807,-0.088
7.808,-0.094
7.809,-0.100
7.810,-0.103
7.811,-0.106
7.812,-0.116
7.813,-0.128
7.814,-0.139
7.815,-0.144
7.816,-0.148
7.817,-0.147
7.818,-0.145
7.819,-0.144
7.820,-0.143
7.821,-0.144
7.822,-0.144
7.823,-0.144
7.824,-0.151
7.825,-0.156
7.826,-0.156
7.827,-0.156
7.828,-0.158
7.829,-0.163
7.830,-0.163
7.831,-0.166
7.832,-0.167
7.833,-0.169
7.834,-0.167
7.835,-0.169
7.836,-0.169
7.837,-0.166
7.838,-0.161
7.839,-0.163
7.840,-0.163
7.841,-0.163
7.842,-0.164
7.843,-0.166
7.844,-0.163
7.845,-0.163
7.846,-0.166
7.847,-0.169
7.848,-0.172
7.849,-0.169
7.850,-0.172
7.851,-0.178
7.852,-0.175
7.853,-0.175
7.854,-0.175
7.855,-0.175
7.856,-0.175
7.857,-0.175
7.858,-0.171
7.859,-0.166
7.860,-0.166
7.861,-0.166
7.862,-0.166
7.863,-0.172
7.864,-0.171
7.865,-0.166
7.866,-0.166
7.867,-0.166
7.868,-0.164
7.869,-0.166
7.870,-0.163
7.871,-0.163
7.872,-0.161
7.873,-0.163
7.874,-0.163
7.875,-0.166
7.876,-0.166
7.877,-0.166
7.878,-0.164
7.879,-0.166
7.880,-0.166
7.881,-0.166
7.882,-0.170
7.883,-0.169
7.884,-0.166
7.885,-0.169
7.886,-0.164
7.887,-0.163
7.888,-0.163
7.889,-0.163
7.890,-0.163
7.891,-0.166
7.892,-0.163
7.893,-0.166
7.894,-0.169
7.895,-0.172
7.896,-0.178
7.897,-0.188
7.898,-0.197
7.899,-0.200
7.900,-0.203
7.901,-0.203
7.902,-0.200
7.903,-0.200
7.904,-0.198
7.905,-0.197
7.906,-0.197
7.907,-0.197
7.908,-0.208
7.909,-0.222
7.910,-0.230
7.911,-0.231
7.912,-0.219
7.913,-0.197
7.914,-0.163
7.915,-0.122
7.916,-0.075
7.917,-0.019
7.918,0.053
7.919,0.125
7.920,0.197
7.921,0.269
7.922,0.351
7.923,0.444
7.924,0.555
7.925,0.675
7.926,0.814
7.927,0.966
7.928,1.144
7.929,1.300
7.930,1.381
7.931,1.419
7.932,1.403
7.933,1.387
7.934,1.389
7.935,1.394
7.936,1.400
7.937,1.412
7.938,1.412
7.939,1.409
7.940,1.387
7.941,1.347
7.942,1.272
7.943,1.181
7.944,1.047
7.945,0.900
7.946,0.756
7.947,0.622
7.948,0.456
7.949,0.287
7.950,0.132
7.951,0.000
7.952,-0.086
7.953,-0.125
7.954,-0.125
7.955,-0.094
7.956,-0.058
7.957,-0.041
7.958,-0.033
7.959,-0.031
7.960,-0.036
7.961,-0.041
7.962,-0.053
7.963,-0.066
7.964,-0.076
7.965,-0.075
7.966,-0.061
7.967,-0.047
7.968,-0.038
7.969,-0.034
7.970,-0.036
7.971,-0.034
7.972,-0.031
7.973,-0.031
7.974,-0.038
7.975,-0.041
7.976,-0.041
7.977,-0.038
7.978,-0.034
7.979,-0.025
7.980,-0.026
7.981,-0.025
7.982,-0.025
7.983,-0.028
7.984,-0.028
7.985,-0.034
7.986,-0.041
7.987,-0.050
7.988,-0.064
7.989,-0.072
7.990,-0.077
7.991,-0.078
7.992,-0.076
7.993,-0.078
7.994,-0.077
7.995,-0.072
7.996,-0.071
7.997,-0.069
7.998,-0.069
7.999,-0.066
8.000,-0.068
8.001,-0.069
8.002,-0.069
8.003,-0.072
8.004,-0.076
8.005,-0.078
8.006,-0.082
8.007,-0.088
8.008,-0.089
8.009,-0.088
8.010,-0.089
8.011,-0.091
8.012,-0.086
8.013,-0.084
8.014,-0.081
8.015,-0.078
8.016,-0.075
8.017,-0.075
8.018,-0.078
8.019,-0.081
8.020,-0.084
8.021,-0.084
8.022,-0.088
8.023,-0.091
8.024,-0.092
8.025,-0.091
8.026,-0.086
8.027,-0.084
8.028,-0.080
8.029,-0.078
8.030,-0.075
8.031,-0.072
8.032,-0.068
8.033,-0.062
8.034,-0.061
8.035,-0.062
8.036,-0.059
8.037,-0.062
8.038,-0.062
8.039,-0.062
8.040,-0.066
8.041,-0.066
8.042,-0.069
8.043,-0.066
8.044,-0.066
8.045,-0.066
8.046,-0.066
8.047,-0.066
8.048,-0.061
8.049,-0.056
8.050,-0.055
8.051,-0.056
8.052,-0.058
8.053,-0.056
8.054,-0.062
8.055,-0.059
8.056,-0.056
8.057,-0.053
8.058,-0.053
8.059,-0.050
8.060,-0.050
8.061,-0.050
8.062,-0.048
8.063,-0.050
8.064,-0.050
8.065,-0.047
8.066,-0.049
8.067,-0.044
8.068,-0.047
8.069,-0.050
8.070,-0.047
8.071,-0.047
8.072,-0.041
8.073,-0.038
8.074,-0.042
8.075,-0.038
8.076,-0.036
8.077,-0.034
8.078,-0.034
8.079,-0.031
8.080,-0.031
8.081,-0.031
8.082,-0.025
8.083,-0.019
8.084,-0.023
8.085,-0.028
8.086,-0.025
8.087,-0.022
8.088,-0.013
8.089,-0.013
8.090,-0.013
8.091,-0.013
8.092,-0.014
8.093,-0.013
8.094,-0.013
8.095,-0.013
8.096,-0.009
8.097,-0.006
8.098,-0.006
8.099,-0.003
8.100,0.000
8.101,0.003
8.102,0.006
8.103,0.006
8.104,0.012
8.105,0.009
8.106,0.012
8.107,0.012
8.108,0.014
8.109,0.012
8.110,0.020
8.111,0.022
8.112,0.025
8.113,0.025
8.114,0.024
8.115,0.025
8.116,0.028
8.117,0.028
8.118,0.032
8.119,0.038
8.120,0.036
8.121,0.038
8.122,0.038
8.123,0.038
8.124,0.041
8.125,0.044
8.126,0.050
8.127,0.056
8.128,0.055
8.129,0.056
8.130,0.053
8.131,0.053
8.132,0.053
8.133,0.053
8.134,0.056
8.135,0.056
8.136,0.064
8.137,0.072
8.138,0.072
8.139,0.072
8.140,0.072
8.141,0.072
8.142,0.072
8.143,0.078
8.144,0.081
8.145,0.084
8.146,0.083
8.147,0.084
8.148,0.084
8.149,0.091
8.150,0.094
8.151,0.097
8.152,0.097
8.153,0.097
8.154,0.100
8.155,0.100
8.156,0.103
8.157,0.109
8.158,0.111
8.159,0.112
8.160,0.119
8.161,0.122
8.162,0.125
8.163,0.122
8.164,0.124
8.165,0.128
8.166,0.131
8.167,0.138
8.168,0.136
8.169,0.138
8.170,0.141
8.171,0.147
8.172,0.148
8.173,0.150
8.174,0.150
8.175,0.150
8.176,0.150
8.177,0.156
8.178,0.162
8.179,0.166
8.180,0.167
8.181,0.166
8.182,0.171
8.183,0.172
8.184,0.174
8.185,0.172
8.186,0.172
8.187,0.172
8.188,0.179
8.189,0.187
8.190,0.184
8.191,0.184
8.192,0.183
8.193,0.181
8.194,0.180
8.195,0.184
8.196,0.186
8.197,0.187
8.198,0.195
8.199,0.200
8.200,0.203
8.201,0.197
8.202,0.203
8.203,0.203
8.204,0.204
8.205,0.212
8.206,0.216
8.207,0.219
8.208,0.218
8.209,0.219
8.210,0.220
8.211,0.225
8.212,0.221
8.213,0.216
8.214,0.216
8.215,0.216
8.216,0.220
8.217,0.222
8.218,0.225
8.219,0.222
8.220,0.223
8.221,0.228
8.222,0.225
8.223,0.222
8.224,0.219
8.225,0.222
8.226,0.225
8.227,0.228
8.228,0.228
8.229,0.228
8.230,0.227
8.231,0.225
8.232,0.224
8.233,0.225
8.234,0.224
8.235,0.222
8.236,0.221
8.237,0.222
8.238,0.223
8.239,0.225
8.240,0.223
8.241,0.225
8.242,0.226
8.243,0.228
8.244,0.227
8.245,0.225
8.246,0.226
8.247,0.225
8.248,0.225
8.249,0.222
8.250,0.228
8.251,0.228
8.252,0.225
8.253,0.225
8.254,0.228
8.255,0.231
8.256,0.233
8.257,0.228
8.258,0.231
8.259,0.231
8.260,0.234
8.261,0.234
8.262,0.230
8.263,0.231
8.264,0.232
8.265,0.234
8.266,0.233
8.267,0.234
8.268,0.238
8.269,0.234
8.270,0.236
8.271,0.241
8.272,0.242
8.273,0.247
8.274,0.245
8.275,0.247
8.276,0.244
8.277,0.244
8.278,0.247
8.279,0.247
8.280,0.241
8.281,0.241
8.282,0.238
8.283,0.238
8.284,0.230
8.285,0.225
8.286,0.224
8.287,0.222
8.288,0.225
8.289,0.225
8.290,0.222
8.291,0.219
8.292,0.216
8.293,0.216
8.294,0.212
8.295,0.206
8.296,0.203
8.297,0.200
8.298,0.199
8.299,0.197
8.300,0.195
8.301,0.191
8.302,0.186
8.303,0.184
8.304,0.179
8.305,0.181
8.306,0.181
8.307,0.178
8.308,0.169
8.309,0.166
8.310,0.162
8.311,0.159
8.312,0.156
8.313,0.150
8.314,0.148
8.315,0.150
8.316,0.144
8.317,0.144
8.318,0.134
8.319,0.128
8.320,0.123
8.321,0.122
8.322,0.116
8.323,0.109
8.324,0.100
8.325,0.100
8.326,0.091
8.327,0.084
8.328,0.084
8.329,0.081
8.330,0.075
8.331,0.072
8.332,0.066
8.333,0.062
8.334,0.059
8.335,0.053
8.336,0.046
8.337,0.038
8.338,0.033
8.339,0.025
8.340,0.023
8.341,0.022
8.342,0.017
8.343,0.019
8.344,0.019
8.345,0.016
8.346,0.012
8.347,0.006
8.348,0.003
8.349,0.003
8.350,-0.004
8.351,-0.009
8.352,-0.013
8.353,-0.016
8.354,-0.017
8.355,-0.019
8.356,-0.021
8.357,-0.022
8.358,-0.022
8.359,-0.022
8.360,-0.028
8.361,-0.031
8.362,-0.034
8.363,-0.034
8.364,-0.036
8.365,-0.034
8.366,-0.038
8.367,-0.038
8.368,-0.039
8.369,-0.044
8.370,-0.045
8.371,-0.050
8.372,-0.053
8.373,-0.056
8.374,-0.059
8.375,-0.062
8.376,-0.062
8.377,-0.062
8.378,-0.062
8.379,-0.066
8.380,-0.066
8.381,-0.066
8.382,-0.066
8.383,-0.069
8.384,-0.068
8.385,-0.069
8.386,-0.073
8.387,-0.078
8.388,-0.078
8.389,-0.078
8.390,-0.078
8.391,-0.075
8.392,-0.074
8.393,-0.072
8.394,-0.072
8.395,-0.072
8.396,-0.072
8.397,-0.075
8.398,-0.076
8.399,-0.075
8.400,-0.075
8.401,-0.075
8.402,-0.076
8.403,-0.078
8.404,-0.078
8.405,-0.078
8.406,-0.077
8.407,-0.078
8.408,-0.078
8.409,-0.081
8.410,-0.083
8.411,-0.084
8.412,-0.078
8.413,-0.081
8.414,-0.080
8.415,-0.075
8.416,-0.075
8.417,-0.075
8.418,-0.076
8.419,-0.078
8.420,-0.075
8.421,-0.078
8.422,-0.076
8.423,-0.078
8.424,-0.078
8.425,-0.078
8.426,-0.078
8.427,-0.078
8.428,-0.079
8.429,-0.081
8.430,-0.086
8.431,-0.088
8.432,-0.089
8.433,-0.088
8.434,-0.086
8.435,-0.084
8.436,-0.081
8.437,-0.081
8.438,-0.078
8.439,-0.078
8.440,-0.078
8.441,-0.081
8.442,-0.078
8.443,-0.072
8.444,-0.071
8.445,-0.072
8.446,-0.072
8.447,-0.072
8.448,-0.075
8.449,-0.078
8.450,-0.082
8.451,-0.088
8.452,-0.089
8.453,-0.091
8.454,-0.088
8.455,-0.084
8.456,-0.080
8.457,-0.078
8.458,-0.077
8.459,-0.075
8.460,-0.075
8.461,-0.075
8.462,-0.074
8.463,-0.075
8.464,-0.075
8.465,-0.081
8.466,-0.080
8.467,-0.078
8.468,-0.081
8.469,-0.081
8.470,-0.084
8.471,-0.084
8.472,-0.081
8.473,-0.081
8.474,-0.078
8.475,-0.078
8.476,-0.079
8.477,-0.078
8.478,-0.075
8.479,-0.075
8.480,-0.078
8.481,-0.078
8.482,-0.076
8.483,-0.081
8.484,-0.081
8.485,-0.084
8.486,-0.089
8.487,-0.088
8.488,-0.086
8.489,-0.081
8.490,-0.078
8.491,-0.078
8.492,-0.074
8.493,-0.078
8.494,-0.075
8.495,-0.075
8.496,-0.082
8.497,-0.088
8.498,-0.088
8.499,-0.091
8.500,-0.092
8.501,-0.091
8.502,-0.088
8.503,-0.088
8.504,-0.091
8.505,-0.088
8.506,-0.089
8.507,-0.094
8.508,-0.097
8.509,-0.100
8.510,-0.100
8.511,-0.100
8.512,-0.099
8.513,-0.097
8.514,-0.096
8.515,-0.094
8.516,-0.089
8.517,-0.088
8.518,-0.091
8.519,-0.091
8.520,-0.094
8.521,-0.097
8.522,-0.097
8.523,-0.097
8.524,-0.102
8.525,-0.100
8.526,-0.094
8.527,-0.084
8.528,-0.081
8.529,-0.084
8.530,-0.089
8.531,-0.091
8.532,-0.092
8.533,-0.094
8.534,-0.095
8.535,-0.094
8.536,-0.098
8.537,-0.100
8.538,-0.101
8.539,-0.103
8.540,-0.103
8.541,-0.103
8.542,-0.104
8.543,-0.106
8.544,-0.102
8.545,-0.103
8.546,-0.104
8.547,-0.106
8.548,-0.105
8.549,-0.103
8.550,-0.102
8.551,-0.100
8.552,-0.100
8.553,-0.100
8.554,-0.104
8.555,-0.109
8.556,-0.109
8.557,-0.113
8.558,-0.113
8.559,-0.113
8.560,-0.108
8.561,-0.106
8.562,-0.103
8.563,-0.106
8.564,-0.103
8.565,-0.100
8.566,-0.100
8.567,-0.100
8.568,-0.101
8.569,-0.103
8.570,-0.106
8.571,-0.103
8.572,-0.104
8.573,-0.106
8.574,-0.109
8.575,-0.109
8.576,-0.109
8.577,-0.106
8.578,-0.106
8.579,-0.109
8.580,-0.108
8.581,-0.106
8.582,-0.109
8.583,-0.109
8.584,-0.106
8.585,-0.106
8.586,-0.109
8.587,-0.109
8.588,-0.106
8.589,-0.103
8.590,-0.103
8.591,-0.103
8.592,-0.106
8.593,-0.106
8.594,-0.105
8.595,-0.103
8.596,-0.103
8.597,-0.106
8.598,-0.106
8.599,-0.106
8.600,-0.106
8.601,-0.106
8.602,-0.106
8.603,-0.106
8.604,-0.105
8.605,-0.106
8.606,-0.108
8.607,-0.106
8.608,-0.108
8.609,-0.106
8.610,-0.109
8.611,-0.106
8.612,-0.106
8.613,-0.109
8.614,-0.109
8.615,-0.109
8.616,-0.108
8.617,-0.109
8.618,-0.109
8.619,-0.109
8.620,-0.114
8.621,-0.119
8.622,-0.116
8.623,-0.113
8.624,-0.116
8.625,-0.116
8.626,-0.114
8.627,-0.116
8.628,-0.117
8.629,-0.119
8.630,-0.119
8.631,-0.113
8.632,-0.114
8.633,-0.113
8.634,-0.114
8.635,-0.116
8.636,-0.118
8.637,-0.119
8.638,-0.119
8.639,-0.116
8.640,-0.116
8.641,-0.119
8.642,-0.114
8.643,-0.113
8.644,-0.116
8.645,-0.116
8.646,-0.122
8.647,-0.125
8.648,-0.123
8.649,-0.125
8.650,-0.123
8.651,-0.122
8.652,-0.124
8.653,-0.122
8.654,-0.124
8.655,-0.122
8.656,-0.122
8.657,-0.122
8.658,-0.122
8.659,-0.122
8.660,-0.118
8.661,-0.113
8.662,-0.116
8.663,-0.116
8.664,-0.117
8.665,-0.119
8.666,-0.119
8.667,-0.122
8.668,-0.122
8.669,-0.119
8.670,-0.123
8.671,-0.122
8.672,-0.125
8.673,-0.122
8.674,-0.122
8.675,-0.122
8.676,-0.122
8.677,-0.119
8.678,-0.119
8.679,-0.119
8.680,-0.116
8.681,-0.113
8.682,-0.113
8.683,-0.113
8.684,-0.113
8.685,-0.113
8.686,-0.113
8.687,-0.113
8.688,-0.117
8.689,-0.116
8.690,-0.116
8.691,-0.116
8.692,-0.113
8.693,-0.109
8.694,-0.108
8.695,-0.116
8.696,-0.122
8.697,-0.122
8.698,-0.119
8.699,-0.119
8.700,-0.119
8.701,-0.119
8.702,-0.118
8.703,-0.119
8.704,-0.121
8.705,-0.119
8.706,-0.120
8.707,-0.125
8.708,-0.122
8.709,-0.125
8.710,-0.125
8.711,-0.119
8.712,-0.118
8.713,-0.119
8.714,-0.119
8.715,-0.122
8.716,-0.122
8.717,-0.119
8.718,-0.116
8.719,-0.119
8.720,-0.120
8.721,-0.122
8.722,-0.120
8.723,-0.122
8.724,-0.118
8.725,-0.119
8.726,-0.121
8.727,-0.119
8.728,-0.116
8.729,-0.119
8.730,-0.120
8.731,-0.122
8.732,-0.118
8.733,-0.113
8.734,-0.114
8.735,-0.113
8.736,-0.113
8.737,-0.116
8.738,-0.117
8.739,-0.119
8.740,-0.123
8.741,-0.122
8.742,-0.121
8.743,-0.119
8.744,-0.119
8.745,-0.116
8.746,-0.117
8.747,-0.119
8.748,-0.121
8.749,-0.119
8.750,-0.117
8.751,-0.116
8.752,-0.116
8.753,-0.116
8.754,-0.114
8.755,-0.109
8.756,-0.108
8.757,-0.106
8.758,-0.102
8.759,-0.097
8.760,-0.097
8.761,-0.094
8.762,-0.095
8.763,-0.097
8.764,-0.097
8.765,-0.097
8.766,-0.089
8.767,-0.081
8.768,-0.076
8.769,-0.072
8.770,-0.070
8.771,-0.069
8.772,-0.066
8.773,-0.062
8.774,-0.061
8.775,-0.056
8.776,-0.050
8.777,-0.044
8.778,-0.041
8.779,-0.038
8.780,-0.033
8.781,-0.031
8.782,-0.022
8.783,-0.019
8.784,-0.019
8.785,-0.016
8.786,-0.016
8.787,-0.016
8.788,-0.019
8.789,-0.019
8.790,-0.016
8.791,-0.016
8.792,-0.009
8.793,-0.009
8.794,-0.013
8.795,-0.013
8.796,-0.013
8.797,-0.016
8.798,-0.013
8.799,-0.006
8.800,0.000
8.801,0.009
8.802,0.026
8.803,0.044
8.804,0.058
8.805,0.072
8.806,0.081
8.807,0.084
8.808,0.089
8.809,0.091
8.810,0.092
8.811,0.091
8.812,0.086
8.813,0.075
8.814,0.069
8.815,0.059
8.816,0.053
8.817,0.047
8.818,0.042
8.819,0.041
8.820,0.038
8.821,0.038
8.822,0.039
8.823,0.041
8.824,0.041
8.825,0.041
8.826,0.038
8.827,0.038
8.828,0.034
8.829,0.031
8.830,0.033
8.831,0.031
8.832,0.032
8.833,0.034
8.834,0.031
8.835,0.028
8.836,0.019
8.837,0.006
8.838,-0.006
8.839,-0.009
8.840,-0.009
8.841,-0.009
8.842,-0.002
8.843,0.000
8.844,0.000
8.845,-0.003
8.846,-0.011
8.847,-0.022
8.848,-0.028
8.849,-0.038
8.850,-0.046
8.851,-0.053
8.852,-0.062
8.853,-0.069
8.854,-0.075
8.855,-0.084
8.856,-0.097
8.857,-0.106
8.858,-0.114
8.859,-0.125
8.860,-0.131
8.861,-0.131
8.862,-0.131
8.863,-0.134
8.864,-0.131
8.865,-0.128
8.866,-0.126
8.867,-0.128
8.868,-0.133
8.869,-0.134
8.870,-0.131
8.871,-0.134
8.872,-0.139
8.873,-0.141
8.874,-0.139
8.875,-0.141
8.876,-0.146
8.877,-0.144
8.878,-0.147
8.879,-0.147
8.880,-0.147
8.881,-0.144
8.882,-0.144
8.883,-0.144
8.884,-0.145
8.885,-0.147
8.886,-0.150
8.887,-0.150
8.888,-0.147
8.889,-0.147
8.890,-0.151
8.891,-0.150
8.892,-0.147
8.893,-0.147
8.894,-0.149
8.895,-0.150
8.896,-0.148
8.897,-0.150
8.898,-0.153
8.899,-0.150
8.900,-0.151
8.901,-0.153
8.902,-0.156
8.903,-0.159
8.904,-0.163
8.905,-0.166
8.906,-0.166
8.907,-0.166
8.908,-0.166
8.909,-0.166
8.910,-0.171
8.911,-0.169
8.912,-0.167
8.913,-0.169
8.914,-0.168
8.915,-0.163
8.916,-0.159
8.917,-0.153
8.918,-0.154
8.919,-0.156
8.920,-0.161
8.921,-0.159
8.922,-0.159
8.923,-0.156
8.924,-0.154
8.925,-0.156
8.926,-0.159
8.927,-0.159
8.928,-0.156
8.929,-0.156
8.930,-0.153
8.931,-0.150
8.932,-0.154
8.933,-0.153
8.934,-0.154
8.935,-0.156
8.936,-0.150
8.937,-0.144
8.938,-0.147
8.939,-0.144
8.940,-0.153
8.941,-0.163
8.942,-0.167
8.943,-0.178
8.944,-0.188
8.945,-0.194
8.946,-0.198
8.947,-0.200
8.948,-0.200
8.949,-0.200
8.950,-0.203
8.951,-0.203
8.952,-0.204
8.953,-0.209
8.954,-0.208
8.955,-0.216
8.956,-0.221
8.957,-0.222
8.958,-0.219
8.959,-0.203
8.960,-0.181
8.961,-0.147
8.962,-0.106
8.963,-0.053
8.964,0.009
8.965,0.081
8.966,0.151
8.967,0.228
8.968,0.311
8.969,0.400
8.970,0.503
8.971,0.628
8.972,0.757
8.973,0.900
8.974,1.042
8.975,1.203
8.976,1.306
8.977,1.359
8.978,1.397
8.979,1.359
8.980,1.336
8.981,1.337
8.982,1.334
8.983,1.341
8.984,1.347
8.985,1.341
8.986,1.330
8.987,1.291
8.988,1.239
8.989,1.156
8.990,1.056
8.991,0.912
8.992,0.770
8.993,0.625
8.994,0.467
8.995,0.297
8.996,0.159
8.997,0.019
8.998,-0.089
8.999,-0.150
9.000,-0.181
9.001,-0.166
9.002,-0.127
9.003,-0.084
9.004,-0.055
9.005,-0.034
9.006,-0.027
9.007,-0.031
9.008,-0.045
9.009,-0.066
9.010,-0.078
9.011,-0.084
9.012,-0.081
9.013,-0.069
9.014,-0.058
9.015,-0.047
9.016,-0.038
9.017,-0.031
9.018,-0.028
9.019,-0.028
9.020,-0.028
9.021,-0.031
9.022,-0.034
9.023,-0.038
9.024,-0.034
9.025,-0.038
9.026,-0.034
9.027,-0.034
9.028,-0.031
9.029,-0.031
9.030,-0.034
9.031,-0.038
9.032,-0.046
9.033,-0.047
9.034,-0.050
9.035,-0.056
9.036,-0.059
9.037,-0.066
9.038,-0.070
9.039,-0.069
9.040,-0.070
9.041,-0.072
9.042,-0.068
9.043,-0.066
9.044,-0.062
9.045,-0.059
9.046,-0.058
9.047,-0.062
9.048,-0.067
9.049,-0.069
9.050,-0.075
9.051,-0.081
9.052,-0.082
9.053,-0.088
9.054,-0.089
9.055,-0.088
9.056,-0.081
9.057,-0.075
9.058,-0.072
9.059,-0.069
9.060,-0.070
9.061,-0.072
9.062,-0.073
9.063,-0.072
9.064,-0.071
9.065,-0.072
9.066,-0.075
9.067,-0.075
9.068,-0.071
9.069,-0.072
9.070,-0.076
9.071,-0.078
9.072,-0.076
9.073,-0.075
9.074,-0.075
9.075,-0.072
9.076,-0.072
9.077,-0.069
9.078,-0.067
9.079,-0.069
9.080,-0.070
9.081,-0.069
9.082,-0.064
9.083,-0.056
9.084,-0.059
9.085,-0.059
9.086,-0.059
9.087,-0.062
9.088,-0.064
9.089,-0.066
9.090,-0.061
9.091,-0.062
9.092,-0.062
9.093,-0.062
9.094,-0.066
9.095,-0.066
9.096,-0.062
9.097,-0.062
9.098,-0.062
9.099,-0.059
9.100,-0.055
9.101,-0.056
9.102,-0.050
9.103,-0.050
9.104,-0.050
9.105,-0.050
9.106,-0.047
9.107,-0.047
9.108,-0.046
9.109,-0.041
9.110,-0.039
9.111,-0.038
9.112,-0.038
9.113,-0.044
9.114,-0.042
9.115,-0.044
9.116,-0.042
9.117,-0.038
9.118,-0.039
9.119,-0.038
9.120,-0.038
9.121,-0.041
9.122,-0.036
9.123,-0.038
9.124,-0.038
9.125,-0.038
9.126,-0.033
9.127,-0.031
9.128,-0.033
9.129,-0.031
9.130,-0.027
9.131,-0.025
9.132,-0.022
9.133,-0.016
9.134,-0.016
9.135,-0.013
9.136,-0.014
9.137,-0.013
9.138,-0.009
9.139,-0.006
9.140,-0.003
9.141,0.000
9.142,0.004
9.143,0.006
9.144,0.005
9.145,0.003
9.146,0.007
9.147,0.009
9.148,0.009
9.149,0.012
9.150,0.008
9.151,0.009
9.152,0.005
9.153,0.006
9.154,0.007
9.155,0.012
9.156,0.009
9.157,0.012
9.158,0.011
9.159,0.012
9.160,0.017
9.161,0.022
9.162,0.025
9.163,0.028
9.164,0.027
9.165,0.028
9.166,0.034
9.167,0.038
9.168,0.042
9.169,0.044
9.170,0.042
9.171,0.044
9.172,0.044
9.173,0.044
9.174,0.047
9.175,0.047
9.176,0.053
9.177,0.056
9.178,0.061
9.179,0.062
9.180,0.061
9.181,0.062
9.182,0.062
9.183,0.066
9.184,0.070
9.185,0.075
9.186,0.077
9.187,0.078
9.188,0.081
9.189,0.081
9.190,0.086
9.191,0.084
9.192,0.084
9.193,0.084
9.194,0.092
9.195,0.097
9.196,0.102
9.197,0.100
9.198,0.099
9.199,0.100
9.200,0.103
9.201,0.106
9.202,0.103
9.203,0.103
9.204,0.111
9.205,0.116
9.206,0.118
9.207,0.119
9.208,0.119
9.209,0.122
9.210,0.123
9.211,0.131
9.212,0.136
9.213,0.134
9.214,0.141
9.215,0.144
9.216,0.147
9.217,0.150
9.218,0.153
9.219,0.150
9.220,0.150
9.221,0.153
9.222,0.153
9.223,0.150
9.224,0.155
9.225,0.156
9.226,0.159
9.227,0.166
9.228,0.166
9.229,0.172
9.230,0.172
9.231,0.172
9.232,0.173
9.233,0.175
9.234,0.175
9.235,0.178
9.236,0.182
9.237,0.184
9.238,0.191
9.239,0.194
9.240,0.192
9.241,0.191
9.242,0.196
9.243,0.194
9.244,0.191
9.245,0.191
9.246,0.191
9.247,0.197
9.248,0.191
9.249,0.194
9.250,0.197
9.251,0.200
9.252,0.205
9.253,0.203
9.254,0.204
9.255,0.206
9.256,0.212
9.257,0.216
9.258,0.222
9.259,0.225
9.260,0.225
9.261,0.225
9.262,0.222
9.263,0.222
9.264,0.222
9.265,0.225
9.266,0.223
9.267,0.225
9.268,0.225
9.269,0.222
9.270,0.225
9.271,0.225
9.272,0.227
9.273,0.225
9.274,0.224
9.275,0.222
9.276,0.221
9.277,0.219
9.278,0.222
9.279,0.225
9.280,0.227
9.281,0.225
9.282,0.226
9.283,0.228
9.284,0.230
9.285,0.228
9.286,0.228
9.287,0.225
9.288,0.224
9.289,0.222
9.290,0.222
9.291,0.222
9.292,0.228
9.293,0.234
9.294,0.230
9.295,0.231
9.296,0.227
9.297,0.228
9.298,0.231
9.299,0.231
9.300,0.230
9.301,0.228
9.302,0.228
9.303,0.231
9.304,0.227
9.305,0.228
9.306,0.228
9.307,0.231
9.308,0.232
9.309,0.231
9.310,0.234
9.311,0.234
9.312,0.233
9.313,0.231
9.314,0.234
9.315,0.238
9.316,0.234
9.317,0.234
9.318,0.236
9.319,0.231
9.320,0.234
9.321,0.234
9.322,0.238
9.323,0.238
9.324,0.236
9.325,0.238
9.326,0.239
9.327,0.238
9.328,0.241
9.329,0.238
9.330,0.236
9.331,0.231
9.332,0.228
9.333,0.225
9.334,0.222
9.335,0.219
9.336,0.216
9.337,0.209
9.338,0.207
9.339,0.209
9.340,0.159
9.341,0.106
9.342,0.053
9.343,0.003
9.344,0.000
9.345,0.000
9.346,0.003
9.347,0.003
9.348,0.042
9.349,0.084
9.350,0.125
9.351,0.159
9.352,0.158
9.353,0.153
9.354,0.151
9.355,0.150
9.356,0.150
9.357,0.147
9.358,0.145
9.359,0.144
9.360,0.136
9.361,0.128
9.362,0.125
9.363,0.119
9.364,0.119
9.365,0.112
9.366,0.109
9.367,0.103
9.368,0.097
9.369,0.091
9.370,0.091
9.371,0.084
9.372,0.084
9.373,0.078
9.374,0.072
9.375,0.069
9.376,0.067
9.377,0.059
9.378,0.054
9.379,0.050
9.380,0.046
9.381,0.041
9.382,0.034
9.383,0.031
9.384,0.027
9.385,0.022
9.386,0.017
9.387,0.016
9.388,0.016
9.389,0.012
9.390,0.011
9.391,0.006
9.392,0.001
9.393,0.000
9.394,-0.005
9.395,-0.006
9.396,-0.009
9.397,-0.019
9.398,-0.023
9.399,-0.028
9.400,-0.033
9.401,-0.034
9.402,-0.036
9.403,-0.041
9.404,-0.041
9.405,-0.041
9.406,-0.041
9.407,-0.041
9.408,-0.044
9.409,-0.050
9.410,-0.050
9.411,-0.053
9.412,-0.053
9.413,-0.056
9.414,-0.055
9.415,-0.053
9.416,-0.056
9.417,-0.056
9.418,-0.059
9.419,-0.059
9.420,-0.061
9.421,-0.066
9.422,-0.070
9.423,-0.072
9.424,-0.072
9.425,-0.072
9.426,-0.072
9.427,-0.069
9.428,-0.068
9.429,-0.066
9.430,-0.069
9.431,-0.069
9.432,-0.073
9.433,-0.075
9.434,-0.074
9.435,-0.072
9.436,-0.071
9.437,-0.072
9.438,-0.076
9.439,-0.081
9.440,-0.081
9.441,-0.081
9.442,-0.080
9.443,-0.078
9.444,-0.080
9.445,-0.078
9.446,-0.076
9.447,-0.078
9.448,-0.078
9.449,-0.078
