'Elapsed time','II'
'seconds','mV'
0.000,0.038
0.001,0.034
0.002,0.031
0.003,0.028
0.004,0.027
0.005,0.025
0.006,0.024
0.007,0.022
0.008,0.018
0.009,0.013
0.010,0.011
0.011,0.009
0.012,0.006
0.013,0.003
0.014,0.002
0.015,0.000
0.016,0.000
0.017,0.000
0.018,0.001
0.019,0.003
0.020,0.003
0.021,0.003
0.022,-0.001
0.023,-0.006
0.024,-0.008
0.025,-0.009
0.026,-0.009
0.027,-0.009
0.028,-0.013
0.029,-0.016
0.030,-0.017
0.031,-0.019
0.032,-0.019
0.033,-0.019
0.034,-0.022
0.035,-0.025
0.036,-0.026
0.037,-0.028
0.038,-0.028
0.039,-0.028
0.040,-0.028
0.041,-0.028
0.042,-0.028
0.043,-0.028
0.044,-0.031
0.045,-0.034
0.046,-0.039
0.047,-0.044
0.048,-0.041
0.049,-0.038
0.050,-0.034
0.051,-0.031
0.052,-0.031
0.053,-0.031
0.054,-0.033
0.055,-0.034
0.056,-0.034
0.057,-0.034
0.058,-0.034
0.059,-0.034
0.060,-0.034
0.061,-0.034
0.062,-0.033
0.063,-0.031
0.064,-0.031
0.065,-0.031
0.066,-0.033
0.067,-0.034
0.068,-0.034
0.069,-0.034
0.070,-0.034
0.071,-0.034
0.072,-0.036
0.073,-0.038
0.074,-0.038
0.075,-0.038
0.076,-0.038
0.077,-0.038
0.078,-0.038
0.079,-0.038
0.080,-0.038
0.081,-0.038
0.082,-0.039
0.083,-0.041
0.084,-0.042
0.085,-0.044
0.086,-0.044
0.087,-0.044
0.088,-0.047
0.089,-0.047
0.090,-0.044
0.091,-0.041
0.092,-0.039
0.093,-0.041
0.094,-0.038
0.095,-0.038
0.096,-0.042
0.097,-0.041
0.098,-0.041
0.099,-0.041
0.100,-0.041
0.101,-0.044
0.102,-0.041
0.103,-0.041
0.104,-0.045
0.105,-0.047
0.106,-0.051
0.107,-0.050
0.108,-0.048
0.109,-0.047
0.110,-0.050
0.111,-0.050
0.112,-0.051
0.113,-0.053
0.114,-0.053
0.115,-0.053
0.116,-0.052
0.117,-0.053
0.118,-0.052
0.119,-0.053
0.120,-0.054
0.121,-0.056
0.122,-0.056
0.123,-0.056
0.124,-0.056
0.125,-0.056
0.126,-0.056
0.127,-0.059
0.128,-0.053
0.129,-0.050
0.130,-0.053
0.131,-0.056
0.132,-0.063
0.133,-0.063
0.134,-0.061
0.135,-0.063
0.136,-0.059
0.137,-0.056
0.138,-0.056
0.139,-0.056
0.140,-0.061
0.141,-0.059
0.142,-0.058
0.143,-0.056
0.144,-0.058
0.145,-0.059
0.146,-0.061
0.147,-0.066
0.148,-0.063
0.149,-0.066
0.150,-0.063
0.151,-0.063
0.152,-0.066
0.153,-0.066
0.154,-0.066
0.155,-0.066
0.156,-0.067
0.157,-0.072
0.158,-0.071
0.159,-0.069
0.160,-0.068
0.161,-0.066
0.162,-0.064
0.163,-0.059
0.164,-0.061
0.165,-0.063
0.166,-0.067
0.167,-0.069
0.168,-0.068
0.169,-0.069
0.170,-0.070
0.171,-0.072
0.172,-0.075
0.173,-0.078
0.174,-0.077
0.175,-0.075
0.176,-0.075
0.177,-0.072
0.178,-0.071
0.179,-0.072
0.180,-0.069
0.181,-0.066
0.182,-0.066
0.183,-0.066
0.184,-0.067
0.185,-0.069
0.186,-0.069
0.187,-0.069
0.188,-0.068
0.189,-0.066
0.190,-0.066
0.191,-0.066
0.192,-0.064
0.193,-0.066
0.194,-0.070
0.195,-0.072
0.196,-0.072
0.197,-0.072
0.198,-0.069
0.199,-0.069
0.200,-0.072
0.201,-0.072
0.202,-0.073
0.203,-0.075
0.204,-0.075
0.205,-0.075
0.206,-0.075
0.207,-0.075
0.208,-0.078
0.209,-0.078
0.210,-0.078
0.211,-0.078
0.212,-0.074
0.213,-0.072
0.214,-0.072
0.215,-0.072
0.216,-0.076
0.217,-0.081
0.218,-0.080
0.219,-0.075
0.220,-0.076
0.221,-0.084
0.222,-0.088
0.223,-0.091
0.224,-0.089
0.225,-0.091
0.226,-0.089
0.227,-0.088
0.228,-0.086
0.229,-0.084
0.230,-0.083
0.231,-0.081
0.232,-0.081
0.233,-0.081
0.234,-0.083
0.235,-0.081
0.236,-0.081
0.237,-0.081
0.238,-0.084
0.239,-0.088
0.240,-0.089
0.241,-0.097
0.242,-0.091
0.243,-0.091
0.244,-0.089
0.245,-0.088
0.246,-0.089
0.247,-0.091
0.248,-0.091
0.249,-0.091
0.250,-0.086
0.251,-0.081
0.252,-0.080
0.253,-0.078
0.254,-0.081
0.255,-0.084
0.256,-0.086
0.257,-0.088
0.258,-0.088
0.259,-0.088
0.260,-0.092
0.261,-0.091
0.262,-0.089
0.263,-0.091
0.264,-0.089
0.265,-0.088
0.266,-0.089
0.267,-0.091
0.268,-0.091
0.269,-0.091
0.270,-0.091
0.271,-0.094
0.272,-0.091
0.273,-0.091
0.274,-0.091
0.275,-0.088
0.276,-0.091
0.277,-0.091
0.278,-0.091
0.279,-0.091
0.280,-0.091
0.281,-0.094
0.282,-0.091
0.283,-0.091
0.284,-0.089
0.285,-0.091
0.286,-0.089
0.287,-0.088
0.288,-0.086
0.289,-0.084
0.290,-0.088
0.291,-0.088
0.292,-0.088
0.293,-0.088
0.294,-0.089
0.295,-0.091
0.296,-0.089
0.297,-0.091
0.298,-0.089
0.299,-0.091
0.300,-0.091
0.301,-0.091
0.302,-0.088
0.303,-0.088
0.304,-0.097
0.305,-0.100
0.306,-0.102
0.307,-0.100
0.308,-0.096
0.309,-0.091
0.310,-0.091
0.311,-0.091
0.312,-0.088
0.313,-0.088
0.314,-0.091
0.315,-0.091
0.316,-0.092
0.317,-0.091
0.318,-0.088
0.319,-0.084
0.320,-0.084
0.321,-0.084
0.322,-0.084
0.323,-0.088
0.324,-0.094
0.325,-0.097
0.326,-0.098
0.327,-0.097
0.328,-0.097
0.329,-0.094
0.330,-0.092
0.331,-0.091
0.332,-0.091
0.333,-0.091
0.334,-0.091
0.335,-0.094
0.336,-0.094
0.337,-0.094
0.338,-0.094
0.339,-0.094
0.340,-0.094
0.341,-0.094
0.342,-0.098
0.343,-0.100
0.344,-0.092
0.345,-0.088
0.346,-0.083
0.347,-0.081
0.348,-0.083
0.349,-0.084
0.350,-0.086
0.351,-0.088
0.352,-0.088
0.353,-0.088
0.354,-0.086
0.355,-0.088
0.356,-0.091
0.357,-0.091
0.358,-0.091
0.359,-0.091
0.360,-0.089
0.361,-0.088
0.362,-0.089
0.363,-0.091
0.364,-0.091
0.365,-0.091
0.366,-0.092
0.367,-0.094
0.368,-0.091
0.369,-0.094
0.370,-0.094
0.371,-0.094
0.372,-0.091
0.373,-0.084
0.374,-0.084
0.375,-0.084
0.376,-0.086
0.377,-0.088
0.378,-0.091
0.379,-0.091
0.380,-0.091
0.381,-0.091
0.382,-0.089
0.383,-0.091
0.384,-0.092
0.385,-0.091
0.386,-0.098
0.387,-0.097
0.388,-0.091
0.389,-0.088
0.390,-0.084
0.391,-0.081
0.392,-0.080
0.393,-0.075
0.394,-0.069
0.395,-0.069
0.396,-0.059
0.397,-0.053
0.398,-0.050
0.399,-0.044
0.400,-0.039
0.401,-0.034
0.402,-0.034
0.403,-0.031
0.404,-0.026
0.405,-0.028
0.406,-0.025
0.407,-0.022
0.408,-0.018
0.409,-0.013
0.410,-0.014
0.411,-0.016
0.412,-0.016
0.413,-0.016
0.414,-0.017
0.415,-0.019
0.416,-0.022
0.417,-0.025
0.418,-0.023
0.419,-0.022
0.420,-0.019
0.421,-0.013
0.422,-0.008
0.423,0.000
0.424,0.009
0.425,0.019
0.426,0.030
0.427,0.031
0.428,0.038
0.429,0.044
0.430,0.047
0.431,0.050
0.432,0.056
0.433,0.059
0.434,0.070
0.435,0.081
0.436,0.091
0.437,0.088
0.438,0.089
0.439,0.088
0.440,0.088
0.441,0.088
0.442,0.081
0.443,0.078
0.444,0.074
0.445,0.069
0.446,0.069
0.447,0.072
0.448,0.070
0.449,0.069
0.450,0.069
0.451,0.066
0.452,0.069
0.453,0.066
0.454,0.066
0.455,0.069
0.456,0.061
0.457,0.056
0.458,0.054
0.459,0.053
0.460,0.051
0.461,0.053
0.462,0.047
0.463,0.044
0.464,0.031
0.465,0.022
0.466,0.019
0.467,0.009
0.468,0.002
0.469,-0.006
0.470,-0.020
0.471,-0.031
0.472,-0.034
0.473,-0.041
0.474,-0.047
0.475,-0.047
0.476,-0.061
0.477,-0.072
0.478,-0.076
0.479,-0.081
0.480,-0.081
0.481,-0.081
0.482,-0.083
0.483,-0.081
0.484,-0.084
0.485,-0.088
0.486,-0.088
0.487,-0.088
0.488,-0.095
0.489,-0.097
0.490,-0.100
0.491,-0.103
0.492,-0.104
0.493,-0.106
0.494,-0.103
0.495,-0.103
0.496,-0.103
0.497,-0.103
0.498,-0.104
0.499,-0.109
0.500,-0.108
0.501,-0.109
0.502,-0.109
0.503,-0.109
0.504,-0.109
0.505,-0.109
0.506,-0.109
0.507,-0.109
0.508,-0.116
0.509,-0.122
0.510,-0.117
0.511,-0.119
0.512,-0.114
0.513,-0.109
0.514,-0.112
0.515,-0.109
0.516,-0.111
0.517,-0.112
0.518,-0.112
0.519,-0.112
0.520,-0.112
0.521,-0.109
0.522,-0.112
0.523,-0.109
0.524,-0.112
0.525,-0.112
0.526,-0.114
0.527,-0.112
0.528,-0.117
0.529,-0.122
0.530,-0.125
0.531,-0.125
0.532,-0.126
0.533,-0.131
0.534,-0.133
0.535,-0.134
0.536,-0.136
0.537,-0.141
0.538,-0.145
0.539,-0.153
0.540,-0.156
0.541,-0.162
0.542,-0.171
0.543,-0.175
0.544,-0.182
0.545,-0.187
0.546,-0.194
0.547,-0.200
0.548,-0.198
0.549,-0.191
0.550,-0.180
0.551,-0.162
0.552,-0.147
0.553,-0.131
0.554,-0.114
0.555,-0.088
0.556,-0.058
0.557,-0.025
0.558,0.006
0.559,0.044
0.560,0.091
0.561,0.150
0.562,0.206
0.563,0.266
0.564,0.331
0.565,0.400
0.566,0.471
0.567,0.534
0.568,0.594
0.569,0.641
0.570,0.691
0.571,0.734
0.572,0.784
0.573,0.834
0.574,0.881
0.575,0.934
0.576,0.978
0.577,1.022
0.578,1.063
0.579,1.094
0.580,1.124
0.581,1.150
0.582,1.167
0.583,1.166
0.584,1.156
0.585,1.119
0.586,1.088
0.587,1.059
0.588,1.027
0.589,0.966
0.590,0.878
0.591,0.775
0.592,0.644
0.593,0.494
0.594,0.363
0.595,0.241
0.596,0.147
0.597,0.069
0.598,0.000
0.599,-0.069
0.600,-0.125
0.601,-0.156
0.602,-0.178
0.603,-0.187
0.604,-0.194
0.605,-0.197
0.606,-0.206
0.607,-0.206
0.608,-0.204
0.609,-0.200
0.610,-0.200
0.611,-0.200
0.612,-0.196
0.613,-0.181
0.614,-0.169
0.615,-0.153
0.616,-0.146
0.617,-0.137
0.618,-0.133
0.619,-0.125
0.620,-0.116
0.621,-0.112
0.622,-0.107
0.623,-0.106
0.624,-0.106
0.625,-0.103
0.626,-0.102
0.627,-0.100
0.628,-0.099
0.629,-0.094
0.630,-0.097
0.631,-0.097
0.632,-0.101
0.633,-0.103
0.634,-0.100
0.635,-0.097
0.636,-0.098
0.637,-0.100
0.638,-0.096
0.639,-0.091
0.640,-0.089
0.641,-0.088
0.642,-0.092
0.643,-0.097
0.644,-0.100
0.645,-0.103
0.646,-0.100
0.647,-0.103
0.648,-0.105
0.649,-0.103
0.650,-0.103
0.651,-0.103
0.652,-0.103
0.653,-0.103
0.654,-0.104
0.655,-0.103
0.656,-0.103
0.657,-0.103
0.658,-0.100
0.659,-0.097
0.660,-0.095
0.661,-0.097
0.662,-0.096
0.663,-0.094
0.664,-0.097
0.665,-0.097
0.666,-0.100
0.667,-0.100
0.668,-0.098
0.669,-0.100
0.670,-0.100
0.671,-0.100
0.672,-0.098
0.673,-0.100
0.674,-0.099
0.675,-0.097
0.676,-0.092
0.677,-0.091
0.678,-0.092
0.679,-0.094
0.680,-0.094
0.681,-0.094
0.682,-0.097
0.683,-0.100
0.684,-0.103
0.685,-0.100
0.686,-0.094
0.687,-0.091
0.688,-0.088
0.689,-0.088
0.690,-0.089
0.691,-0.088
0.692,-0.089
0.693,-0.088
0.694,-0.089
0.695,-0.091
0.696,-0.089
0.697,-0.091
0.698,-0.089
0.699,-0.088
0.700,-0.092
0.701,-0.097
0.702,-0.094
0.703,-0.094
0.704,-0.092
0.705,-0.091
0.706,-0.088
0.707,-0.091
0.708,-0.088
0.709,-0.091
0.710,-0.091
0.711,-0.091
0.712,-0.091
0.713,-0.091
0.714,-0.091
0.715,-0.091
0.716,-0.095
0.717,-0.097
0.718,-0.097
0.719,-0.094
0.720,-0.094
0.721,-0.091
0.722,-0.088
0.723,-0.088
0.724,-0.081
0.725,-0.078
0.726,-0.080
0.727,-0.078
0.728,-0.081
0.729,-0.081
0.730,-0.083
0.731,-0.081
0.732,-0.084
0.733,-0.084
0.734,-0.086
0.735,-0.084
0.736,-0.083
0.737,-0.081
0.738,-0.084
0.739,-0.084
0.740,-0.086
0.741,-0.084
0.742,-0.081
0.743,-0.078
0.744,-0.081
0.745,-0.081
0.746,-0.083
0.747,-0.081
0.748,-0.084
0.749,-0.088
0.750,-0.089
0.751,-0.091
0.752,-0.088
0.753,-0.084
0.754,-0.080
0.755,-0.078
0.756,-0.076
0.757,-0.078
0.758,-0.075
0.759,-0.075
0.760,-0.076
0.761,-0.081
0.762,-0.084
0.763,-0.084
0.764,-0.077
0.765,-0.072
0.766,-0.072
0.767,-0.072
0.768,-0.073
0.769,-0.072
0.770,-0.068
0.771,-0.066
0.772,-0.069
0.773,-0.066
0.774,-0.066
0.775,-0.063
0.776,-0.066
0.777,-0.066
0.778,-0.058
0.779,-0.050
0.780,-0.050
0.781,-0.050
0.782,-0.050
0.783,-0.050
0.784,-0.051
0.785,-0.059
0.786,-0.056
0.787,-0.053
0.788,-0.050
0.789,-0.047
0.790,-0.050
0.791,-0.044
0.792,-0.041
0.793,-0.041
0.794,-0.039
0.795,-0.034
0.796,-0.031
0.797,-0.031
0.798,-0.030
0.799,-0.028
0.800,-0.028
0.801,-0.028
0.802,-0.028
0.803,-0.028
0.804,-0.024
0.805,-0.016
0.806,-0.016
0.807,-0.016
0.808,-0.017
0.809,-0.016
0.810,-0.013
0.811,-0.013
0.812,-0.013
0.813,-0.013
0.814,-0.008
0.815,-0.006
0.816,-0.003
0.817,-0.003
0.818,-0.004
0.819,0.000
0.820,-0.001
0.821,0.000
0.822,0.003
0.823,0.003
0.824,0.009
0.825,0.019
0.826,0.023
0.827,0.025
0.828,0.027
0.829,0.025
0.830,0.025
0.831,0.025
0.832,0.034
0.833,0.038
0.834,0.034
0.835,0.034
0.836,0.033
0.837,0.034
0.838,0.034
0.839,0.038
0.840,0.042
0.841,0.044
0.842,0.046
0.843,0.047
0.844,0.046
0.845,0.044
0.846,0.050
0.847,0.047
0.848,0.048
0.849,0.053
0.850,0.056
0.851,0.056
0.852,0.059
0.853,0.056
0.854,0.061
0.855,0.066
0.856,0.066
0.857,0.066
0.858,0.064
0.859,0.063
0.860,0.064
0.861,0.066
0.862,0.070
0.863,0.075
0.864,0.078
0.865,0.078
0.866,0.077
0.867,0.078
0.868,0.077
0.869,0.078
0.870,0.078
0.871,0.078
0.872,0.079
0.873,0.081
0.874,0.080
0.875,0.081
0.876,0.080
0.877,0.081
0.878,0.086
0.879,0.088
0.880,0.088
0.881,0.088
0.882,0.086
0.883,0.084
0.884,0.086
0.885,0.084
0.886,0.083
0.887,0.084
0.888,0.088
0.889,0.088
0.890,0.092
0.891,0.097
0.892,0.101
0.893,0.106
0.894,0.105
0.895,0.106
0.896,0.103
0.897,0.103
0.898,0.104
0.899,0.106
0.900,0.108
0.901,0.113
0.902,0.122
0.903,0.128
0.904,0.128
0.905,0.128
0.906,0.124
0.907,0.122
0.908,0.122
0.909,0.122
0.910,0.122
0.911,0.125
0.912,0.127
0.913,0.128
0.914,0.129
0.915,0.131
0.916,0.134
0.917,0.141
0.918,0.141
0.919,0.141
0.920,0.138
0.921,0.138
0.922,0.134
0.923,0.134
0.924,0.136
0.925,0.141
0.926,0.138
0.927,0.141
0.928,0.139
0.929,0.141
0.930,0.148
0.931,0.153
0.932,0.150
0.933,0.147
0.934,0.145
0.935,0.144
0.936,0.143
0.937,0.141
0.938,0.139
0.939,0.138
0.940,0.139
0.941,0.134
0.942,0.128
0.943,0.122
0.944,0.122
0.945,0.119
0.946,0.118
0.947,0.116
0.948,0.116
0.949,0.113
0.950,0.106
0.951,0.103
0.952,0.101
0.953,0.100
0.954,0.097
0.955,0.094
0.956,0.093
0.957,0.088
0.958,0.083
0.959,0.078
0.960,0.072
0.961,0.066
0.962,0.061
0.963,0.059
0.964,0.058
0.965,0.053
0.966,0.053
0.967,0.053
0.968,0.050
0.969,0.047
0.970,0.047
0.971,0.041
0.972,0.039
0.973,0.041
0.974,0.038
0.975,0.041
0.976,0.036
0.977,0.031
0.978,0.025
0.979,0.019
0.980,0.014
0.981,0.009
0.982,0.008
0.983,0.006
0.984,0.006
0.985,0.003
0.986,0.000
0.987,-0.006
0.988,-0.006
0.989,-0.006
0.990,-0.003
0.991,-0.006
0.992,-0.008
0.993,-0.006
0.994,-0.008
0.995,-0.003
0.996,-0.008
0.997,-0.009
0.998,-0.016
0.999,-0.019
1.000,-0.022
1.001,-0.022
1.002,-0.018
1.003,-0.019
1.004,-0.023
1.005,-0.025
1.006,-0.027
1.007,-0.022
1.008,-0.022
1.009,-0.022
1.010,-0.022
1.011,-0.022
1.012,-0.019
1.013,-0.022
1.014,-0.022
1.015,-0.022
1.016,-0.028
1.017,-0.028
1.018,-0.028
1.019,-0.022
1.020,-0.025
1.021,-0.025
1.022,-0.026
1.023,-0.028
1.024,-0.029
1.025,-0.028
1.026,-0.024
1.027,-0.016
1.028,-0.013
1.029,-0.013
1.030,-0.016
1.031,-0.019
1.032,-0.023
1.033,-0.025
1.034,-0.029
1.035,-0.031
1.036,-0.033
1.037,-0.034
1.038,-0.031
1.039,-0.031
1.040,-0.031
1.041,-0.028
1.042,-0.030
1.043,-0.031
1.044,-0.030
1.045,-0.025
1.046,-0.025
1.047,-0.028
1.048,-0.025
1.049,-0.025
1.050,-0.028
1.051,-0.028
1.052,-0.029
1.053,-0.031
1.054,-0.033
1.055,-0.031
1.056,-0.029
1.057,-0.031
1.058,-0.027
1.059,-0.025
1.060,-0.026
1.061,-0.028
1.062,-0.029
1.063,-0.031
1.064,-0.033
1.065,-0.031
1.066,-0.033
1.067,-0.034
1.068,-0.033
1.069,-0.031
1.070,-0.031
1.071,-0.031
1.072,-0.030
1.073,-0.028
1.074,-0.028
1.075,-0.028
1.076,-0.029
1.077,-0.031
1.078,-0.031
1.079,-0.031
1.080,-0.031
1.081,-0.031
1.082,-0.030
1.083,-0.028
1.084,-0.031
1.085,-0.031
1.086,-0.033
1.087,-0.034
1.088,-0.036
1.089,-0.041
1.090,-0.039
1.091,-0.034
1.092,-0.033
1.093,-0.031
1.094,-0.030
1.095,-0.031
1.096,-0.031
1.097,-0.031
1.098,-0.033
1.099,-0.034
1.100,-0.034
1.101,-0.034
1.102,-0.038
1.103,-0.041
1.104,-0.044
1.105,-0.047
1.106,-0.043
1.107,-0.041
1.108,-0.044
1.109,-0.044
1.110,-0.043
1.111,-0.038
1.112,-0.036
1.113,-0.034
1.114,-0.034
1.115,-0.034
1.116,-0.041
1.117,-0.041
1.118,-0.041
1.119,-0.044
1.120,-0.044
1.121,-0.044
1.122,-0.043
1.123,-0.041
1.124,-0.041
1.125,-0.041
1.126,-0.041
1.127,-0.041
1.128,-0.042
1.129,-0.044
1.130,-0.044
1.131,-0.044
1.132,-0.046
1.133,-0.044
1.134,-0.042
1.135,-0.044
1.136,-0.043
1.137,-0.044
1.138,-0.048
1.139,-0.050
1.140,-0.050
1.141,-0.050
1.142,-0.053
1.143,-0.056
1.144,-0.061
1.145,-0.063
1.146,-0.061
1.147,-0.059
1.148,-0.058
1.149,-0.056
1.150,-0.053
1.151,-0.050
1.152,-0.051
1.153,-0.053
1.154,-0.053
1.155,-0.053
1.156,-0.058
1.157,-0.053
1.158,-0.050
1.159,-0.050
1.160,-0.050
1.161,-0.047
1.162,-0.053
1.163,-0.053
1.164,-0.051
1.165,-0.053
1.166,-0.054
1.167,-0.056
1.168,-0.059
1.169,-0.059
1.170,-0.058
1.171,-0.056
1.172,-0.056
1.173,-0.056
1.174,-0.056
1.175,-0.056
1.176,-0.055
1.177,-0.053
1.178,-0.056
1.179,-0.059
1.180,-0.059
1.181,-0.056
1.182,-0.059
1.183,-0.059
1.184,-0.059
1.185,-0.056
1.186,-0.056
1.187,-0.059
1.188,-0.061
1.189,-0.063
1.190,-0.055
1.191,-0.050
1.192,-0.052
1.193,-0.050
1.194,-0.047
1.195,-0.050
1.196,-0.053
1.197,-0.053
1.198,-0.054
1.199,-0.059
1.200,-0.063
1.201,-0.069
1.202,-0.064
1.203,-0.066
1.204,-0.064
1.205,-0.066
1.206,-0.067
1.207,-0.066
1.208,-0.067
1.209,-0.069
1.210,-0.072
1.211,-0.072
1.212,-0.072
1.213,-0.072
1.214,-0.069
1.215,-0.066
1.216,-0.069
1.217,-0.069
1.218,-0.070
1.219,-0.069
1.220,-0.069
1.221,-0.069
1.222,-0.069
1.223,-0.066
1.224,-0.068
1.225,-0.066
1.226,-0.066
1.227,-0.066
1.228,-0.064
1.229,-0.059
1.230,-0.063
1.231,-0.063
1.232,-0.069
1.233,-0.069
1.234,-0.069
1.235,-0.069
1.236,-0.068
1.237,-0.069
1.238,-0.070
1.239,-0.072
1.240,-0.070
1.241,-0.072
1.242,-0.070
1.243,-0.072
1.244,-0.072
1.245,-0.072
1.246,-0.074
1.247,-0.075
1.248,-0.074
1.249,-0.072
1.250,-0.069
1.251,-0.069
1.252,-0.072
1.253,-0.072
1.254,-0.072
1.255,-0.072
1.256,-0.072
1.257,-0.072
1.258,-0.073
1.259,-0.075
1.260,-0.075
1.261,-0.075
1.262,-0.076
1.263,-0.078
1.264,-0.075
1.265,-0.078
1.266,-0.075
1.267,-0.072
1.268,-0.073
1.269,-0.072
1.270,-0.069
1.271,-0.066
1.272,-0.067
1.273,-0.069
1.274,-0.072
1.275,-0.072
1.276,-0.072
1.277,-0.072
1.278,-0.070
1.279,-0.072
1.280,-0.073
1.281,-0.072
1.282,-0.078
1.283,-0.075
1.284,-0.069
1.285,-0.066
1.286,-0.064
1.287,-0.063
1.288,-0.059
1.289,-0.053
1.290,-0.044
1.291,-0.041
1.292,-0.033
1.293,-0.028
1.294,-0.027
1.295,-0.022
1.296,-0.014
1.297,-0.006
1.298,-0.008
1.299,-0.006
1.300,-0.001
1.301,-0.003
1.302,-0.003
1.303,-0.003
1.304,-0.004
1.305,-0.006
1.306,-0.006
1.307,-0.006
1.308,-0.008
1.309,-0.009
1.310,-0.006
1.311,-0.003
1.312,0.003
1.313,0.009
1.314,0.014
1.315,0.019
1.316,0.023
1.317,0.031
1.318,0.039
1.319,0.050
1.320,0.059
1.321,0.069
1.322,0.081
1.323,0.084
1.324,0.089
1.325,0.094
1.326,0.096
1.327,0.097
1.328,0.108
1.329,0.116
1.330,0.118
1.331,0.119
1.332,0.125
1.333,0.119
1.334,0.119
1.335,0.116
1.336,0.114
1.337,0.113
1.338,0.103
1.339,0.097
1.340,0.097
1.341,0.097
1.342,0.095
1.343,0.097
1.344,0.095
1.345,0.094
1.346,0.095
1.347,0.094
1.348,0.100
1.349,0.100
1.350,0.100
1.351,0.103
1.352,0.096
1.353,0.091
1.354,0.088
1.355,0.084
1.356,0.081
1.357,0.081
1.358,0.069
1.359,0.059
1.360,0.047
1.361,0.038
1.362,0.028
1.363,0.013
1.364,0.008
1.365,0.003
1.366,-0.006
1.367,-0.013
1.368,-0.019
1.369,-0.028
1.370,-0.041
1.371,-0.047
1.372,-0.050
1.373,-0.050
1.374,-0.054
1.375,-0.059
1.376,-0.059
1.377,-0.059
1.378,-0.064
1.379,-0.066
1.380,-0.072
1.381,-0.078
1.382,-0.079
1.383,-0.081
1.384,-0.086
1.385,-0.084
1.386,-0.084
1.387,-0.084
1.388,-0.084
1.389,-0.084
1.390,-0.083
1.391,-0.084
1.392,-0.084
1.393,-0.084
1.394,-0.084
1.395,-0.088
1.396,-0.088
1.397,-0.091
1.398,-0.092
1.399,-0.094
1.400,-0.097
1.401,-0.100
1.402,-0.100
1.403,-0.100
1.404,-0.101
1.405,-0.103
1.406,-0.100
1.407,-0.103
1.408,-0.102
1.409,-0.100
1.410,-0.104
1.411,-0.103
1.412,-0.102
1.413,-0.100
1.414,-0.099
1.415,-0.097
1.416,-0.100
1.417,-0.100
1.418,-0.102
1.419,-0.097
1.420,-0.096
1.421,-0.091
1.422,-0.092
1.423,-0.091
1.424,-0.091
1.425,-0.091
1.426,-0.092
1.427,-0.091
1.428,-0.092
1.429,-0.097
1.430,-0.103
1.431,-0.109
1.432,-0.112
1.433,-0.119
1.434,-0.122
1.435,-0.128
1.436,-0.131
1.437,-0.137
1.438,-0.146
1.439,-0.150
1.440,-0.156
1.441,-0.159
1.442,-0.162
1.443,-0.166
1.444,-0.166
1.445,-0.159
1.446,-0.153
1.447,-0.141
1.448,-0.125
1.449,-0.109
1.450,-0.097
1.451,-0.075
1.452,-0.046
1.453,-0.013
1.454,0.018
1.455,0.053
1.456,0.089
1.457,0.138
1.458,0.194
1.459,0.253
1.460,0.320
1.461,0.391
1.462,0.459
1.463,0.522
1.464,0.580
1.465,0.625
1.466,0.675
1.467,0.719
1.468,0.766
1.469,0.813
1.470,0.862
1.471,0.919
1.472,0.972
1.473,1.025
1.474,1.066
1.475,1.097
1.476,1.132
1.477,1.166
1.478,1.195
1.479,1.206
1.480,1.206
1.481,1.178
1.482,1.150
1.483,1.125
1.484,1.100
1.485,1.047
1.486,0.971
1.487,0.878
1.488,0.744
1.489,0.591
1.490,0.439
1.491,0.297
1.492,0.197
1.493,0.113
1.494,0.039
1.495,-0.034
1.496,-0.098
1.497,-0.137
1.498,-0.159
1.499,-0.169
1.500,-0.175
1.501,-0.178
1.502,-0.186
1.503,-0.184
1.504,-0.186
1.505,-0.184
1.506,-0.180
1.507,-0.175
1.508,-0.179
1.509,-0.175
1.510,-0.164
1.511,-0.150
1.512,-0.139
1.513,-0.128
1.514,-0.125
1.515,-0.119
1.516,-0.112
1.517,-0.112
1.518,-0.107
1.519,-0.106
1.520,-0.097
1.521,-0.084
1.522,-0.083
1.523,-0.081
1.524,-0.084
1.525,-0.084
1.526,-0.091
1.527,-0.094
1.528,-0.098
1.529,-0.100
1.530,-0.100
1.531,-0.100
1.532,-0.099
1.533,-0.097
1.534,-0.089
1.535,-0.081
1.536,-0.081
1.537,-0.081
1.538,-0.081
1.539,-0.081
1.540,-0.081
1.541,-0.081
1.542,-0.078
1.543,-0.081
1.544,-0.088
1.545,-0.091
1.546,-0.091
1.547,-0.091
1.548,-0.091
1.549,-0.091
1.550,-0.089
1.551,-0.084
1.552,-0.084
1.553,-0.084
1.554,-0.086
1.555,-0.088
1.556,-0.080
1.557,-0.075
1.558,-0.079
1.559,-0.084
1.560,-0.088
1.561,-0.088
1.562,-0.091
1.563,-0.091
1.564,-0.088
1.565,-0.088
1.566,-0.086
1.567,-0.084
1.568,-0.083
1.569,-0.084
1.570,-0.086
1.571,-0.088
1.572,-0.084
1.573,-0.084
1.574,-0.084
1.575,-0.084
1.576,-0.083
1.577,-0.081
1.578,-0.081
1.579,-0.081
1.580,-0.083
1.581,-0.078
1.582,-0.074
1.583,-0.072
1.584,-0.076
1.585,-0.084
1.586,-0.086
1.587,-0.084
1.588,-0.083
1.589,-0.078
1.590,-0.080
1.591,-0.081
1.592,-0.075
1.593,-0.072
1.594,-0.072
1.595,-0.072
1.596,-0.076
1.597,-0.081
1.598,-0.081
1.599,-0.084
1.600,-0.083
1.601,-0.081
1.602,-0.075
1.603,-0.075
1.604,-0.071
1.605,-0.072
1.606,-0.076
1.607,-0.081
1.608,-0.078
1.609,-0.075
1.610,-0.076
1.611,-0.078
1.612,-0.083
1.613,-0.084
1.614,-0.084
1.615,-0.081
1.616,-0.083
1.617,-0.081
1.618,-0.077
1.619,-0.075
1.620,-0.071
1.621,-0.069
1.622,-0.072
1.623,-0.072
1.624,-0.073
1.625,-0.072
1.626,-0.073
1.627,-0.072
1.628,-0.075
1.629,-0.075
1.630,-0.076
1.631,-0.075
1.632,-0.075
1.633,-0.075
1.634,-0.077
1.635,-0.075
1.636,-0.078
1.637,-0.078
1.638,-0.077
1.639,-0.075
1.640,-0.075
1.641,-0.072
1.642,-0.073
1.643,-0.072
1.644,-0.072
1.645,-0.072
1.646,-0.072
1.647,-0.072
1.648,-0.068
1.649,-0.063
1.650,-0.061
1.651,-0.063
1.652,-0.063
1.653,-0.066
1.654,-0.064
1.655,-0.066
1.656,-0.066
1.657,-0.069
1.658,-0.070
1.659,-0.069
1.660,-0.068
1.661,-0.069
1.662,-0.063
1.663,-0.056
1.664,-0.059
1.665,-0.059
1.666,-0.058
1.667,-0.059
1.668,-0.063
1.669,-0.059
1.670,-0.056
1.671,-0.050
1.672,-0.049
1.673,-0.044
1.674,-0.044
1.675,-0.044
1.676,-0.044
1.677,-0.044
1.678,-0.045
1.679,-0.047
1.680,-0.041
1.681,-0.041
1.682,-0.038
1.683,-0.034
1.684,-0.034
1.685,-0.034
1.686,-0.039
1.687,-0.034
1.688,-0.030
1.689,-0.028
1.690,-0.029
1.691,-0.028
1.692,-0.026
1.693,-0.028
1.694,-0.027
1.695,-0.025
1.696,-0.022
1.697,-0.019
1.698,-0.019
1.699,-0.019
1.700,-0.018
1.701,-0.013
1.702,-0.006
1.703,0.000
1.704,-0.001
1.705,0.000
1.706,0.002
1.707,0.000
1.708,0.000
1.709,0.000
1.710,0.004
1.711,0.006
1.712,0.008
1.713,0.006
1.714,0.003
1.715,0.006
1.716,0.008
1.717,0.013
1.718,0.016
1.719,0.016
1.720,0.013
1.721,0.013
1.722,0.019
1.723,0.022
1.724,0.026
1.725,0.028
1.726,0.033
1.727,0.038
1.728,0.041
1.729,0.038
1.730,0.036
1.731,0.038
1.732,0.036
1.733,0.038
1.734,0.039
1.735,0.044
1.736,0.047
1.737,0.047
1.738,0.047
1.739,0.047
1.740,0.047
1.741,0.047
1.742,0.053
1.743,0.050
1.744,0.051
1.745,0.056
1.746,0.058
1.747,0.056
1.748,0.059
1.749,0.056
1.750,0.058
1.751,0.059
1.752,0.061
1.753,0.063
1.754,0.063
1.755,0.063
1.756,0.064
1.757,0.066
1.758,0.068
1.759,0.069
1.760,0.071
1.761,0.069
1.762,0.068
1.763,0.069
1.764,0.070
1.765,0.075
1.766,0.078
1.767,0.081
1.768,0.081
1.769,0.081
1.770,0.078
1.771,0.078
1.772,0.077
1.773,0.078
1.774,0.079
1.775,0.078
1.776,0.078
1.777,0.078
1.778,0.077
1.779,0.075
1.780,0.079
1.781,0.081
1.782,0.081
1.783,0.084
1.784,0.089
1.785,0.091
1.786,0.089
1.787,0.088
1.788,0.089
1.789,0.091
1.790,0.089
1.791,0.091
1.792,0.094
1.793,0.100
1.794,0.100
1.795,0.100
1.796,0.100
1.797,0.103
1.798,0.106
1.799,0.106
1.800,0.106
1.801,0.106
1.802,0.109
1.803,0.116
1.804,0.116
1.805,0.116
1.806,0.114
1.807,0.116
1.808,0.119
1.809,0.122
1.810,0.122
1.811,0.122
1.812,0.121
1.813,0.122
1.814,0.125
1.815,0.128
1.816,0.127
1.817,0.128
1.818,0.126
1.819,0.128
1.820,0.131
1.821,0.138
1.822,0.134
1.823,0.138
1.824,0.131
1.825,0.128
1.826,0.130
1.827,0.128
1.828,0.128
1.829,0.128
1.830,0.126
1.831,0.125
1.832,0.125
1.833,0.125
1.834,0.124
1.835,0.122
1.836,0.122
1.837,0.116
1.838,0.111
1.839,0.106
1.840,0.108
1.841,0.106
1.842,0.106
1.843,0.106
1.844,0.104
1.845,0.100
1.846,0.096
1.847,0.094
1.848,0.092
1.849,0.091
1.850,0.088
1.851,0.084
1.852,0.083
1.853,0.078
1.854,0.074
1.855,0.069
1.856,0.069
1.857,0.069
1.858,0.064
1.859,0.063
1.860,0.059
1.861,0.053
1.862,0.053
1.863,0.053
1.864,0.050
1.865,0.047
1.866,0.044
1.867,0.034
1.868,0.031
1.869,0.031
1.870,0.025
1.871,0.025
1.872,0.021
1.873,0.016
1.874,0.016
1.875,0.016
1.876,0.016
1.877,0.016
1.878,0.009
1.879,0.003
1.880,0.004
1.881,0.003
1.882,0.004
1.883,0.003
1.884,0.000
1.885,-0.003
1.886,0.001
1.887,0.000
1.888,-0.003
1.889,-0.003
1.890,-0.009
1.891,-0.009
1.892,-0.013
1.893,-0.013
1.894,-0.014
1.895,-0.013
1.896,-0.016
1.897,-0.016
1.898,-0.011
1.899,-0.013
1.900,-0.017
1.901,-0.019
1.902,-0.023
1.903,-0.022
1.904,-0.021
1.905,-0.019
1.906,-0.023
1.907,-0.028
1.908,-0.025
1.909,-0.028
1.910,-0.028
1.911,-0.028
1.912,-0.031
1.913,-0.028
1.914,-0.031
1.915,-0.028
1.916,-0.030
1.917,-0.028
1.918,-0.028
1.919,-0.028
1.920,-0.028
1.921,-0.025
1.922,-0.026
1.923,-0.025
1.924,-0.025
1.925,-0.028
1.926,-0.027
1.927,-0.025
1.928,-0.028
1.929,-0.028
1.930,-0.028
1.931,-0.025
1.932,-0.028
1.933,-0.031
1.934,-0.029
1.935,-0.031
1.936,-0.031
1.937,-0.028
1.938,-0.030
1.939,-0.031
1.940,-0.031
1.941,-0.028
1.942,-0.028
1.943,-0.031
1.944,-0.028
1.945,-0.028
1.946,-0.031
1.947,-0.031
1.948,-0.030
1.949,-0.028
1.950,-0.033
1.951,-0.034
1.952,-0.031
1.953,-0.031
1.954,-0.030
1.955,-0.031
1.956,-0.033
1.957,-0.034
1.958,-0.033
1.959,-0.031
1.960,-0.034
1.961,-0.034
1.962,-0.034
1.963,-0.034
1.964,-0.036
1.965,-0.038
1.966,-0.038
1.967,-0.038
1.968,-0.036
1.969,-0.034
1.970,-0.034
1.971,-0.034
1.972,-0.034
1.973,-0.034
1.974,-0.034
1.975,-0.034
1.976,-0.036
1.977,-0.038
1.978,-0.036
1.979,-0.034
1.980,-0.038
1.981,-0.038
1.982,-0.039
1.983,-0.041
1.984,-0.041
1.985,-0.044
1.986,-0.047
1.987,-0.047
1.988,-0.045
1.989,-0.044
1.990,-0.041
1.991,-0.041
1.992,-0.044
1.993,-0.047
1.994,-0.048
1.995,-0.050
1.996,-0.050
1.997,-0.050
1.998,-0.050
1.999,-0.050
2.000,-0.050
2.001,-0.050
2.002,-0.047
2.003,-0.047
2.004,-0.049
2.005,-0.047
2.006,-0.051
2.007,-0.053
2.008,-0.053
2.009,-0.053
2.010,-0.050
2.011,-0.047
2.012,-0.051
2.013,-0.050
2.014,-0.049
2.015,-0.050
2.016,-0.050
2.017,-0.050
2.018,-0.050
2.019,-0.050
2.020,-0.050
2.021,-0.050
2.022,-0.051
2.023,-0.053
2.024,-0.053
2.025,-0.053
2.026,-0.053
2.027,-0.053
2.028,-0.055
2.029,-0.053
2.030,-0.051
2.031,-0.053
2.032,-0.053
2.033,-0.056
2.034,-0.061
2.035,-0.063
2.036,-0.058
2.037,-0.053
2.038,-0.052
2.039,-0.050
2.040,-0.052
2.041,-0.050
2.042,-0.050
2.043,-0.050
2.044,-0.050
2.045,-0.050
2.046,-0.051
2.047,-0.053
2.048,-0.053
2.049,-0.053
2.050,-0.053
2.051,-0.053
2.052,-0.059
2.053,-0.056
2.054,-0.055
2.055,-0.056
2.056,-0.059
2.057,-0.059
2.058,-0.063
2.059,-0.059
2.060,-0.053
2.061,-0.050
2.062,-0.050
2.063,-0.050
2.064,-0.056
2.065,-0.059
2.066,-0.063
2.067,-0.066
2.068,-0.069
2.069,-0.072
2.070,-0.066
2.071,-0.059
2.072,-0.058
2.073,-0.056
2.074,-0.058
2.075,-0.059
2.076,-0.061
2.077,-0.059
2.078,-0.064
2.079,-0.066
2.080,-0.069
2.081,-0.069
2.082,-0.066
2.083,-0.066
2.084,-0.067
2.085,-0.069
2.086,-0.066
2.087,-0.066
2.088,-0.069
2.089,-0.069
2.090,-0.064
2.091,-0.066
2.092,-0.069
2.093,-0.069
2.094,-0.067
2.095,-0.069
2.096,-0.068
2.097,-0.069
2.098,-0.066
2.099,-0.069
2.100,-0.069
2.101,-0.072
2.102,-0.072
2.103,-0.069
2.104,-0.069
2.105,-0.069
2.106,-0.072
2.107,-0.072
2.108,-0.072
2.109,-0.072
2.110,-0.072
2.111,-0.072
2.112,-0.073
2.113,-0.072
2.114,-0.071
2.115,-0.066
2.116,-0.066
2.117,-0.066
2.118,-0.068
2.119,-0.066
2.120,-0.069
2.121,-0.069
2.122,-0.069
2.123,-0.069
2.124,-0.069
2.125,-0.066
2.126,-0.069
2.127,-0.069
2.128,-0.073
2.129,-0.072
2.130,-0.072
2.131,-0.072
2.132,-0.071
2.133,-0.072
2.134,-0.072
2.135,-0.072
2.136,-0.069
2.137,-0.069
2.138,-0.069
2.139,-0.069
2.140,-0.070
2.141,-0.072
2.142,-0.072
2.143,-0.072
2.144,-0.078
2.145,-0.078
2.146,-0.081
2.147,-0.081
2.148,-0.078
2.149,-0.075
2.150,-0.071
2.151,-0.069
2.152,-0.068
2.153,-0.066
2.154,-0.068
2.155,-0.069
2.156,-0.070
2.157,-0.072
2.158,-0.069
2.159,-0.069
2.160,-0.072
2.161,-0.072
2.162,-0.073
2.163,-0.075
2.164,-0.075
2.165,-0.075
2.166,-0.075
2.167,-0.075
2.168,-0.078
2.169,-0.081
2.170,-0.080
2.171,-0.078
2.172,-0.075
2.173,-0.078
2.174,-0.077
2.175,-0.075
2.176,-0.076
2.177,-0.075
2.178,-0.076
2.179,-0.078
2.180,-0.077
2.181,-0.075
2.182,-0.078
2.183,-0.078
2.184,-0.077
2.185,-0.075
2.186,-0.072
2.187,-0.072
2.188,-0.072
2.189,-0.069
2.190,-0.075
2.191,-0.072
2.192,-0.070
2.193,-0.072
2.194,-0.071
2.195,-0.069
2.196,-0.064
2.197,-0.056
2.198,-0.046
2.199,-0.041
2.200,-0.034
2.201,-0.031
2.202,-0.031
2.203,-0.028
2.204,-0.028
2.205,-0.028
2.206,-0.028
2.207,-0.025
2.208,-0.018
2.209,-0.016
2.210,-0.013
2.211,-0.009
2.212,-0.009
2.213,-0.009
2.214,-0.008
2.215,-0.006
2.216,-0.006
2.217,-0.006
2.218,-0.003
2.219,0.000
2.220,0.003
2.221,0.006
2.222,0.011
2.223,0.016
2.224,0.022
2.225,0.031
2.226,0.038
2.227,0.047
2.228,0.056
2.229,0.066
2.230,0.077
2.231,0.078
2.232,0.080
2.233,0.081
2.234,0.088
2.235,0.094
2.236,0.103
2.237,0.109
2.238,0.114
2.239,0.119
2.240,0.126
2.241,0.122
2.242,0.118
2.243,0.109
2.244,0.103
2.245,0.097
2.246,0.092
2.247,0.091
2.248,0.088
2.249,0.084
2.250,0.083
2.251,0.084
2.252,0.083
2.253,0.081
2.254,0.081
2.255,0.078
2.256,0.083
2.257,0.081
2.258,0.078
2.259,0.078
2.260,0.076
2.261,0.078
2.262,0.078
2.263,0.078
2.264,0.074
2.265,0.072
2.266,0.058
2.267,0.047
2.268,0.030
2.269,0.016
2.270,0.011
2.271,0.000
2.272,-0.009
2.273,-0.019
2.274,-0.027
2.275,-0.031
2.276,-0.036
2.277,-0.044
2.278,-0.050
2.279,-0.050
2.280,-0.061
2.281,-0.069
2.282,-0.075
2.283,-0.081
2.284,-0.083
2.285,-0.084
2.286,-0.086
2.287,-0.084
2.288,-0.084
2.289,-0.084
2.290,-0.086
2.291,-0.088
2.292,-0.094
2.293,-0.094
2.294,-0.097
2.295,-0.100
2.296,-0.100
2.297,-0.100
2.298,-0.101
2.299,-0.106
2.300,-0.107
2.301,-0.109
2.302,-0.108
2.303,-0.109
2.304,-0.108
2.305,-0.109
2.306,-0.109
2.307,-0.109
2.308,-0.109
2.309,-0.109
2.310,-0.111
2.311,-0.112
2.312,-0.111
2.313,-0.109
2.314,-0.106
2.315,-0.109
2.316,-0.111
2.317,-0.112
2.318,-0.116
2.319,-0.112
2.320,-0.111
2.321,-0.109
2.322,-0.108
2.323,-0.106
2.324,-0.106
2.325,-0.103
2.326,-0.111
2.327,-0.112
2.328,-0.117
2.329,-0.119
2.330,-0.117
2.331,-0.112
2.332,-0.109
2.333,-0.106
2.334,-0.109
2.335,-0.109
2.336,-0.112
2.337,-0.119
2.338,-0.126
2.339,-0.134
2.340,-0.136
2.341,-0.141
2.342,-0.142
2.343,-0.147
2.344,-0.150
2.345,-0.156
2.346,-0.164
2.347,-0.169
2.348,-0.175
2.349,-0.178
2.350,-0.180
2.351,-0.181
2.352,-0.175
2.353,-0.162
2.354,-0.152
2.355,-0.134
2.356,-0.116
2.357,-0.097
2.358,-0.077
2.359,-0.047
2.360,-0.023
2.361,0.003
2.362,0.036
2.363,0.075
2.364,0.123
2.365,0.184
2.366,0.239
2.367,0.297
2.368,0.363
2.369,0.431
2.370,0.497
2.371,0.556
2.372,0.614
2.373,0.659
2.374,0.706
2.375,0.747
2.376,0.793
2.377,0.838
2.378,0.881
2.379,0.931
2.380,0.974
2.381,1.016
2.382,1.053
2.383,1.081
2.384,1.112
2.385,1.141
2.386,1.161
2.387,1.162
2.388,1.153
2.389,1.116
2.390,1.077
2.391,1.041
2.392,1.008
2.393,0.947
2.394,0.862
2.395,0.763
2.396,0.627
2.397,0.472
2.398,0.338
2.399,0.212
2.400,0.119
2.401,0.041
2.402,-0.022
2.403,-0.084
2.404,-0.134
2.405,-0.159
2.406,-0.180
2.407,-0.187
2.408,-0.194
2.409,-0.197
2.410,-0.203
2.411,-0.200
2.412,-0.194
2.413,-0.184
2.414,-0.181
2.415,-0.178
2.416,-0.174
2.417,-0.159
2.418,-0.147
2.419,-0.131
2.420,-0.125
2.421,-0.119
2.422,-0.119
2.423,-0.116
2.424,-0.106
2.425,-0.103
2.426,-0.097
2.427,-0.094
2.428,-0.092
2.429,-0.088
2.430,-0.091
2.431,-0.094
2.432,-0.097
2.433,-0.097
2.434,-0.099
2.435,-0.097
2.436,-0.101
2.437,-0.103
2.438,-0.103
2.439,-0.103
2.440,-0.104
2.441,-0.106
2.442,-0.106
2.443,-0.106
2.444,-0.107
2.445,-0.109
2.446,-0.106
2.447,-0.103
2.448,-0.103
2.449,-0.103
2.450,-0.100
2.451,-0.103
2.452,-0.106
2.453,-0.106
2.454,-0.106
2.455,-0.106
2.456,-0.102
2.457,-0.097
2.458,-0.097
2.459,-0.094
2.460,-0.094
2.461,-0.094
2.462,-0.095
2.463,-0.097
2.464,-0.094
2.465,-0.094
2.466,-0.092
2.467,-0.091
2.468,-0.092
2.469,-0.091
2.470,-0.095
2.471,-0.097
2.472,-0.097
2.473,-0.100
2.474,-0.099
2.475,-0.097
2.476,-0.094
2.477,-0.094
2.478,-0.095
2.479,-0.097
2.480,-0.097
2.481,-0.100
2.482,-0.097
2.483,-0.094
2.484,-0.095
2.485,-0.097
2.486,-0.096
2.487,-0.094
2.488,-0.097
2.489,-0.094
2.490,-0.092
2.491,-0.094
2.492,-0.089
2.493,-0.088
2.494,-0.089
2.495,-0.088
2.496,-0.089
2.497,-0.088
2.498,-0.089
2.499,-0.091
2.500,-0.088
2.501,-0.088
2.502,-0.089
2.503,-0.091
2.504,-0.091
2.505,-0.091
2.506,-0.089
2.507,-0.091
2.508,-0.089
2.509,-0.088
2.510,-0.081
2.511,-0.081
2.512,-0.077
2.513,-0.078
2.514,-0.079
2.515,-0.081
2.516,-0.081
2.517,-0.081
2.518,-0.080
2.519,-0.078
2.520,-0.080
2.521,-0.078
2.522,-0.078
2.523,-0.075
2.524,-0.078
2.525,-0.078
2.526,-0.076
2.527,-0.078
2.528,-0.075
2.529,-0.075
2.530,-0.078
2.531,-0.078
2.532,-0.077
2.533,-0.072
2.534,-0.073
2.535,-0.072
2.536,-0.075
2.537,-0.075
2.538,-0.076
2.539,-0.075
2.540,-0.072
2.541,-0.069
2.542,-0.072
2.543,-0.072
2.544,-0.073
2.545,-0.072
2.546,-0.075
2.547,-0.078
2.548,-0.081
2.549,-0.081
2.550,-0.078
2.551,-0.072
2.552,-0.072
2.553,-0.072
2.554,-0.072
2.555,-0.072
2.556,-0.073
2.557,-0.075
2.558,-0.072
2.559,-0.072
2.560,-0.066
2.561,-0.063
2.562,-0.063
2.563,-0.066
2.564,-0.066
2.565,-0.069
2.566,-0.070
2.567,-0.069
2.568,-0.066
2.569,-0.066
2.570,-0.063
2.571,-0.059
2.572,-0.061
2.573,-0.059
2.574,-0.061
2.575,-0.066
2.576,-0.067
2.577,-0.063
2.578,-0.063
2.579,-0.059
2.580,-0.061
2.581,-0.059
2.582,-0.055
2.583,-0.050
2.584,-0.050
2.585,-0.050
2.586,-0.047
2.587,-0.044
2.588,-0.042
2.589,-0.047
2.590,-0.045
2.591,-0.044
2.592,-0.041
2.593,-0.038
2.594,-0.042
2.595,-0.038
2.596,-0.034
2.597,-0.034
2.598,-0.039
2.599,-0.041
2.600,-0.041
2.601,-0.044
2.602,-0.039
2.603,-0.034
2.604,-0.025
2.605,-0.016
2.606,-0.014
2.607,-0.013
2.608,-0.014
2.609,-0.013
2.610,-0.013
2.611,-0.013
2.612,-0.014
2.613,-0.013
2.614,-0.009
2.615,-0.009
2.616,-0.008
2.617,-0.006
2.618,-0.003
2.619,-0.003
2.620,0.000
2.621,0.000
2.622,0.000
2.623,0.006
2.624,0.006
2.625,0.009
2.626,0.014
2.627,0.016
2.628,0.016
2.629,0.019
2.630,0.023
2.631,0.025
2.632,0.027
2.633,0.025
2.634,0.025
2.635,0.025
2.636,0.033
2.637,0.034
2.638,0.036
2.639,0.041
2.640,0.039
2.641,0.041
2.642,0.039
2.643,0.041
2.644,0.044
2.645,0.044
2.646,0.046
2.647,0.047
2.648,0.046
2.649,0.044
2.650,0.051
2.651,0.050
2.652,0.050
2.653,0.053
2.654,0.058
2.655,0.059
2.656,0.064
2.657,0.063
2.658,0.063
2.659,0.063
2.660,0.063
2.661,0.063
2.662,0.064
2.663,0.066
2.664,0.067
2.665,0.069
2.666,0.069
2.667,0.069
2.668,0.075
2.669,0.078
2.670,0.079
2.671,0.084
2.672,0.083
2.673,0.084
2.674,0.084
2.675,0.084
2.676,0.084
2.677,0.084
2.678,0.083
2.679,0.084
2.680,0.083
2.681,0.084
2.682,0.086
2.683,0.084
2.684,0.088
2.685,0.091
2.686,0.091
2.687,0.091
2.688,0.095
2.689,0.097
2.690,0.094
2.691,0.094
2.692,0.096
2.693,0.094
2.694,0.094
2.695,0.094
2.696,0.098
2.697,0.103
2.698,0.102
2.699,0.103
2.700,0.103
2.701,0.106
2.702,0.108
2.703,0.109
2.704,0.106
2.705,0.106
2.706,0.111
2.707,0.113
2.708,0.114
2.709,0.116
2.710,0.117
2.711,0.122
2.712,0.125
2.713,0.128
2.714,0.128
2.715,0.131
2.716,0.130
2.717,0.128
2.718,0.128
2.719,0.128
2.720,0.127
2.721,0.128
2.722,0.129
2.723,0.131
2.724,0.133
2.725,0.138
2.726,0.136
2.727,0.138
2.728,0.136
2.729,0.138
2.730,0.134
2.731,0.138
2.732,0.133
2.733,0.131
2.734,0.133
2.735,0.131
2.736,0.130
2.737,0.128
2.738,0.126
2.739,0.125
2.740,0.125
2.741,0.125
2.742,0.125
2.743,0.125
2.744,0.128
2.745,0.125
2.746,0.121
2.747,0.116
2.748,0.113
2.749,0.106
2.750,0.106
2.751,0.106
2.752,0.106
2.753,0.103
2.754,0.097
2.755,0.094
2.756,0.086
2.757,0.078
2.758,0.074
2.759,0.069
2.760,0.070
2.761,0.069
2.762,0.067
2.763,0.066
2.764,0.063
2.765,0.059
2.766,0.053
2.767,0.050
2.768,0.050
2.769,0.047
2.770,0.045
2.771,0.044
2.772,0.039
2.773,0.034
2.774,0.038
2.775,0.034
2.776,0.033
2.777,0.034
2.778,0.028
2.779,0.028
2.780,0.025
2.781,0.022
2.782,0.020
2.783,0.019
2.784,0.016
2.785,0.013
2.786,0.009
2.787,0.006
2.788,0.003
2.789,-0.003
2.790,0.000
2.791,0.000
2.792,-0.002
2.793,-0.003
2.794,-0.003
2.795,-0.009
2.796,-0.014
2.797,-0.016
2.798,-0.019
2.799,-0.016
2.800,-0.018
2.801,-0.016
2.802,-0.018
2.803,-0.016
2.804,-0.019
2.805,-0.019
2.806,-0.019
2.807,-0.025
2.808,-0.027
2.809,-0.025
2.810,-0.029
2.811,-0.028
2.812,-0.027
2.813,-0.025
2.814,-0.029
2.815,-0.034
2.816,-0.034
2.817,-0.041
2.818,-0.039
2.819,-0.038
2.820,-0.039
2.821,-0.034
2.822,-0.038
2.823,-0.034
2.824,-0.038
2.825,-0.038
2.826,-0.038
2.827,-0.038
2.828,-0.038
2.829,-0.034
2.830,-0.034
2.831,-0.031
2.832,-0.030
2.833,-0.031
2.834,-0.031
2.835,-0.031
2.836,-0.038
2.837,-0.041
2.838,-0.041
2.839,-0.038
2.840,-0.038
2.841,-0.038
2.842,-0.038
2.843,-0.041
2.844,-0.041
2.845,-0.038
2.846,-0.039
2.847,-0.041
2.848,-0.042
2.849,-0.041
2.850,-0.039
2.851,-0.041
2.852,-0.038
2.853,-0.038
2.854,-0.038
2.855,-0.034
2.856,-0.034
2.857,-0.034
2.858,-0.036
2.859,-0.034
2.860,-0.033
2.861,-0.034
2.862,-0.036
2.863,-0.041
2.864,-0.041
2.865,-0.041
2.866,-0.042
2.867,-0.044
2.868,-0.047
2.869,-0.047
2.870,-0.047
2.871,-0.047
2.872,-0.048
2.873,-0.050
2.874,-0.050
2.875,-0.050
2.876,-0.049
2.877,-0.047
2.878,-0.047
2.879,-0.047
2.880,-0.047
2.881,-0.047
2.882,-0.047
2.883,-0.047
2.884,-0.047
2.885,-0.047
2.886,-0.047
2.887,-0.047
2.888,-0.050
2.889,-0.050
2.890,-0.049
2.891,-0.047
2.892,-0.046
2.893,-0.047
2.894,-0.053
2.895,-0.056
2.896,-0.054
2.897,-0.053
2.898,-0.053
2.899,-0.056
2.900,-0.055
2.901,-0.053
2.902,-0.052
2.903,-0.050
2.904,-0.051
2.905,-0.053
2.906,-0.056
2.907,-0.059
2.908,-0.059
2.909,-0.059
2.910,-0.053
2.911,-0.050
2.912,-0.053
2.913,-0.053
2.914,-0.056
2.915,-0.056
2.916,-0.056
2.917,-0.056
2.918,-0.055
2.919,-0.053
2.920,-0.059
2.921,-0.059
2.922,-0.061
2.923,-0.066
2.924,-0.066
2.925,-0.066
2.926,-0.066
2.927,-0.066
2.928,-0.066
2.929,-0.066
2.930,-0.061
2.931,-0.056
2.932,-0.058
2.933,-0.059
2.934,-0.059
2.935,-0.059
2.936,-0.066
2.937,-0.069
2.938,-0.066
2.939,-0.066
2.940,-0.064
2.941,-0.066
2.942,-0.068
2.943,-0.066
2.944,-0.066
2.945,-0.066
2.946,-0.066
2.947,-0.066
2.948,-0.068
2.949,-0.066
2.950,-0.067
2.951,-0.069
2.952,-0.069
2.953,-0.069
2.954,-0.069
2.955,-0.069
2.956,-0.070
2.957,-0.072
2.958,-0.072
2.959,-0.072
2.960,-0.076
2.961,-0.072
2.962,-0.071
2.963,-0.072
2.964,-0.073
2.965,-0.072
2.966,-0.077
2.967,-0.075
2.968,-0.073
2.969,-0.075
2.970,-0.074
2.971,-0.072
2.972,-0.074
2.973,-0.072
2.974,-0.072
2.975,-0.072
2.976,-0.072
2.977,-0.072
2.978,-0.073
2.979,-0.075
2.980,-0.074
2.981,-0.072
2.982,-0.074
2.983,-0.075
2.984,-0.075
2.985,-0.072
2.986,-0.075
2.987,-0.075
2.988,-0.075
2.989,-0.072
2.990,-0.071
2.991,-0.072
2.992,-0.073
2.993,-0.075
2.994,-0.072
2.995,-0.072
2.996,-0.075
2.997,-0.075
2.998,-0.071
2.999,-0.072
3.000,-0.076
3.001,-0.078
3.002,-0.076
3.003,-0.078
3.004,-0.077
3.005,-0.078
3.006,-0.076
3.007,-0.081
3.008,-0.080
3.009,-0.081
3.010,-0.080
3.011,-0.075
3.012,-0.076
3.013,-0.078
3.014,-0.083
3.015,-0.084
3.016,-0.084
3.017,-0.084
3.018,-0.084
3.019,-0.084
3.020,-0.084
3.021,-0.081
3.022,-0.081
3.023,-0.078
3.024,-0.077
3.025,-0.075
3.026,-0.079
3.027,-0.081
3.028,-0.084
3.029,-0.084
3.030,-0.080
3.031,-0.075
3.032,-0.076
3.033,-0.075
3.034,-0.081
3.035,-0.084
3.036,-0.089
3.037,-0.088
3.038,-0.088
3.039,-0.088
3.040,-0.086
3.041,-0.088
3.042,-0.089
3.043,-0.091
3.044,-0.089
3.045,-0.091
3.046,-0.086
3.047,-0.081
3.048,-0.083
3.049,-0.084
3.050,-0.086
3.051,-0.088
3.052,-0.091
3.053,-0.088
3.054,-0.091
3.055,-0.091
3.056,-0.089
3.057,-0.091
3.058,-0.089
3.059,-0.091
3.060,-0.091
3.061,-0.091
3.062,-0.089
3.063,-0.088
3.064,-0.088
3.065,-0.088
3.066,-0.086
3.067,-0.088
3.068,-0.089
3.069,-0.088
3.070,-0.088
3.071,-0.088
3.072,-0.089
3.073,-0.088
3.074,-0.088
3.075,-0.088
3.076,-0.088
3.077,-0.088
3.078,-0.088
3.079,-0.088
3.080,-0.089
3.081,-0.091
3.082,-0.091
3.083,-0.091
3.084,-0.089
3.085,-0.088
3.086,-0.088
3.087,-0.088
3.088,-0.088
3.089,-0.084
3.090,-0.088
3.091,-0.088
3.092,-0.088
3.093,-0.088
3.094,-0.086
3.095,-0.084
3.096,-0.084
3.097,-0.088
3.098,-0.088
3.099,-0.088
3.100,-0.084
3.101,-0.081
3.102,-0.081
3.103,-0.081
3.104,-0.084
3.105,-0.084
3.106,-0.084
3.107,-0.088
3.108,-0.084
3.109,-0.084
3.110,-0.084
3.111,-0.084
3.112,-0.086
3.113,-0.088
3.114,-0.089
3.115,-0.091
3.116,-0.089
3.117,-0.091
3.118,-0.092
3.119,-0.091
3.120,-0.091
3.121,-0.091
3.122,-0.091
3.123,-0.091
3.124,-0.092
3.125,-0.094
3.126,-0.092
3.127,-0.091
3.128,-0.091
3.129,-0.091
3.130,-0.088
3.131,-0.091
3.132,-0.091
3.133,-0.091
3.134,-0.094
3.135,-0.094
3.136,-0.091
3.137,-0.088
3.138,-0.086
3.139,-0.084
3.140,-0.088
3.141,-0.088
3.142,-0.088
3.143,-0.088
3.144,-0.086
3.145,-0.088
3.146,-0.088
3.147,-0.084
3.148,-0.092
3.149,-0.091
3.150,-0.088
3.151,-0.088
3.152,-0.088
3.153,-0.088
3.154,-0.088
3.155,-0.084
3.156,-0.075
3.157,-0.072
3.158,-0.063
3.159,-0.056
3.160,-0.055
3.161,-0.050
3.162,-0.044
3.163,-0.038
3.164,-0.033
3.165,-0.025
3.166,-0.019
3.167,-0.019
3.168,-0.020
3.169,-0.022
3.170,-0.021
3.171,-0.019
3.172,-0.019
3.173,-0.019
3.174,-0.016
3.175,-0.013
3.176,-0.014
3.177,-0.016
3.178,-0.014
3.179,-0.013
3.180,-0.009
3.181,-0.006
3.182,-0.004
3.183,0.000
3.184,0.003
3.185,0.009
3.186,0.022
3.187,0.034
3.188,0.051
3.189,0.059
3.190,0.063
3.191,0.066
3.192,0.072
3.193,0.078
3.194,0.084
3.195,0.088
3.196,0.094
3.197,0.100
3.198,0.108
3.199,0.103
3.200,0.109
3.201,0.113
3.202,0.109
3.203,0.106
3.204,0.097
3.205,0.091
3.206,0.089
3.207,0.088
3.208,0.084
3.209,0.084
3.210,0.081
3.211,0.078
3.212,0.078
3.213,0.075
3.214,0.077
3.215,0.072
3.216,0.072
3.217,0.075
3.218,0.073
3.219,0.075
3.220,0.075
3.221,0.075
3.222,0.073
3.223,0.075
3.224,0.066
3.225,0.059
3.226,0.049
3.227,0.041
3.228,0.034
3.229,0.022
3.230,0.013
3.231,0.003
3.232,-0.009
3.233,-0.019
3.234,-0.028
3.235,-0.041
3.236,-0.048
3.237,-0.050
3.238,-0.059
3.239,-0.066
3.240,-0.072
3.241,-0.078
3.242,-0.078
3.243,-0.078
3.244,-0.080
3.245,-0.078
3.246,-0.081
3.247,-0.084
3.248,-0.088
3.249,-0.091
3.250,-0.098
3.251,-0.100
3.252,-0.100
3.253,-0.100
3.254,-0.100
3.255,-0.100
3.256,-0.100
3.257,-0.103
3.258,-0.103
3.259,-0.103
3.260,-0.102
3.261,-0.103
3.262,-0.104
3.263,-0.109
3.264,-0.109
3.265,-0.109
3.266,-0.109
3.267,-0.109
3.268,-0.109
3.269,-0.109
3.270,-0.111
3.271,-0.112
3.272,-0.112
3.273,-0.119
3.274,-0.120
3.275,-0.122
3.276,-0.126
3.277,-0.125
3.278,-0.125
3.279,-0.125
3.280,-0.126
3.281,-0.128
3.282,-0.125
3.283,-0.119
3.284,-0.122
3.285,-0.119
3.286,-0.121
3.287,-0.119
3.288,-0.122
3.289,-0.122
3.290,-0.122
3.291,-0.122
3.292,-0.125
3.293,-0.125
3.294,-0.125
3.295,-0.128
3.296,-0.128
3.297,-0.128
3.298,-0.128
3.299,-0.131
3.300,-0.136
3.301,-0.144
3.302,-0.148
3.303,-0.156
3.304,-0.162
3.305,-0.166
3.306,-0.173
3.307,-0.178
3.308,-0.180
3.309,-0.181
3.310,-0.178
3.311,-0.169
3.312,-0.159
3.313,-0.144
3.314,-0.128
3.315,-0.112
3.316,-0.098
3.317,-0.075
3.318,-0.048
3.319,-0.019
3.320,0.013
3.321,0.050
3.322,0.091
3.323,0.144
3.324,0.203
3.325,0.266
3.326,0.331
3.327,0.400
3.328,0.471
3.329,0.534
3.330,0.594
3.331,0.641
3.332,0.684
3.333,0.722
3.334,0.766
3.335,0.809
3.336,0.856
3.337,0.909
3.338,0.949
3.339,0.988
3.340,1.024
3.341,1.050
3.342,1.086
3.343,1.119
3.344,1.145
3.345,1.153
3.346,1.150
3.347,1.119
3.348,1.084
3.349,1.053
3.350,1.028
3.351,0.975
3.352,0.904
3.353,0.819
3.354,0.695
3.355,0.553
3.356,0.409
3.357,0.275
3.358,0.169
3.359,0.078
3.360,0.009
3.361,-0.059
3.362,-0.119
3.363,-0.153
3.364,-0.176
3.365,-0.187
3.366,-0.195
3.367,-0.200
3.368,-0.206
3.369,-0.203
3.370,-0.200
3.371,-0.194
3.372,-0.187
3.373,-0.181
3.374,-0.174
3.375,-0.156
3.376,-0.147
3.377,-0.134
3.378,-0.128
3.379,-0.122
3.380,-0.120
3.381,-0.116
3.382,-0.107
3.383,-0.106
3.384,-0.103
3.385,-0.103
3.386,-0.099
3.387,-0.091
3.388,-0.091
3.389,-0.091
3.390,-0.095
3.391,-0.097
3.392,-0.101
3.393,-0.103
3.394,-0.105
3.395,-0.103
3.396,-0.103
3.397,-0.103
3.398,-0.104
3.399,-0.106
3.400,-0.104
3.401,-0.103
3.402,-0.103
3.403,-0.103
3.404,-0.103
3.405,-0.103
3.406,-0.104
3.407,-0.106
3.408,-0.103
3.409,-0.106
3.410,-0.109
3.411,-0.109
3.412,-0.109
3.413,-0.109
3.414,-0.109
3.415,-0.109
3.416,-0.109
3.417,-0.106
3.418,-0.105
3.419,-0.103
3.420,-0.103
3.421,-0.103
3.422,-0.101
3.423,-0.103
3.424,-0.103
3.425,-0.103
3.426,-0.105
3.427,-0.103
3.428,-0.105
3.429,-0.103
3.430,-0.101
3.431,-0.103
3.432,-0.104
3.433,-0.106
3.434,-0.104
3.435,-0.106
3.436,-0.102
3.437,-0.097
3.438,-0.094
3.439,-0.094
3.440,-0.094
3.441,-0.094
3.442,-0.092
3.443,-0.091
3.444,-0.091
3.445,-0.091
3.446,-0.095
3.447,-0.094
3.448,-0.094
3.449,-0.097
3.450,-0.094
3.451,-0.094
3.452,-0.095
3.453,-0.094
3.454,-0.094
3.455,-0.091
3.456,-0.092
3.457,-0.094
3.458,-0.094
3.459,-0.097
3.460,-0.098
3.461,-0.100
3.462,-0.099
3.463,-0.097
3.464,-0.094
3.465,-0.094
3.466,-0.091
3.467,-0.088
3.468,-0.084
3.469,-0.088
3.470,-0.086
3.471,-0.091
3.472,-0.091
3.473,-0.091
3.474,-0.091
3.475,-0.091
3.476,-0.091
3.477,-0.091
3.478,-0.089
3.479,-0.084
3.480,-0.086
3.481,-0.084
3.482,-0.092
3.483,-0.097
3.484,-0.095
3.485,-0.097
3.486,-0.094
3.487,-0.094
3.488,-0.092
3.489,-0.088
3.490,-0.089
3.491,-0.088
3.492,-0.089
3.493,-0.088
3.494,-0.091
3.495,-0.091
3.496,-0.092
3.497,-0.091
3.498,-0.089
3.499,-0.088
3.500,-0.089
3.501,-0.088
3.502,-0.086
3.503,-0.081
3.504,-0.083
3.505,-0.084
3.506,-0.089
3.507,-0.091
3.508,-0.091
3.509,-0.088
3.510,-0.086
3.511,-0.084
3.512,-0.084
3.513,-0.084
3.514,-0.081
3.515,-0.078
3.516,-0.076
3.517,-0.078
3.518,-0.075
3.519,-0.075
3.520,-0.072
3.521,-0.072
3.522,-0.071
3.523,-0.072
3.524,-0.073
3.525,-0.072
3.526,-0.069
3.527,-0.069
3.528,-0.069
3.529,-0.069
3.530,-0.069
3.531,-0.066
3.532,-0.063
3.533,-0.063
3.534,-0.066
3.535,-0.063
3.536,-0.059
3.537,-0.053
3.538,-0.056
3.539,-0.056
3.540,-0.056
3.541,-0.056
3.542,-0.056
3.543,-0.056
3.544,-0.055
3.545,-0.053
3.546,-0.050
3.547,-0.053
3.548,-0.053
3.549,-0.053
3.550,-0.052
3.551,-0.050
3.552,-0.052
3.553,-0.044
3.554,-0.042
3.555,-0.044
3.556,-0.043
3.557,-0.038
3.558,-0.031
3.559,-0.028
3.560,-0.025
3.561,-0.022
3.562,-0.019
3.563,-0.016
3.564,-0.017
3.565,-0.019
3.566,-0.022
3.567,-0.022
3.568,-0.020
3.569,-0.019
3.570,-0.019
3.571,-0.016
3.572,-0.006
3.573,0.000
3.574,0.001
3.575,0.003
3.576,0.005
3.577,0.003
3.578,0.005
3.579,0.003
3.580,0.003
3.581,0.009
3.582,0.009
3.583,0.013
3.584,0.019
3.585,0.022
3.586,0.023
3.587,0.028
3.588,0.028
3.589,0.025
3.590,0.028
3.591,0.028
3.592,0.033
3.593,0.038
3.594,0.041
3.595,0.038
3.596,0.036
3.597,0.038
3.598,0.038
3.599,0.041
3.600,0.041
3.601,0.044
3.602,0.047
3.603,0.047
3.604,0.049
3.605,0.050
3.606,0.053
3.607,0.056
3.608,0.066
3.609,0.066
3.610,0.064
3.611,0.066
3.612,0.068
3.613,0.066
3.614,0.072
3.615,0.072
3.616,0.075
3.617,0.078
3.618,0.077
3.619,0.075
3.620,0.075
3.621,0.075
3.622,0.075
3.623,0.075
3.624,0.077
3.625,0.078
3.626,0.083
3.627,0.084
3.628,0.084
3.629,0.088
3.630,0.086
3.631,0.088
3.632,0.089
3.633,0.091
3.634,0.092
3.635,0.094
3.636,0.094
3.637,0.097
3.638,0.096
3.639,0.097
3.640,0.097
3.641,0.094
3.642,0.097
3.643,0.100
3.644,0.099
3.645,0.097
3.646,0.101
3.647,0.103
3.648,0.102
3.649,0.103
3.650,0.105
3.651,0.103
3.652,0.106
3.653,0.109
3.654,0.113
3.655,0.116
3.656,0.120
3.657,0.128
3.658,0.127
3.659,0.128
3.660,0.125
3.661,0.122
3.662,0.123
3.663,0.128
3.664,0.134
3.665,0.138
3.666,0.138
3.667,0.138
3.668,0.136
3.669,0.138
3.670,0.138
3.671,0.138
3.672,0.134
3.673,0.134
3.674,0.139
3.675,0.144
3.676,0.148
3.677,0.153
3.678,0.150
3.679,0.150
3.680,0.151
3.681,0.153
3.682,0.153
3.683,0.156
3.684,0.153
3.685,0.153
3.686,0.152
3.687,0.153
3.688,0.150
3.689,0.153
3.690,0.151
3.691,0.153
3.692,0.152
3.693,0.147
3.694,0.147
3.695,0.147
3.696,0.145
3.697,0.144
3.698,0.144
3.699,0.144
3.700,0.144
3.701,0.144
3.702,0.145
3.703,0.141
3.704,0.134
3.705,0.128
3.706,0.129
3.707,0.128
3.708,0.127
3.709,0.125
3.710,0.123
3.711,0.119
3.712,0.114
3.713,0.113
3.714,0.108
3.715,0.103
3.716,0.100
3.717,0.097
3.718,0.094
3.719,0.088
3.720,0.084
3.721,0.081
3.722,0.078
3.723,0.075
3.724,0.066
3.725,0.059
3.726,0.059
3.727,0.056
3.728,0.056
3.729,0.056
3.730,0.053
3.731,0.050
3.732,0.050
3.733,0.044
3.734,0.042
3.735,0.044
3.736,0.036
3.737,0.034
3.738,0.031
3.739,0.028
3.740,0.022
3.741,0.016
3.742,0.014
3.743,0.013
3.744,0.011
3.745,0.009
3.746,0.008
3.747,0.003
3.748,0.002
3.749,-0.003
3.750,-0.006
3.751,-0.009
3.752,-0.008
3.753,-0.013
3.754,-0.013
3.755,-0.009
3.756,-0.013
3.757,-0.009
3.758,-0.013
3.759,-0.013
3.760,-0.014
3.761,-0.013
3.762,-0.016
3.763,-0.016
3.764,-0.013
3.765,-0.016
3.766,-0.019
3.767,-0.019
3.768,-0.026
3.769,-0.028
3.770,-0.028
3.771,-0.028
3.772,-0.030
3.773,-0.031
3.774,-0.027
3.775,-0.028
3.776,-0.028
3.777,-0.028
3.778,-0.031
3.779,-0.028
3.780,-0.028
3.781,-0.022
3.782,-0.028
3.783,-0.031
3.784,-0.031
3.785,-0.031
3.786,-0.031
3.787,-0.028
3.788,-0.029
3.789,-0.028
3.790,-0.028
3.791,-0.031
3.792,-0.031
3.793,-0.031
3.794,-0.033
3.795,-0.031
3.796,-0.033
3.797,-0.031
3.798,-0.033
3.799,-0.034
3.800,-0.033
3.801,-0.034
3.802,-0.033
3.803,-0.028
3.804,-0.028
3.805,-0.028
3.806,-0.033
3.807,-0.034
3.808,-0.033
3.809,-0.034
3.810,-0.033
3.811,-0.034
3.812,-0.036
3.813,-0.034
3.814,-0.034
3.815,-0.034
3.816,-0.038
3.817,-0.038
3.818,-0.038
3.819,-0.041
3.820,-0.041
3.821,-0.044
3.822,-0.041
3.823,-0.038
3.824,-0.038
3.825,-0.038
3.826,-0.041
3.827,-0.041
3.828,-0.042
3.829,-0.044
3.830,-0.044
3.831,-0.044
3.832,-0.041
3.833,-0.038
3.834,-0.038
3.835,-0.038
3.836,-0.039
3.837,-0.041
3.838,-0.044
3.839,-0.047
3.840,-0.046
3.841,-0.044
3.842,-0.044
3.843,-0.044
3.844,-0.044
3.845,-0.044
3.846,-0.047
3.847,-0.047
3.848,-0.047
3.849,-0.047
3.850,-0.048
3.851,-0.053
3.852,-0.058
3.853,-0.059
3.854,-0.056
3.855,-0.053
3.856,-0.050
3.857,-0.050
3.858,-0.050
3.859,-0.050
3.860,-0.050
3.861,-0.050
3.862,-0.051
3.863,-0.053
3.864,-0.053
3.865,-0.053
3.866,-0.053
3.867,-0.053
3.868,-0.049
3.869,-0.047
3.870,-0.049
3.871,-0.047
3.872,-0.051
3.873,-0.053
3.874,-0.053
3.875,-0.053
3.876,-0.053
3.877,-0.053
3.878,-0.055
3.879,-0.050
3.880,-0.049
3.881,-0.050
3.882,-0.050
3.883,-0.050
3.884,-0.050
3.885,-0.050
3.886,-0.051
3.887,-0.053
3.888,-0.053
3.889,-0.053
3.890,-0.053
3.891,-0.053
3.892,-0.054
3.893,-0.056
3.894,-0.059
3.895,-0.059
3.896,-0.052
3.897,-0.047
3.898,-0.048
3.899,-0.053
3.900,-0.059
3.901,-0.063
3.902,-0.064
3.903,-0.066
3.904,-0.066
3.905,-0.066
3.906,-0.069
3.907,-0.069
3.908,-0.068
3.909,-0.066
3.910,-0.066
3.911,-0.066
3.912,-0.066
3.913,-0.066
3.914,-0.066
3.915,-0.066
3.916,-0.064
3.917,-0.063
3.918,-0.064
3.919,-0.056
3.920,-0.056
3.921,-0.059
3.922,-0.061
3.923,-0.059
3.924,-0.063
3.925,-0.059
3.926,-0.056
3.927,-0.056
3.928,-0.055
3.929,-0.053
3.930,-0.058
3.931,-0.059
3.932,-0.061
3.933,-0.063
3.934,-0.063
3.935,-0.063
3.936,-0.064
3.937,-0.066
3.938,-0.066
3.939,-0.066
3.940,-0.069
3.941,-0.072
3.942,-0.075
3.943,-0.075
3.944,-0.074
3.945,-0.069
3.946,-0.070
3.947,-0.069
3.948,-0.066
3.949,-0.066
3.950,-0.067
3.951,-0.069
3.952,-0.066
3.953,-0.066
3.954,-0.069
3.955,-0.069
3.956,-0.064
3.957,-0.066
3.958,-0.069
3.959,-0.069
3.960,-0.067
3.961,-0.069
3.962,-0.068
3.963,-0.069
3.964,-0.067
3.965,-0.072
3.966,-0.072
3.967,-0.075
3.968,-0.075
3.969,-0.072
3.970,-0.071
3.971,-0.069
3.972,-0.072
3.973,-0.072
3.974,-0.072
3.975,-0.072
3.976,-0.072
3.977,-0.072
3.978,-0.073
3.979,-0.072
3.980,-0.071
3.981,-0.066
3.982,-0.066
3.983,-0.066
3.984,-0.072
3.985,-0.075
3.986,-0.078
3.987,-0.078
3.988,-0.075
3.989,-0.072
3.990,-0.072
3.991,-0.069
3.992,-0.071
3.993,-0.069
3.994,-0.073
3.995,-0.072
3.996,-0.072
3.997,-0.072
3.998,-0.071
3.999,-0.072
4.000,-0.073
4.001,-0.075
4.002,-0.073
4.003,-0.075
4.004,-0.075
4.005,-0.075
4.006,-0.075
4.007,-0.075
4.008,-0.078
4.009,-0.081
4.010,-0.081
4.011,-0.075
4.012,-0.077
4.013,-0.075
4.014,-0.074
4.015,-0.075
4.016,-0.072
4.017,-0.072
4.018,-0.073
4.019,-0.075
4.020,-0.075
4.021,-0.075
4.022,-0.078
4.023,-0.081
4.024,-0.079
4.025,-0.081
4.026,-0.084
4.027,-0.084
4.028,-0.080
4.029,-0.075
4.030,-0.076
4.031,-0.075
4.032,-0.075
4.033,-0.075
4.034,-0.075
4.035,-0.075
4.036,-0.075
4.037,-0.075
4.038,-0.078
4.039,-0.081
4.040,-0.081
4.041,-0.081
4.042,-0.083
4.043,-0.084
4.044,-0.084
4.045,-0.084
4.046,-0.078
4.047,-0.075
4.048,-0.077
4.049,-0.075
4.050,-0.078
4.051,-0.078
4.052,-0.078
4.053,-0.078
4.054,-0.075
4.055,-0.072
4.056,-0.075
4.057,-0.081
4.058,-0.084
4.059,-0.084
4.060,-0.084
4.061,-0.081
4.062,-0.084
4.063,-0.084
4.064,-0.084
4.065,-0.084
4.066,-0.083
4.067,-0.081
4.068,-0.080
4.069,-0.081
4.070,-0.078
4.071,-0.075
4.072,-0.076
4.073,-0.078
4.074,-0.078
4.075,-0.078
4.076,-0.083
4.077,-0.084
4.078,-0.083
4.079,-0.084
4.080,-0.081
4.081,-0.081
4.082,-0.083
4.083,-0.084
4.084,-0.086
4.085,-0.088
4.086,-0.089
4.087,-0.091
4.088,-0.088
4.089,-0.088
4.090,-0.088
4.091,-0.084
4.092,-0.083
4.093,-0.081
4.094,-0.080
4.095,-0.078
4.096,-0.079
4.097,-0.081
4.098,-0.084
4.099,-0.088
4.100,-0.088
4.101,-0.088
4.102,-0.084
4.103,-0.088
4.104,-0.089
4.105,-0.091
4.106,-0.088
4.107,-0.081
4.108,-0.080
4.109,-0.078
4.110,-0.079
4.111,-0.081
4.112,-0.086
4.113,-0.088
4.114,-0.088
4.115,-0.088
4.116,-0.086
4.117,-0.088
4.118,-0.088
4.119,-0.084
4.120,-0.086
4.121,-0.078
4.122,-0.075
4.123,-0.075
4.124,-0.075
4.125,-0.075
4.126,-0.072
4.127,-0.066
4.128,-0.061
4.129,-0.063
4.130,-0.056
4.131,-0.053
4.132,-0.053
4.133,-0.050
4.134,-0.048
4.135,-0.047
4.136,-0.044
4.137,-0.038
4.138,-0.028
4.139,-0.025
4.140,-0.024
4.141,-0.022
4.142,-0.023
4.143,-0.025
4.144,-0.025
4.145,-0.025
4.146,-0.026
4.147,-0.028
4.148,-0.028
4.149,-0.028
4.150,-0.028
4.151,-0.028
4.152,-0.025
4.153,-0.022
4.154,-0.020
4.155,-0.016
4.156,-0.017
4.157,-0.016
4.158,-0.009
4.159,-0.003
4.160,0.014
4.161,0.022
4.162,0.025
4.163,0.028
4.164,0.034
4.165,0.041
4.166,0.046
4.167,0.047
4.168,0.050
4.169,0.053
4.170,0.066
4.171,0.066
4.172,0.073
4.173,0.078
4.174,0.078
4.175,0.078
4.176,0.075
4.177,0.075
4.178,0.071
4.179,0.066
4.180,0.059
4.181,0.056
4.182,0.051
4.183,0.047
4.184,0.046
4.185,0.041
4.186,0.039
4.187,0.031
4.188,0.034
4.189,0.041
4.190,0.041
4.191,0.044
4.192,0.039
4.193,0.034
4.194,0.030
4.195,0.028
4.196,0.025
4.197,0.025
4.198,0.017
4.199,0.013
4.200,0.009
4.201,0.000
4.202,-0.009
4.203,-0.019
4.204,-0.028
4.205,-0.034
4.206,-0.039
4.207,-0.047
4.208,-0.054
4.209,-0.056
4.210,-0.059
4.211,-0.059
4.212,-0.066
4.213,-0.072
4.214,-0.075
4.215,-0.078
4.216,-0.081
4.217,-0.081
4.218,-0.084
4.219,-0.088
4.220,-0.089
4.221,-0.091
4.222,-0.098
4.223,-0.100
4.224,-0.100
4.225,-0.100
4.226,-0.099
4.227,-0.097
4.228,-0.097
4.229,-0.100
4.230,-0.100
4.231,-0.100
4.232,-0.100
4.233,-0.103
4.234,-0.103
4.235,-0.106
4.236,-0.109
4.237,-0.112
4.238,-0.112
4.239,-0.112
4.240,-0.112
4.241,-0.112
4.242,-0.114
4.243,-0.116
4.244,-0.111
4.245,-0.112
4.246,-0.112
4.247,-0.112
4.248,-0.114
4.249,-0.109
4.250,-0.108
4.251,-0.106
4.252,-0.106
4.253,-0.106
4.254,-0.106
4.255,-0.103
4.256,-0.106
4.257,-0.103
4.258,-0.105
4.259,-0.103
4.260,-0.106
4.261,-0.106
4.262,-0.109
4.263,-0.112
4.264,-0.114
4.265,-0.112
4.266,-0.108
4.267,-0.106
4.268,-0.109
4.269,-0.112
4.270,-0.114
4.271,-0.119
4.272,-0.121
4.273,-0.125
4.274,-0.131
4.275,-0.141
4.276,-0.150
4.277,-0.156
4.278,-0.166
4.279,-0.172
4.280,-0.175
4.281,-0.178
4.282,-0.176
4.283,-0.169
4.284,-0.164
4.285,-0.153
4.286,-0.139
4.287,-0.125
4.288,-0.112
4.289,-0.091
4.290,-0.058
4.291,-0.022
4.292,0.006
4.293,0.041
4.294,0.075
4.295,0.122
4.296,0.175
4.297,0.231
4.298,0.301
4.299,0.375
4.300,0.450
4.301,0.519
4.302,0.581
4.303,0.631
4.304,0.674
4.305,0.709
4.306,0.763
4.307,0.816
4.308,0.858
4.309,0.906
4.310,0.954
4.311,1.003
4.312,1.044
4.313,1.075
4.314,1.109
4.315,1.141
4.316,1.175
4.317,1.191
4.318,1.187
4.319,1.156
4.320,1.122
4.321,1.091
4.322,1.070
4.323,1.022
4.324,0.956
4.325,0.875
4.326,0.747
4.327,0.600
4.328,0.450
4.329,0.309
4.330,0.208
4.331,0.122
4.332,0.043
4.333,-0.038
4.334,-0.101
4.335,-0.141
4.336,-0.167
4.337,-0.181
4.338,-0.184
4.339,-0.184
4.340,-0.191
4.341,-0.187
4.342,-0.187
4.343,-0.184
4.344,-0.182
4.345,-0.181
4.346,-0.179
4.347,-0.169
4.348,-0.161
4.349,-0.150
4.350,-0.145
4.351,-0.141
4.352,-0.136
4.353,-0.128
4.354,-0.117
4.355,-0.112
4.356,-0.105
4.357,-0.100
4.358,-0.098
4.359,-0.094
4.360,-0.092
4.361,-0.091
4.362,-0.092
4.363,-0.091
4.364,-0.092
4.365,-0.091
4.366,-0.095
4.367,-0.097
4.368,-0.098
4.369,-0.100
4.370,-0.099
4.371,-0.097
4.372,-0.095
4.373,-0.094
4.374,-0.094
4.375,-0.094
4.376,-0.095
4.377,-0.097
4.378,-0.096
4.379,-0.094
4.380,-0.088
4.381,-0.088
4.382,-0.092
4.383,-0.094
4.384,-0.097
4.385,-0.100
4.386,-0.097
4.387,-0.094
4.388,-0.092
4.389,-0.088
4.390,-0.088
4.391,-0.088
4.392,-0.088
4.393,-0.088
4.394,-0.086
4.395,-0.088
4.396,-0.086
4.397,-0.084
4.398,-0.091
4.399,-0.094
4.400,-0.097
4.401,-0.097
4.402,-0.091
4.403,-0.088
4.404,-0.089
4.405,-0.091
4.406,-0.088
4.407,-0.088
4.408,-0.089
4.409,-0.091
4.410,-0.089
4.411,-0.091
4.412,-0.089
4.413,-0.088
4.414,-0.088
4.415,-0.088
4.416,-0.086
4.417,-0.084
4.418,-0.089
4.419,-0.088
4.420,-0.086
4.421,-0.088
4.422,-0.086
4.423,-0.088
4.424,-0.089
4.425,-0.088
4.426,-0.086
4.427,-0.081
4.428,-0.084
4.429,-0.088
4.430,-0.086
4.431,-0.088
4.432,-0.086
4.433,-0.084
4.434,-0.083
4.435,-0.081
4.436,-0.078
4.437,-0.078
4.438,-0.075
4.439,-0.072
4.440,-0.069
4.441,-0.072
4.442,-0.072
4.443,-0.078
4.444,-0.078
4.445,-0.078
4.446,-0.077
4.447,-0.075
4.448,-0.074
4.449,-0.072
4.450,-0.078
4.451,-0.081
4.452,-0.086
4.453,-0.088
4.454,-0.086
4.455,-0.081
4.456,-0.078
4.457,-0.078
4.458,-0.075
4.459,-0.075
4.460,-0.079
4.461,-0.081
4.462,-0.084
4.463,-0.084
4.464,-0.084
4.465,-0.081
4.466,-0.084
4.467,-0.084
4.468,-0.081
4.469,-0.075
4.470,-0.075
4.471,-0.075
4.472,-0.079
4.473,-0.081
4.474,-0.080
4.475,-0.075
4.476,-0.075
4.477,-0.075
4.478,-0.079
4.479,-0.081
4.480,-0.080
4.481,-0.075
4.482,-0.075
4.483,-0.075
4.484,-0.076
4.485,-0.078
4.486,-0.078
4.487,-0.078
4.488,-0.075
4.489,-0.075
4.490,-0.072
4.491,-0.072
4.492,-0.066
4.493,-0.063
4.494,-0.063
4.495,-0.066
4.496,-0.067
4.497,-0.066
4.498,-0.064
4.499,-0.066
4.500,-0.063
4.501,-0.059
4.502,-0.058
4.503,-0.053
4.504,-0.051
4.505,-0.053
4.506,-0.054
4.507,-0.050
4.508,-0.050
4.509,-0.047
4.510,-0.050
4.511,-0.050
4.512,-0.046
4.513,-0.041
4.514,-0.041
4.515,-0.041
4.516,-0.041
4.517,-0.041
4.518,-0.034
4.519,-0.034
4.520,-0.031
4.521,-0.028
4.522,-0.028
4.523,-0.028
4.524,-0.034
4.525,-0.031
4.526,-0.028
4.527,-0.028
4.528,-0.029
4.529,-0.028
4.530,-0.026
4.531,-0.028
4.532,-0.027
4.533,-0.025
4.534,-0.022
4.535,-0.019
4.536,-0.018
4.537,-0.016
4.538,-0.014
4.539,-0.009
4.540,-0.006
4.541,-0.003
4.542,-0.003
4.543,0.000
4.544,0.006
4.545,0.009
4.546,0.008
4.547,0.006
4.548,0.008
4.549,0.006
4.550,0.006
4.551,0.003
4.552,0.003
4.553,0.009
4.554,0.014
4.555,0.022
4.556,0.024
4.557,0.022
4.558,0.023
4.559,0.028
4.560,0.030
4.561,0.028
4.562,0.030
4.563,0.028
4.564,0.030
4.565,0.031
4.566,0.034
4.567,0.031
4.568,0.030
4.569,0.031
4.570,0.031
4.571,0.034
4.572,0.036
4.573,0.041
4.574,0.047
4.575,0.050
4.576,0.054
4.577,0.059
4.578,0.061
4.579,0.063
4.580,0.069
4.581,0.066
4.582,0.063
4.583,0.063
4.584,0.064
4.585,0.063
4.586,0.067
4.587,0.066
4.588,0.072
4.589,0.078
4.590,0.077
4.591,0.075
4.592,0.075
4.593,0.075
4.594,0.074
4.595,0.072
4.596,0.072
4.597,0.072
4.598,0.074
4.599,0.072
4.600,0.071
4.601,0.072
4.602,0.073
4.603,0.078
4.604,0.077
4.605,0.075
4.606,0.074
4.607,0.072
4.608,0.075
4.609,0.081
4.610,0.086
4.611,0.094
4.612,0.095
4.613,0.094
4.614,0.091
4.615,0.088
4.616,0.092
4.617,0.097
4.618,0.097
4.619,0.094
4.620,0.091
4.621,0.091
4.622,0.094
4.623,0.094
4.624,0.094
4.625,0.094
4.626,0.097
4.627,0.100
4.628,0.099
4.629,0.100
4.630,0.099
4.631,0.100
4.632,0.103
4.633,0.106
4.634,0.106
4.635,0.109
4.636,0.113
4.637,0.113
4.638,0.116
4.639,0.119
4.640,0.118
4.641,0.119
4.642,0.120
4.643,0.122
4.644,0.123
4.645,0.128
4.646,0.133
4.647,0.138
4.648,0.138
4.649,0.138
4.650,0.136
4.651,0.138
4.652,0.139
4.653,0.141
4.654,0.141
4.655,0.144
4.656,0.141
4.657,0.141
4.658,0.139
4.659,0.141
4.660,0.139
4.661,0.144
4.662,0.142
4.663,0.144
4.664,0.146
4.665,0.144
4.666,0.147
4.667,0.150
4.668,0.148
4.669,0.147
4.670,0.146
4.671,0.144
4.672,0.144
4.673,0.144
4.674,0.147
4.675,0.144
4.676,0.141
4.677,0.138
4.678,0.138
4.679,0.134
4.680,0.134
4.681,0.134
4.682,0.131
4.683,0.125
4.684,0.122
4.685,0.122
4.686,0.116
4.687,0.109
4.688,0.108
4.689,0.106
4.690,0.106
4.691,0.103
4.692,0.096
4.693,0.088
4.694,0.083
4.695,0.078
4.696,0.073
4.697,0.072
4.698,0.076
4.699,0.078
4.700,0.074
4.701,0.069
4.702,0.067
4.703,0.066
4.704,0.066
4.705,0.059
4.706,0.053
4.707,0.050
4.708,0.045
4.709,0.047
4.710,0.044
4.711,0.041
4.712,0.036
4.713,0.031
4.714,0.028
4.715,0.025
4.716,0.022
4.717,0.019
4.718,0.019
4.719,0.016
4.720,0.017
4.721,0.016
4.722,0.011
4.723,0.006
4.724,0.008
4.725,0.003
4.726,-0.003
4.727,-0.006
4.728,-0.006
4.729,0.000
4.730,-0.002
4.731,0.000
4.732,-0.004
4.733,-0.006
4.734,-0.009
4.735,-0.009
4.736,-0.005
4.737,-0.006
4.738,-0.011
4.739,-0.013
4.740,-0.011
4.741,-0.003
4.742,-0.006
4.743,-0.009
4.744,-0.016
4.745,-0.022
4.746,-0.020
4.747,-0.025
4.748,-0.026
4.749,-0.028
4.750,-0.025
4.751,-0.016
4.752,-0.020
4.753,-0.019
4.754,-0.023
4.755,-0.025
4.756,-0.025
4.757,-0.025
4.758,-0.024
4.759,-0.019
4.760,-0.020
4.761,-0.019
4.762,-0.019
4.763,-0.022
4.764,-0.021
4.765,-0.019
4.766,-0.022
4.767,-0.022
4.768,-0.023
4.769,-0.022
4.770,-0.024
4.771,-0.025
4.772,-0.021
4.773,-0.019
4.774,-0.019
4.775,-0.016
4.776,-0.019
4.777,-0.022
4.778,-0.022
4.779,-0.019
4.780,-0.019
4.781,-0.022
4.782,-0.020
4.783,-0.022
4.784,-0.025
4.785,-0.025
4.786,-0.026
4.787,-0.028
4.788,-0.031
4.789,-0.031
4.790,-0.028
4.791,-0.028
4.792,-0.028
4.793,-0.031
4.794,-0.031
4.795,-0.031
4.796,-0.033
4.797,-0.034
4.798,-0.034
4.799,-0.031
4.800,-0.030
4.801,-0.028
4.802,-0.028
4.803,-0.028
4.804,-0.028
4.805,-0.028
4.806,-0.031
4.807,-0.034
4.808,-0.033
4.809,-0.031
4.810,-0.030
4.811,-0.028
4.812,-0.028
4.813,-0.028
4.814,-0.029
4.815,-0.031
4.816,-0.030
4.817,-0.028
4.818,-0.030
4.819,-0.028
4.820,-0.029
4.821,-0.031
4.822,-0.030
4.823,-0.031
4.824,-0.036
4.825,-0.038
4.826,-0.033
4.827,-0.028
4.828,-0.029
4.829,-0.034
4.830,-0.034
4.831,-0.034
4.832,-0.034
4.833,-0.034
4.834,-0.034
4.835,-0.034
4.836,-0.034
4.837,-0.034
4.838,-0.033
4.839,-0.031
4.840,-0.029
4.841,-0.031
4.842,-0.034
4.843,-0.034
4.844,-0.036
4.845,-0.034
4.846,-0.034
4.847,-0.034
4.848,-0.034
4.849,-0.034
4.850,-0.042
4.851,-0.044
4.852,-0.043
4.853,-0.044
4.854,-0.044
4.855,-0.044
4.856,-0.044
4.857,-0.044
4.858,-0.044
4.859,-0.044
4.860,-0.044
4.861,-0.044
4.862,-0.039
4.863,-0.034
4.864,-0.033
4.865,-0.031
4.866,-0.041
4.867,-0.047
4.868,-0.045
4.869,-0.047
4.870,-0.046
4.871,-0.047
4.872,-0.050
4.873,-0.050
4.874,-0.050
4.875,-0.050
4.876,-0.049
4.877,-0.047
4.878,-0.050
4.879,-0.050
4.880,-0.051
4.881,-0.053
4.882,-0.053
4.883,-0.053
4.884,-0.053
4.885,-0.053
4.886,-0.053
4.887,-0.053
4.888,-0.054
4.889,-0.056
4.890,-0.061
4.891,-0.056
4.892,-0.050
4.893,-0.047
4.894,-0.048
4.895,-0.047
4.896,-0.053
4.897,-0.053
4.898,-0.051
4.899,-0.053
4.900,-0.052
4.901,-0.050
4.902,-0.052
4.903,-0.050
4.904,-0.050
4.905,-0.050
4.906,-0.050
4.907,-0.050
4.908,-0.053
4.909,-0.056
4.910,-0.056
4.911,-0.056
4.912,-0.058
4.913,-0.059
4.914,-0.059
4.915,-0.056
4.916,-0.058
4.917,-0.056
4.918,-0.056
4.919,-0.053
4.920,-0.052
4.921,-0.053
4.922,-0.054
4.923,-0.056
4.924,-0.053
4.925,-0.053
4.926,-0.055
4.927,-0.053
4.928,-0.050
4.929,-0.053
4.930,-0.061
4.931,-0.066
4.932,-0.063
4.933,-0.063
4.934,-0.063
4.935,-0.066
4.936,-0.063
4.937,-0.066
4.938,-0.064
4.939,-0.066
4.940,-0.067
4.941,-0.066
4.942,-0.066
4.943,-0.066
4.944,-0.069
4.945,-0.069
4.946,-0.069
4.947,-0.069
4.948,-0.069
4.949,-0.069
4.950,-0.070
4.951,-0.069
4.952,-0.069
4.953,-0.066
4.954,-0.066
4.955,-0.066
4.956,-0.068
4.957,-0.066
4.958,-0.069
4.959,-0.069
4.960,-0.069
4.961,-0.069
4.962,-0.069
4.963,-0.066
4.964,-0.068
4.965,-0.066
4.966,-0.070
4.967,-0.069
4.968,-0.066
4.969,-0.063
4.970,-0.059
4.971,-0.059
4.972,-0.063
4.973,-0.066
4.974,-0.063
4.975,-0.063
4.976,-0.063
4.977,-0.063
4.978,-0.064
4.979,-0.066
4.980,-0.066
4.981,-0.066
4.982,-0.070
4.983,-0.069
4.984,-0.071
4.985,-0.069
4.986,-0.069
4.987,-0.072
4.988,-0.070
4.989,-0.072
4.990,-0.073
4.991,-0.075
4.992,-0.074
4.993,-0.072
4.994,-0.071
4.995,-0.066
4.996,-0.069
4.997,-0.069
4.998,-0.069
4.999,-0.069
5.000,-0.066
5.001,-0.066
5.002,-0.068
5.003,-0.066
5.004,-0.067
5.005,-0.066
5.006,-0.064
5.007,-0.066
5.008,-0.067
5.009,-0.069
5.010,-0.069
5.011,-0.069
5.012,-0.068
5.013,-0.066
5.014,-0.066
5.015,-0.066
5.016,-0.069
5.017,-0.072
5.018,-0.071
5.019,-0.066
5.020,-0.063
5.021,-0.056
5.022,-0.058
5.023,-0.059
5.024,-0.059
5.025,-0.063
5.026,-0.059
5.027,-0.056
5.028,-0.056
5.029,-0.059
5.030,-0.063
5.031,-0.066
5.032,-0.067
5.033,-0.066
5.034,-0.064
5.035,-0.063
5.036,-0.061
5.037,-0.066
5.038,-0.059
5.039,-0.053
5.040,-0.051
5.041,-0.053
5.042,-0.053
5.043,-0.053
5.044,-0.047
5.045,-0.038
5.046,-0.038
5.047,-0.031
5.048,-0.031
5.049,-0.034
5.050,-0.030
5.051,-0.025
5.052,-0.023
5.053,-0.025
5.054,-0.022
5.055,-0.016
5.056,-0.016
5.057,-0.016
5.058,-0.017
5.059,-0.019
5.060,-0.019
5.061,-0.019
5.062,-0.019
5.063,-0.019
5.064,-0.019
5.065,-0.019
5.066,-0.019
5.067,-0.016
5.068,-0.014
5.069,-0.013
5.070,-0.006
5.071,0.000
5.072,0.006
5.073,0.013
5.074,0.022
5.075,0.031
5.076,0.039
5.077,0.050
5.078,0.054
5.079,0.059
5.080,0.061
5.081,0.063
5.082,0.069
5.083,0.078
5.084,0.078
5.085,0.081
5.086,0.084
5.087,0.088
5.088,0.084
5.089,0.088
5.090,0.081
5.091,0.075
5.092,0.075
5.093,0.072
5.094,0.070
5.095,0.069
5.096,0.066
5.097,0.063
5.098,0.059
5.099,0.050
5.100,0.045
5.101,0.047
5.102,0.044
5.103,0.047
5.104,0.044
5.105,0.044
5.106,0.047
5.107,0.041
5.108,0.036
5.109,0.031
5.110,0.029
5.111,0.028
5.112,0.027
5.113,0.019
5.114,0.014
5.115,0.003
5.116,-0.003
5.117,-0.006
5.118,-0.014
5.119,-0.019
5.120,-0.026
5.121,-0.041
5.122,-0.050
5.123,-0.050
5.124,-0.052
5.125,-0.056
5.126,-0.055
5.127,-0.059
5.128,-0.061
5.129,-0.063
5.130,-0.066
5.131,-0.066
5.132,-0.064
5.133,-0.069
5.134,-0.075
5.135,-0.081
5.136,-0.083
5.137,-0.081
5.138,-0.078
5.139,-0.081
5.140,-0.083
5.141,-0.084
5.142,-0.084
5.143,-0.084
5.144,-0.088
5.145,-0.091
5.146,-0.092
5.147,-0.091
5.148,-0.091
5.149,-0.091
5.150,-0.094
5.151,-0.094
5.152,-0.098
5.153,-0.100
5.154,-0.101
5.155,-0.103
5.156,-0.099
5.157,-0.094
5.158,-0.094
5.159,-0.094
5.160,-0.094
5.161,-0.091
5.162,-0.094
5.163,-0.094
5.164,-0.095
5.165,-0.100
5.166,-0.096
5.167,-0.094
5.168,-0.095
5.169,-0.097
5.170,-0.098
5.171,-0.100
5.172,-0.097
5.173,-0.100
5.174,-0.097
5.175,-0.100
5.176,-0.103
5.177,-0.106
5.178,-0.103
5.179,-0.103
5.180,-0.102
5.181,-0.103
5.182,-0.103
5.183,-0.103
5.184,-0.106
5.185,-0.109
5.186,-0.114
5.187,-0.119
5.188,-0.124
5.189,-0.125
5.190,-0.132
5.191,-0.137
5.192,-0.142
5.193,-0.150
5.194,-0.155
5.195,-0.159
5.196,-0.164
5.197,-0.169
5.198,-0.169
5.199,-0.162
5.200,-0.153
5.201,-0.144
5.202,-0.128
5.203,-0.112
5.204,-0.094
5.205,-0.075
5.206,-0.046
5.207,-0.013
5.208,0.016
5.209,0.044
5.210,0.088
5.211,0.134
5.212,0.191
5.213,0.250
5.214,0.314
5.215,0.384
5.216,0.449
5.217,0.516
5.218,0.578
5.219,0.634
5.220,0.680
5.221,0.725
5.222,0.769
5.223,0.819
5.224,0.870
5.225,0.922
5.226,0.972
5.227,1.013
5.228,1.050
5.229,1.081
5.230,1.111
5.231,1.147
5.232,1.171
5.233,1.187
5.234,1.186
5.235,1.172
5.236,1.141
5.237,1.109
5.238,1.071
5.239,1.034
5.240,0.968
5.241,0.881
5.242,0.772
5.243,0.625
5.244,0.484
5.245,0.344
5.246,0.219
5.247,0.131
5.248,0.050
5.249,-0.016
5.250,-0.075
5.251,-0.125
5.252,-0.152
5.253,-0.166
5.254,-0.172
5.255,-0.175
5.256,-0.177
5.257,-0.181
5.258,-0.182
5.259,-0.184
5.260,-0.179
5.261,-0.178
5.262,-0.174
5.263,-0.169
5.264,-0.157
5.265,-0.150
5.266,-0.139
5.267,-0.134
5.268,-0.128
5.269,-0.125
5.270,-0.119
5.271,-0.109
5.272,-0.106
5.273,-0.100
5.274,-0.097
5.275,-0.094
5.276,-0.088
5.277,-0.088
5.278,-0.086
5.279,-0.088
5.280,-0.094
5.281,-0.103
5.282,-0.100
5.283,-0.100
5.284,-0.096
5.285,-0.091
5.286,-0.089
5.287,-0.088
5.288,-0.091
5.289,-0.091
5.290,-0.088
5.291,-0.088
5.292,-0.084
5.293,-0.081
5.294,-0.080
5.295,-0.078
5.296,-0.078
5.297,-0.078
5.298,-0.084
5.299,-0.088
5.300,-0.091
5.301,-0.094
5.302,-0.095
5.303,-0.094
5.304,-0.092
5.305,-0.094
5.306,-0.089
5.307,-0.088
5.308,-0.086
5.309,-0.084
5.310,-0.083
5.311,-0.078
5.312,-0.083
5.313,-0.088
5.314,-0.086
5.315,-0.088
5.316,-0.089
5.317,-0.094
5.318,-0.095
5.319,-0.094
5.320,-0.092
5.321,-0.091
5.322,-0.091
5.323,-0.088
5.324,-0.088
5.325,-0.088
5.326,-0.088
5.327,-0.084
5.328,-0.084
5.329,-0.084
5.330,-0.083
5.331,-0.081
5.332,-0.080
5.333,-0.078
5.334,-0.077
5.335,-0.078
5.336,-0.076
5.337,-0.075
5.338,-0.075
5.339,-0.075
5.340,-0.078
5.341,-0.078
5.342,-0.076
5.343,-0.078
5.344,-0.072
5.345,-0.072
5.346,-0.078
5.347,-0.078
5.348,-0.079
5.349,-0.081
5.350,-0.081
5.351,-0.081
5.352,-0.083
5.353,-0.084
5.354,-0.089
5.355,-0.088
5.356,-0.083
5.357,-0.078
5.358,-0.077
5.359,-0.069
5.360,-0.071
5.361,-0.069
5.362,-0.070
5.363,-0.072
5.364,-0.072
5.365,-0.072
5.366,-0.073
5.367,-0.078
5.368,-0.078
5.369,-0.078
5.370,-0.075
5.371,-0.078
5.372,-0.077
5.373,-0.072
5.374,-0.073
5.375,-0.072
5.376,-0.071
5.377,-0.072
5.378,-0.073
5.379,-0.075
5.380,-0.072
5.381,-0.072
5.382,-0.072
5.383,-0.078
5.384,-0.078
5.385,-0.078
5.386,-0.074
5.387,-0.072
5.388,-0.071
5.389,-0.072
5.390,-0.072
5.391,-0.072
5.392,-0.070
5.393,-0.072
5.394,-0.071
5.395,-0.072
5.396,-0.073
5.397,-0.075
5.398,-0.072
5.399,-0.072
5.400,-0.072
5.401,-0.072
5.402,-0.072
5.403,-0.072
5.404,-0.071
5.405,-0.066
5.406,-0.067
5.407,-0.066
5.408,-0.064
5.409,-0.059
5.410,-0.058
5.411,-0.056
5.412,-0.059
5.413,-0.056
5.414,-0.053
5.415,-0.056
5.416,-0.061
5.417,-0.063
5.418,-0.061
5.419,-0.059
5.420,-0.058
5.421,-0.056
5.422,-0.055
5.423,-0.053
5.424,-0.048
5.425,-0.050
5.426,-0.047
5.427,-0.050
5.428,-0.047
5.429,-0.041
5.430,-0.038
5.431,-0.038
5.432,-0.039
5.433,-0.041
5.434,-0.041
5.435,-0.038
5.436,-0.041
5.437,-0.038
5.438,-0.034
5.439,-0.034
5.440,-0.034
5.441,-0.038
5.442,-0.031
5.443,-0.028
5.444,-0.025
5.445,-0.022
5.446,-0.020
5.447,-0.019
5.448,-0.018
5.449,-0.016
5.450,-0.019
5.451,-0.019
5.452,-0.017
5.453,-0.019
5.454,-0.019
5.455,-0.019
5.456,-0.017
5.457,-0.016
5.458,-0.009
5.459,-0.006
5.460,-0.004
5.461,-0.003
5.462,-0.004
5.463,-0.006
5.464,-0.005
5.465,0.000
5.466,0.001
5.467,0.006
5.468,0.005
5.469,0.003
5.470,0.009
5.471,0.009
5.472,0.009
5.473,0.009
5.474,0.009
5.475,0.009
5.476,0.009
5.477,0.009
5.478,0.014
5.479,0.022
5.480,0.022
5.481,0.025
5.482,0.027
5.483,0.028
5.484,0.026
5.485,0.028
5.486,0.031
5.487,0.031
5.488,0.033
5.489,0.031
5.490,0.036
5.491,0.041
5.492,0.042
5.493,0.047
5.494,0.050
5.495,0.050
5.496,0.047
5.497,0.050
5.498,0.047
5.499,0.047
5.500,0.050
5.501,0.053
5.502,0.058
5.503,0.066
5.504,0.061
5.505,0.063
5.506,0.064
5.507,0.063
5.508,0.063
5.509,0.063
5.510,0.063
5.511,0.063
5.512,0.063
5.513,0.066
5.514,0.068
5.515,0.069
5.516,0.069
5.517,0.069
5.518,0.071
5.519,0.069
5.520,0.072
5.521,0.072
5.522,0.075
5.523,0.078
5.524,0.079
5.525,0.081
5.526,0.084
5.527,0.084
5.528,0.088
5.529,0.088
5.530,0.084
5.531,0.084
5.532,0.086
5.533,0.088
5.534,0.086
5.535,0.088
5.536,0.086
5.537,0.084
5.538,0.088
5.539,0.091
5.540,0.094
5.541,0.097
5.542,0.096
5.543,0.097
5.544,0.099
5.545,0.097
5.546,0.099
5.547,0.097
5.548,0.101
5.549,0.103
5.550,0.104
5.551,0.106
5.552,0.102
5.553,0.100
5.554,0.106
5.555,0.109
5.556,0.108
5.557,0.106
5.558,0.108
5.559,0.106
5.560,0.108
5.561,0.109
5.562,0.114
5.563,0.119
5.564,0.121
5.565,0.119
5.566,0.120
5.567,0.122
5.568,0.125
5.569,0.125
5.570,0.124
5.571,0.122
5.572,0.128
5.573,0.128
5.574,0.129
5.575,0.131
5.576,0.133
5.577,0.128
5.578,0.130
5.579,0.125
5.580,0.122
5.581,0.122
5.582,0.122
5.583,0.122
5.584,0.123
5.585,0.122
5.586,0.114
5.587,0.109
5.588,0.109
5.589,0.109
5.590,0.111
5.591,0.113
5.592,0.108
5.593,0.106
5.594,0.103
5.595,0.103
5.596,0.101
5.597,0.103
5.598,0.104
5.599,0.103
5.600,0.096
5.601,0.091
5.602,0.088
5.603,0.078
5.604,0.073
5.605,0.072
5.606,0.069
5.607,0.069
5.608,0.069
5.609,0.069
5.610,0.067
5.611,0.066
5.612,0.064
5.613,0.059
5.614,0.053
5.615,0.050
5.616,0.048
5.617,0.047
5.618,0.044
5.619,0.041
5.620,0.036
5.621,0.034
5.622,0.028
5.623,0.025
5.624,0.026
5.625,0.022
5.626,0.021
5.627,0.016
5.628,0.013
5.629,0.009
5.630,0.009
5.631,0.009
5.632,0.006
5.633,0.003
5.634,0.001
5.635,0.003
5.636,0.001
5.637,0.003
5.638,-0.004
5.639,-0.013
5.640,-0.017
5.641,-0.016
5.642,-0.018
5.643,-0.019
5.644,-0.018
5.645,-0.019
5.646,-0.017
5.647,-0.022
5.648,-0.019
5.649,-0.019
5.650,-0.019
5.651,-0.022
5.652,-0.028
5.653,-0.031
5.654,-0.031
5.655,-0.031
5.656,-0.031
5.657,-0.034
5.658,-0.030
5.659,-0.028
5.660,-0.028
5.661,-0.031
5.662,-0.036
5.663,-0.034
5.664,-0.033
5.665,-0.028
5.666,-0.027
5.667,-0.028
5.668,-0.025
5.669,-0.028
5.670,-0.026
5.671,-0.031
5.672,-0.033
5.673,-0.034
5.674,-0.034
5.675,-0.034
5.676,-0.031
5.677,-0.031
5.678,-0.029
5.679,-0.031
5.680,-0.034
5.681,-0.034
5.682,-0.033
5.683,-0.034
5.684,-0.036
5.685,-0.038
5.686,-0.033
5.687,-0.034
5.688,-0.038
5.689,-0.034
5.690,-0.036
5.691,-0.038
5.692,-0.036
5.693,-0.041
5.694,-0.041
5.695,-0.038
5.696,-0.036
5.697,-0.038
5.698,-0.039
5.699,-0.034
5.700,-0.033
5.701,-0.034
5.702,-0.036
5.703,-0.038
5.704,-0.036
5.705,-0.038
5.706,-0.039
5.707,-0.038
5.708,-0.042
5.709,-0.047
5.710,-0.049
5.711,-0.047
5.712,-0.048
5.713,-0.050
5.714,-0.049
5.715,-0.050
5.716,-0.050
5.717,-0.050
5.718,-0.050
5.719,-0.050
5.720,-0.051
5.721,-0.053
5.722,-0.053
5.723,-0.053
5.724,-0.053
5.725,-0.053
5.726,-0.052
5.727,-0.050
5.728,-0.051
5.729,-0.053
5.730,-0.050
5.731,-0.047
5.732,-0.047
5.733,-0.047
5.734,-0.048
5.735,-0.053
5.736,-0.052
5.737,-0.050
5.738,-0.050
5.739,-0.050
5.740,-0.050
5.741,-0.050
5.742,-0.056
5.743,-0.059
5.744,-0.056
5.745,-0.056
5.746,-0.059
5.747,-0.059
5.748,-0.059
5.749,-0.059
5.750,-0.058
5.751,-0.056
5.752,-0.056
5.753,-0.056
5.754,-0.058
5.755,-0.059
5.756,-0.058
5.757,-0.053
5.758,-0.052
5.759,-0.053
5.760,-0.054
5.761,-0.059
5.762,-0.063
5.763,-0.066
5.764,-0.064
5.765,-0.063
5.766,-0.061
5.767,-0.063
5.768,-0.059
5.769,-0.059
5.770,-0.063
5.771,-0.063
5.772,-0.063
5.773,-0.063
5.774,-0.063
5.775,-0.063
5.776,-0.063
5.777,-0.063
5.778,-0.064
5.779,-0.066
5.780,-0.066
5.781,-0.066
5.782,-0.059
5.783,-0.056
5.784,-0.059
5.785,-0.059
5.786,-0.063
5.787,-0.066
5.788,-0.066
5.789,-0.066
5.790,-0.066
5.791,-0.066
5.792,-0.066
5.793,-0.066
5.794,-0.066
5.795,-0.069
5.796,-0.069
5.797,-0.069
5.798,-0.070
5.799,-0.072
5.800,-0.072
5.801,-0.072
5.802,-0.072
5.803,-0.072
5.804,-0.072
5.805,-0.072
5.806,-0.072
5.807,-0.075
5.808,-0.070
5.809,-0.072
5.810,-0.074
5.811,-0.072
5.812,-0.068
5.813,-0.072
5.814,-0.073
5.815,-0.072
5.816,-0.072
5.817,-0.072
5.818,-0.071
5.819,-0.072
5.820,-0.072
5.821,-0.072
5.822,-0.072
5.823,-0.072
5.824,-0.072
5.825,-0.072
5.826,-0.072
5.827,-0.072
5.828,-0.072
5.829,-0.075
5.830,-0.078
5.831,-0.078
5.832,-0.075
5.833,-0.078
5.834,-0.078
5.835,-0.078
5.836,-0.075
5.837,-0.075
5.838,-0.078
5.839,-0.078
5.840,-0.079
5.841,-0.078
5.842,-0.077
5.843,-0.078
5.844,-0.078
5.845,-0.075
5.846,-0.078
5.847,-0.081
5.848,-0.080
5.849,-0.075
5.850,-0.075
5.851,-0.075
5.852,-0.079
5.853,-0.078
5.854,-0.081
5.855,-0.081
5.856,-0.084
5.857,-0.084
5.858,-0.083
5.859,-0.084
5.860,-0.083
5.861,-0.084
5.862,-0.084
5.863,-0.084
5.864,-0.084
5.865,-0.084
5.866,-0.084
5.867,-0.084
5.868,-0.083
5.869,-0.084
5.870,-0.080
5.871,-0.078
5.872,-0.077
5.873,-0.078
5.874,-0.078
5.875,-0.081
5.876,-0.083
5.877,-0.084
5.878,-0.086
5.879,-0.088
5.880,-0.084
5.881,-0.088
5.882,-0.086
5.883,-0.088
5.884,-0.084
5.885,-0.084
5.886,-0.084
5.887,-0.084
5.888,-0.084
5.889,-0.081
5.890,-0.081
5.891,-0.078
5.892,-0.079
5.893,-0.081
5.894,-0.083
5.895,-0.084
5.896,-0.084
5.897,-0.084
5.898,-0.083
5.899,-0.084
5.900,-0.083
5.901,-0.088
5.902,-0.088
5.903,-0.088
5.904,-0.091
5.905,-0.088
5.906,-0.088
5.907,-0.088
5.908,-0.088
5.909,-0.088
5.910,-0.089
5.911,-0.091
5.912,-0.092
5.913,-0.091
5.914,-0.088
5.915,-0.088
5.916,-0.088
5.917,-0.088
5.918,-0.091
5.919,-0.094
5.920,-0.091
5.921,-0.091
5.922,-0.089
5.923,-0.088
5.924,-0.084
5.925,-0.081
5.926,-0.080
5.927,-0.078
5.928,-0.079
5.929,-0.081
5.930,-0.083
5.931,-0.081
5.932,-0.081
5.933,-0.078
5.934,-0.083
5.935,-0.088
5.936,-0.086
5.937,-0.088
5.938,-0.091
5.939,-0.091
5.940,-0.089
5.941,-0.084
5.942,-0.083
5.943,-0.084
5.944,-0.086
5.945,-0.088
5.946,-0.088
5.947,-0.088
5.948,-0.089
5.949,-0.091
5.950,-0.088
5.951,-0.084
5.952,-0.084
5.953,-0.084
5.954,-0.088
5.955,-0.088
5.956,-0.091
5.957,-0.091
5.958,-0.088
5.959,-0.084
5.960,-0.080
5.961,-0.078
5.962,-0.078
5.963,-0.078
5.964,-0.079
5.965,-0.084
5.966,-0.086
5.967,-0.088
5.968,-0.088
5.969,-0.084
5.970,-0.084
5.971,-0.084
5.972,-0.081
5.973,-0.084
5.974,-0.077
5.975,-0.069
5.976,-0.066
5.977,-0.066
5.978,-0.066
5.979,-0.066
5.980,-0.067
5.981,-0.066
5.982,-0.061
5.983,-0.050
5.984,-0.047
5.985,-0.047
5.986,-0.044
5.987,-0.041
5.988,-0.038
5.989,-0.038
5.990,-0.034
5.991,-0.028
5.992,-0.028
5.993,-0.028
5.994,-0.028
5.995,-0.028
5.996,-0.028
5.997,-0.028
5.998,-0.027
5.999,-0.025
6.000,-0.025
6.001,-0.025
6.002,-0.026
6.003,-0.025
6.004,-0.019
6.005,-0.013
6.006,-0.013
6.007,-0.013
6.008,-0.009
6.009,-0.006
6.010,0.003
6.011,0.013
6.012,0.019
6.013,0.028
6.014,0.036
6.015,0.044
6.016,0.046
6.017,0.047
6.018,0.051
6.019,0.059
6.020,0.061
6.021,0.066
6.022,0.073
6.023,0.081
6.024,0.076
6.025,0.078
6.026,0.076
6.027,0.075
6.028,0.073
6.029,0.069
6.030,0.066
6.031,0.063
6.032,0.058
6.033,0.053
6.034,0.052
6.035,0.044
6.036,0.038
6.037,0.038
6.038,0.036
6.039,0.041
6.040,0.038
6.041,0.038
6.042,0.034
6.043,0.022
6.044,0.022
6.045,0.022
6.046,0.019
6.047,0.016
6.048,0.016
6.049,0.009
6.050,0.008
6.051,0.000
6.052,-0.009
6.053,-0.016
6.054,-0.025
6.055,-0.031
6.056,-0.034
6.057,-0.044
6.058,-0.052
6.059,-0.050
6.060,-0.053
6.061,-0.059
6.062,-0.064
6.063,-0.075
6.064,-0.075
6.065,-0.075
6.066,-0.078
6.067,-0.078
6.068,-0.078
6.069,-0.084
6.070,-0.086
6.071,-0.088
6.072,-0.094
6.073,-0.097
6.074,-0.097
6.075,-0.103
6.076,-0.103
6.077,-0.103
6.078,-0.103
6.079,-0.103
6.080,-0.102
6.081,-0.100
6.082,-0.104
6.083,-0.106
6.084,-0.105
6.085,-0.103
6.086,-0.105
6.087,-0.103
6.088,-0.107
6.089,-0.109
6.090,-0.111
6.091,-0.112
6.092,-0.112
6.093,-0.112
6.094,-0.112
6.095,-0.112
6.096,-0.111
6.097,-0.106
6.098,-0.109
6.099,-0.109
6.100,-0.108
6.101,-0.109
6.102,-0.107
6.103,-0.109
6.104,-0.108
6.105,-0.106
6.106,-0.106
6.107,-0.106
6.108,-0.104
6.109,-0.109
6.110,-0.106
6.111,-0.109
6.112,-0.109
6.113,-0.109
6.114,-0.107
6.115,-0.109
6.116,-0.108
6.117,-0.109
6.118,-0.109
6.119,-0.109
6.120,-0.114
6.121,-0.119
6.122,-0.119
6.123,-0.119
6.124,-0.126
6.125,-0.131
6.126,-0.137
6.127,-0.141
6.128,-0.147
6.129,-0.156
6.130,-0.161
6.131,-0.166
6.132,-0.166
6.133,-0.166
6.134,-0.167
6.135,-0.162
6.136,-0.153
6.137,-0.144
6.138,-0.129
6.139,-0.116
6.140,-0.101
6.141,-0.088
6.142,-0.059
6.143,-0.028
6.144,0.003
6.145,0.034
6.146,0.071
6.147,0.109
6.148,0.158
6.149,0.209
6.150,0.266
6.151,0.328
6.152,0.396
6.153,0.466
6.154,0.531
6.155,0.591
6.156,0.636
6.157,0.681
6.158,0.722
6.159,0.769
6.160,0.817
6.161,0.866
6.162,0.914
6.163,0.953
6.164,0.996
6.165,1.031
6.166,1.058
6.167,1.091
6.168,1.125
6.169,1.153
6.170,1.162
6.171,1.159
6.172,1.125
6.173,1.091
6.174,1.059
6.175,1.031
6.176,0.983
6.177,0.916
6.178,0.836
6.179,0.719
6.180,0.571
6.181,0.422
6.182,0.278
6.183,0.172
6.184,0.083
6.185,0.009
6.186,-0.055
6.187,-0.109
6.188,-0.142
6.189,-0.162
6.190,-0.176
6.191,-0.187
6.192,-0.194
6.193,-0.203
6.194,-0.199
6.195,-0.194
6.196,-0.187
6.197,-0.184
6.198,-0.178
6.199,-0.172
6.200,-0.159
6.201,-0.150
6.202,-0.137
6.203,-0.131
6.204,-0.122
6.205,-0.116
6.206,-0.117
6.207,-0.116
6.208,-0.111
6.209,-0.103
6.210,-0.097
6.211,-0.091
6.212,-0.086
6.213,-0.088
6.214,-0.088
6.215,-0.091
6.216,-0.092
6.217,-0.097
6.218,-0.097
6.219,-0.100
6.220,-0.100
6.221,-0.100
6.222,-0.100
6.223,-0.100
6.224,-0.100
6.225,-0.097
6.226,-0.094
6.227,-0.094
6.228,-0.095
6.229,-0.097
6.230,-0.096
6.231,-0.094
6.232,-0.094
6.233,-0.094
6.234,-0.097
6.235,-0.097
6.236,-0.098
6.237,-0.100
6.238,-0.101
6.239,-0.100
6.240,-0.097
6.241,-0.097
6.242,-0.091
6.243,-0.088
6.244,-0.088
6.245,-0.088
6.246,-0.091
6.247,-0.091
6.248,-0.091
6.249,-0.091
6.250,-0.089
6.251,-0.091
6.252,-0.091
6.253,-0.094
6.254,-0.095
6.255,-0.094
6.256,-0.094
6.257,-0.094
6.258,-0.092
6.259,-0.088
6.260,-0.088
6.261,-0.088
6.262,-0.088
6.263,-0.084
6.264,-0.086
6.265,-0.088
6.266,-0.088
6.267,-0.088
6.268,-0.088
6.269,-0.088
6.270,-0.086
6.271,-0.088
6.272,-0.088
6.273,-0.088
6.274,-0.086
6.275,-0.084
6.276,-0.089
6.277,-0.091
6.278,-0.084
6.279,-0.081
6.280,-0.075
6.281,-0.075
6.282,-0.077
6.283,-0.072
6.284,-0.072
6.285,-0.072
6.286,-0.076
6.287,-0.081
6.288,-0.081
6.289,-0.081
6.290,-0.084
6.291,-0.081
6.292,-0.078
6.293,-0.075
6.294,-0.078
6.295,-0.075
6.296,-0.078
6.297,-0.078
6.298,-0.075
6.299,-0.072
6.300,-0.072
6.301,-0.072
6.302,-0.073
6.303,-0.078
6.304,-0.078
6.305,-0.078
6.306,-0.076
6.307,-0.081
6.308,-0.086
6.309,-0.088
6.310,-0.086
6.311,-0.081
6.312,-0.077
6.313,-0.075
6.314,-0.075
6.315,-0.075
6.316,-0.072
6.317,-0.072
6.318,-0.068
6.319,-0.069
6.320,-0.070
6.321,-0.072
6.322,-0.070
6.323,-0.072
6.324,-0.071
6.325,-0.072
6.326,-0.072
6.327,-0.072
6.328,-0.070
6.329,-0.072
6.330,-0.071
6.331,-0.072
6.332,-0.073
6.333,-0.075
6.334,-0.071
6.335,-0.069
6.336,-0.066
6.337,-0.063
6.338,-0.063
6.339,-0.063
6.340,-0.066
6.341,-0.066
6.342,-0.067
6.343,-0.066
6.344,-0.064
6.345,-0.059
6.346,-0.058
6.347,-0.056
6.348,-0.059
6.349,-0.056
6.350,-0.051
6.351,-0.053
6.352,-0.058
6.353,-0.059
6.354,-0.059
6.355,-0.059
6.356,-0.058
6.357,-0.056
6.358,-0.053
6.359,-0.050
6.360,-0.043
6.361,-0.041
6.362,-0.039
6.363,-0.044
6.364,-0.045
6.365,-0.044
6.366,-0.041
6.367,-0.041
6.368,-0.039
6.369,-0.038
6.370,-0.039
6.371,-0.038
6.372,-0.041
6.373,-0.038
6.374,-0.034
6.375,-0.034
6.376,-0.034
6.377,-0.038
6.378,-0.031
6.379,-0.028
6.380,-0.028
6.381,-0.028
6.382,-0.022
6.383,-0.016
6.384,-0.016
6.385,-0.016
6.386,-0.019
6.387,-0.019
6.388,-0.016
6.389,-0.016
6.390,-0.014
6.391,-0.013
6.392,-0.011
6.393,-0.009
6.394,-0.005
6.395,-0.003
6.396,-0.003
6.397,-0.003
6.398,0.000
6.399,0.003
6.400,0.002
6.401,0.003
6.402,0.004
6.403,0.009
6.404,0.011
6.405,0.013
6.406,0.019
6.407,0.019
6.408,0.019
6.409,0.019
6.410,0.022
6.411,0.025
6.412,0.027
6.413,0.028
6.414,0.029
6.415,0.034
6.416,0.036
6.417,0.041
6.418,0.043
6.419,0.044
6.420,0.041
6.421,0.041
6.422,0.044
6.423,0.044
6.424,0.046
6.425,0.044
6.426,0.046
6.427,0.047
6.428,0.046
6.429,0.047
6.430,0.051
6.431,0.053
6.432,0.053
6.433,0.059
6.434,0.058
6.435,0.059
6.436,0.061
6.437,0.063
6.438,0.067
6.439,0.075
6.440,0.071
6.441,0.072
6.442,0.076
6.443,0.078
6.444,0.078
6.445,0.078
6.446,0.078
6.447,0.078
6.448,0.077
6.449,0.078
6.450,0.080
6.451,0.081
6.452,0.081
6.453,0.081
6.454,0.083
6.455,0.081
6.456,0.084
6.457,0.084
6.458,0.084
6.459,0.084
6.460,0.084
6.461,0.084
6.462,0.091
6.463,0.094
6.464,0.094
6.465,0.091
6.466,0.089
6.467,0.091
6.468,0.095
6.469,0.100
6.470,0.099
6.471,0.100
6.472,0.101
6.473,0.103
6.474,0.105
6.475,0.106
6.476,0.106
6.477,0.106
6.478,0.106
6.479,0.109
6.480,0.111
6.481,0.109
6.482,0.111
6.483,0.109
6.484,0.116
6.485,0.119
6.486,0.119
6.487,0.119
6.488,0.122
6.489,0.128
6.490,0.130
6.491,0.128
6.492,0.129
6.493,0.131
6.494,0.138
6.495,0.141
6.496,0.141
6.497,0.141
6.498,0.141
6.499,0.141
6.500,0.143
6.501,0.141
6.502,0.141
6.503,0.141
6.504,0.148
6.505,0.153
6.506,0.152
6.507,0.150
6.508,0.150
6.509,0.144
6.510,0.143
6.511,0.141
6.512,0.148
6.513,0.150
6.514,0.152
6.515,0.147
6.516,0.146
6.517,0.147
6.518,0.150
6.519,0.153
6.520,0.152
6.521,0.147
6.522,0.141
6.523,0.138
6.524,0.136
6.525,0.134
6.526,0.134
6.527,0.134
6.528,0.133
6.529,0.134
6.530,0.133
6.531,0.134
6.532,0.128
6.533,0.125
6.534,0.125
6.535,0.122
6.536,0.117
6.537,0.116
6.538,0.117
6.539,0.113
6.540,0.103
6.541,0.097
6.542,0.091
6.543,0.088
6.544,0.086
6.545,0.084
6.546,0.084
6.547,0.084
6.548,0.080
6.549,0.072
6.550,0.069
6.551,0.069
6.552,0.063
6.553,0.056
6.554,0.053
6.555,0.050
6.556,0.050
6.557,0.053
6.558,0.048
6.559,0.047
6.560,0.046
6.561,0.038
6.562,0.034
6.563,0.028
6.564,0.026
6.565,0.025
6.566,0.019
6.567,0.013
6.568,0.013
6.569,0.013
6.570,0.011
6.571,0.013
6.572,0.008
6.573,0.006
6.574,0.006
6.575,0.006
6.576,-0.003
6.577,-0.006
6.578,-0.006
6.579,-0.006
6.580,-0.003
6.581,-0.003
6.582,-0.001
6.583,-0.006
6.584,-0.011
6.585,-0.019
6.586,-0.020
6.587,-0.025
6.588,-0.024
6.589,-0.019
6.590,-0.019
6.591,-0.019
6.592,-0.019
6.593,-0.022
6.594,-0.020
6.595,-0.022
6.596,-0.019
6.597,-0.019
6.598,-0.025
6.599,-0.025
6.600,-0.029
6.601,-0.031
6.602,-0.030
6.603,-0.031
6.604,-0.028
6.605,-0.031
6.606,-0.028
6.607,-0.031
6.608,-0.031
6.609,-0.031
6.610,-0.031
6.611,-0.031
6.612,-0.029
6.613,-0.031
6.614,-0.028
6.615,-0.028
6.616,-0.031
6.617,-0.031
6.618,-0.031
6.619,-0.034
6.620,-0.033
6.621,-0.031
6.622,-0.028
6.623,-0.031
6.624,-0.038
6.625,-0.038
6.626,-0.036
6.627,-0.034
6.628,-0.030
6.629,-0.031
6.630,-0.036
6.631,-0.038
6.632,-0.033
6.633,-0.031
6.634,-0.036
6.635,-0.034
6.636,-0.033
6.637,-0.034
6.638,-0.036
6.639,-0.038
6.640,-0.036
6.641,-0.038
6.642,-0.036
6.643,-0.031
6.644,-0.031
6.645,-0.031
6.646,-0.034
6.647,-0.034
6.648,-0.034
6.649,-0.034
6.650,-0.033
6.651,-0.034
6.652,-0.036
6.653,-0.038
6.654,-0.038
6.655,-0.038
6.656,-0.038
6.657,-0.038
6.658,-0.039
6.659,-0.041
6.660,-0.044
6.661,-0.047
6.662,-0.047
6.663,-0.047
6.664,-0.046
6.665,-0.044
6.666,-0.044
6.667,-0.044
6.668,-0.045
6.669,-0.047
6.670,-0.046
6.671,-0.047
6.672,-0.047
6.673,-0.047
6.674,-0.047
6.675,-0.047
6.676,-0.050
6.677,-0.053
6.678,-0.053
6.679,-0.050
6.680,-0.047
6.681,-0.047
6.682,-0.050
6.683,-0.050
6.684,-0.050
6.685,-0.050
6.686,-0.050
6.687,-0.050
6.688,-0.049
6.689,-0.047
6.690,-0.047
6.691,-0.047
6.692,-0.050
6.693,-0.050
6.694,-0.049
6.695,-0.050
6.696,-0.049
6.697,-0.050
6.698,-0.050
6.699,-0.050
6.700,-0.050
6.701,-0.050
6.702,-0.050
6.703,-0.053
6.704,-0.050
6.705,-0.050
6.706,-0.053
6.707,-0.053
6.708,-0.053
6.709,-0.053
6.710,-0.054
6.711,-0.056
6.712,-0.053
6.713,-0.050
6.714,-0.050
6.715,-0.050
6.716,-0.051
6.717,-0.053
6.718,-0.052
6.719,-0.053
6.720,-0.053
6.721,-0.050
6.722,-0.053
6.723,-0.056
6.724,-0.059
6.725,-0.063
6.726,-0.059
6.727,-0.056
6.728,-0.056
6.729,-0.056
6.730,-0.056
6.731,-0.059
6.732,-0.061
6.733,-0.063
6.734,-0.063
6.735,-0.063
6.736,-0.059
6.737,-0.056
6.738,-0.056
6.739,-0.056
6.740,-0.056
6.741,-0.056
6.742,-0.058
6.743,-0.063
6.744,-0.058
6.745,-0.059
6.746,-0.063
6.747,-0.063
6.748,-0.059
6.749,-0.066
6.750,-0.067
6.751,-0.066
6.752,-0.066
6.753,-0.066
6.754,-0.064
6.755,-0.066
6.756,-0.066
6.757,-0.066
6.758,-0.066
6.759,-0.066
6.760,-0.066
6.761,-0.066
6.762,-0.066
6.763,-0.066
6.764,-0.064
6.765,-0.066
6.766,-0.069
6.767,-0.069
6.768,-0.067
6.769,-0.072
6.770,-0.073
6.771,-0.075
6.772,-0.072
6.773,-0.072
6.774,-0.074
6.775,-0.072
6.776,-0.073
6.777,-0.072
6.778,-0.072
6.779,-0.075
6.780,-0.079
6.781,-0.081
6.782,-0.081
6.783,-0.081
6.784,-0.081
6.785,-0.078
6.786,-0.077
6.787,-0.075
6.788,-0.078
6.789,-0.075
6.790,-0.077
6.791,-0.075
6.792,-0.078
6.793,-0.078
6.794,-0.076
6.795,-0.078
6.796,-0.077
6.797,-0.078
6.798,-0.079
6.799,-0.081
6.800,-0.081
6.801,-0.081
6.802,-0.080
6.803,-0.078
6.804,-0.075
6.805,-0.075
6.806,-0.072
6.807,-0.072
6.808,-0.072
6.809,-0.075
6.810,-0.076
6.811,-0.081
6.812,-0.083
6.813,-0.084
6.814,-0.083
6.815,-0.081
6.816,-0.078
6.817,-0.081
6.818,-0.083
6.819,-0.088
6.820,-0.086
6.821,-0.088
6.822,-0.086
6.823,-0.084
6.824,-0.084
6.825,-0.081
6.826,-0.081
6.827,-0.078
6.828,-0.079
6.829,-0.081
6.830,-0.078
6.831,-0.075
6.832,-0.076
6.833,-0.078
6.834,-0.079
6.835,-0.084
6.836,-0.083
6.837,-0.088
6.838,-0.086
6.839,-0.084
6.840,-0.089
6.841,-0.088
6.842,-0.088
6.843,-0.088
6.844,-0.088
6.845,-0.088
6.846,-0.088
6.847,-0.088
6.848,-0.086
6.849,-0.081
6.850,-0.080
6.851,-0.081
6.852,-0.084
6.853,-0.088
6.854,-0.086
6.855,-0.084
6.856,-0.081
6.857,-0.081
6.858,-0.083
6.859,-0.084
6.860,-0.084
6.861,-0.084
6.862,-0.084
6.863,-0.084
6.864,-0.084
6.865,-0.084
6.866,-0.084
6.867,-0.084
6.868,-0.084
6.869,-0.084
6.870,-0.088
6.871,-0.084
6.872,-0.089
6.873,-0.091
6.874,-0.086
6.875,-0.081
6.876,-0.077
6.877,-0.072
6.878,-0.071
6.879,-0.072
6.880,-0.072
6.881,-0.072
6.882,-0.073
6.883,-0.075
6.884,-0.074
6.885,-0.072
6.886,-0.075
6.887,-0.075
6.888,-0.073
6.889,-0.075
6.890,-0.076
6.891,-0.081
6.892,-0.080
6.893,-0.078
6.894,-0.080
6.895,-0.081
6.896,-0.083
6.897,-0.084
6.898,-0.081
6.899,-0.081
6.900,-0.084
6.901,-0.084
6.902,-0.086
6.903,-0.088
6.904,-0.084
6.905,-0.081
6.906,-0.081
6.907,-0.081
6.908,-0.081
6.909,-0.081
6.910,-0.081
6.911,-0.081
6.912,-0.078
6.913,-0.081
6.914,-0.083
6.915,-0.084
6.916,-0.081
6.917,-0.075
6.918,-0.076
6.919,-0.078
6.920,-0.079
6.921,-0.081
6.922,-0.083
6.923,-0.081
6.924,-0.080
6.925,-0.078
6.926,-0.074
6.927,-0.072
6.928,-0.071
6.929,-0.066
6.930,-0.069
6.931,-0.063
6.932,-0.056
6.933,-0.053
6.934,-0.052
6.935,-0.050
6.936,-0.051
6.937,-0.050
6.938,-0.047
6.939,-0.050
6.940,-0.044
6.941,-0.041
6.942,-0.041
6.943,-0.038
6.944,-0.033
6.945,-0.028
6.946,-0.031
6.947,-0.031
6.948,-0.029
6.949,-0.034
6.950,-0.036
6.951,-0.038
6.952,-0.034
6.953,-0.031
6.954,-0.031
6.955,-0.031
6.956,-0.030
6.957,-0.028
6.958,-0.028
6.959,-0.028
6.960,-0.025
6.961,-0.022
6.962,-0.019
6.963,-0.016
6.964,-0.009
6.965,0.000
6.966,0.005
6.967,0.013
6.968,0.016
6.969,0.019
6.970,0.031
6.971,0.034
6.972,0.039
6.973,0.044
6.974,0.047
6.975,0.050
6.976,0.063
6.977,0.072
6.978,0.075
6.979,0.078
6.980,0.083
6.981,0.075
6.982,0.074
6.983,0.069
6.984,0.064
6.985,0.059
6.986,0.052
6.987,0.047
6.988,0.045
6.989,0.044
6.990,0.036
6.991,0.031
6.992,0.029
6.993,0.028
6.994,0.027
6.995,0.022
6.996,0.022
6.997,0.016
6.998,0.014
6.999,0.016
7.000,0.011
7.001,0.009
7.002,0.009
7.003,0.009
7.004,0.006
7.005,0.006
7.006,-0.001
7.007,-0.006
7.008,-0.016
7.009,-0.022
7.010,-0.024
7.011,-0.031
7.012,-0.038
7.013,-0.044
7.014,-0.056
7.015,-0.066
7.016,-0.064
7.017,-0.066
7.018,-0.072
7.019,-0.072
7.020,-0.078
7.021,-0.081
7.022,-0.083
7.023,-0.084
7.024,-0.084
7.025,-0.084
7.026,-0.088
7.027,-0.088
7.028,-0.089
7.029,-0.091
7.030,-0.092
7.031,-0.094
7.032,-0.099
7.033,-0.097
7.034,-0.098
7.035,-0.100
7.036,-0.101
7.037,-0.103
7.038,-0.102
7.039,-0.103
7.040,-0.103
7.041,-0.103
7.042,-0.103
7.043,-0.106
7.044,-0.106
7.045,-0.109
7.046,-0.109
7.047,-0.109
7.048,-0.109
7.049,-0.109
7.050,-0.109
7.051,-0.109
7.052,-0.109
7.053,-0.109
7.054,-0.106
7.055,-0.109
7.056,-0.114
7.057,-0.119
7.058,-0.122
7.059,-0.119
7.060,-0.117
7.061,-0.116
7.062,-0.116
7.063,-0.116
7.064,-0.116
7.065,-0.112
7.066,-0.114
7.067,-0.109
7.068,-0.112
7.069,-0.112
7.070,-0.116
7.071,-0.116
7.072,-0.114
7.073,-0.112
7.074,-0.116
7.075,-0.116
7.076,-0.112
7.077,-0.112
7.078,-0.116
7.079,-0.119
7.080,-0.121
7.081,-0.125
7.082,-0.128
7.083,-0.134
7.084,-0.137
7.085,-0.144
7.086,-0.150
7.087,-0.153
7.088,-0.156
7.089,-0.156
7.090,-0.161
7.091,-0.166
7.092,-0.169
7.093,-0.166
7.094,-0.157
7.095,-0.144
7.096,-0.131
7.097,-0.119
7.098,-0.102
7.099,-0.075
7.100,-0.041
7.101,-0.003
7.102,0.027
7.103,0.063
7.104,0.102
7.105,0.153
7.106,0.208
7.107,0.266
7.108,0.328
7.109,0.394
7.110,0.467
7.111,0.534
7.112,0.598
7.113,0.650
7.114,0.697
7.115,0.738
7.116,0.783
7.117,0.828
7.118,0.872
7.119,0.922
7.120,0.963
7.121,1.003
7.122,1.039
7.123,1.066
7.124,1.097
7.125,1.125
7.126,1.153
7.127,1.162
7.128,1.157
7.129,1.125
7.130,1.089
7.131,1.056
7.132,1.029
7.133,0.975
7.134,0.911
7.135,0.831
7.136,0.714
7.137,0.578
7.138,0.428
7.139,0.288
7.140,0.178
7.141,0.084
7.142,0.014
7.143,-0.056
7.144,-0.116
7.145,-0.150
7.146,-0.175
7.147,-0.187
7.148,-0.194
7.149,-0.197
7.150,-0.203
7.151,-0.200
7.152,-0.196
7.153,-0.187
7.154,-0.177
7.155,-0.166
7.156,-0.162
7.157,-0.150
7.158,-0.142
7.159,-0.131
7.160,-0.128
7.161,-0.125
7.162,-0.121
7.163,-0.112
7.164,-0.106
7.165,-0.106
7.166,-0.097
7.167,-0.091
7.168,-0.092
7.169,-0.091
7.170,-0.088
7.171,-0.084
7.172,-0.086
7.173,-0.084
7.174,-0.086
7.175,-0.084
7.176,-0.089
7.177,-0.091
7.178,-0.094
7.179,-0.097
7.180,-0.097
7.181,-0.097
7.182,-0.095
7.183,-0.094
7.184,-0.094
7.185,-0.094
7.186,-0.091
7.187,-0.088
7.188,-0.088
7.189,-0.088
7.190,-0.088
7.191,-0.094
7.192,-0.098
7.193,-0.100
7.194,-0.100
7.195,-0.100
7.196,-0.097
7.197,-0.094
7.198,-0.095
7.199,-0.094
7.200,-0.092
7.201,-0.091
7.202,-0.091
7.203,-0.091
7.204,-0.088
7.205,-0.088
7.206,-0.088
7.207,-0.088
7.208,-0.089
7.209,-0.088
7.210,-0.091
7.211,-0.091
7.212,-0.089
7.213,-0.091
7.214,-0.091
7.215,-0.091
7.216,-0.088
7.217,-0.088
7.218,-0.086
7.219,-0.084
7.220,-0.077
7.221,-0.072
7.222,-0.075
7.223,-0.078
7.224,-0.083
7.225,-0.088
7.226,-0.088
7.227,-0.088
7.228,-0.091
7.229,-0.088
7.230,-0.083
7.231,-0.081
7.232,-0.080
7.233,-0.081
7.234,-0.080
7.235,-0.075
7.236,-0.075
7.237,-0.072
7.238,-0.074
7.239,-0.075
7.240,-0.075
7.241,-0.078
7.242,-0.079
7.243,-0.081
7.244,-0.078
7.245,-0.075
7.246,-0.076
7.247,-0.081
7.248,-0.081
7.249,-0.081
7.250,-0.078
7.251,-0.081
7.252,-0.077
7.253,-0.078
7.254,-0.078
7.255,-0.078
7.256,-0.079
7.257,-0.081
7.258,-0.081
7.259,-0.081
7.260,-0.080
7.261,-0.075
7.262,-0.076
7.263,-0.075
7.264,-0.078
7.265,-0.078
7.266,-0.076
7.267,-0.078
7.268,-0.078
7.269,-0.081
7.270,-0.084
7.271,-0.084
7.272,-0.084
7.273,-0.081
7.274,-0.081
7.275,-0.078
7.276,-0.081
7.277,-0.081
7.278,-0.078
7.279,-0.072
7.280,-0.071
7.281,-0.069
7.282,-0.073
7.283,-0.075
7.284,-0.076
7.285,-0.075
7.286,-0.074
7.287,-0.072
7.288,-0.072
7.289,-0.069
7.290,-0.070
7.291,-0.069
7.292,-0.069
7.293,-0.069
7.294,-0.070
7.295,-0.072
7.296,-0.072
7.297,-0.072
7.298,-0.070
7.299,-0.072
7.300,-0.069
7.301,-0.069
7.302,-0.066
7.303,-0.066
7.304,-0.064
7.305,-0.066
7.306,-0.063
7.307,-0.056
7.308,-0.055
7.309,-0.056
7.310,-0.058
7.311,-0.059
7.312,-0.059
7.313,-0.056
7.314,-0.052
7.315,-0.050
7.316,-0.053
7.317,-0.050
7.318,-0.047
7.319,-0.041
7.320,-0.045
7.321,-0.047
7.322,-0.041
7.323,-0.034
7.324,-0.033
7.325,-0.031
7.326,-0.033
7.327,-0.034
7.328,-0.031
7.329,-0.034
7.330,-0.034
7.331,-0.034
7.332,-0.034
7.333,-0.034
7.334,-0.036
7.335,-0.028
7.336,-0.022
7.337,-0.019
7.338,-0.020
7.339,-0.019
7.340,-0.019
7.341,-0.022
7.342,-0.019
7.343,-0.016
7.344,-0.013
7.345,-0.009
7.346,-0.009
7.347,-0.009
7.348,-0.013
7.349,-0.013
7.350,-0.011
7.351,-0.009
7.352,-0.008
7.353,-0.003
7.354,-0.001
7.355,-0.003
7.356,-0.002
7.357,0.000
7.358,0.004
7.359,0.006
7.360,0.009
7.361,0.009
7.362,0.006
7.363,0.009
7.364,0.013
7.365,0.019
7.366,0.023
7.367,0.025
7.368,0.024
7.369,0.025
7.370,0.028
7.371,0.028
7.372,0.034
7.373,0.038
7.374,0.041
7.375,0.044
7.376,0.048
7.377,0.047
7.378,0.046
7.379,0.047
7.380,0.047
7.381,0.050
7.382,0.054
7.383,0.063
7.384,0.066
7.385,0.066
7.386,0.068
7.387,0.069
7.388,0.068
7.389,0.066
7.390,0.072
7.391,0.069
7.392,0.070
7.393,0.075
7.394,0.078
7.395,0.078
7.396,0.083
7.397,0.081
7.398,0.081
7.399,0.081
7.400,0.080
7.401,0.078
7.402,0.081
7.403,0.084
7.404,0.088
7.405,0.091
7.406,0.093
7.407,0.094
7.408,0.096
7.409,0.094
7.410,0.095
7.411,0.100
7.412,0.099
7.413,0.100
7.414,0.100
7.415,0.100
7.416,0.100
7.417,0.100
7.418,0.100
7.419,0.103
7.420,0.104
7.421,0.109
7.422,0.109
7.423,0.106
7.424,0.105
7.425,0.103
7.426,0.103
7.427,0.103
7.428,0.106
7.429,0.106
7.430,0.108
7.431,0.113
7.432,0.116
7.433,0.116
7.434,0.117
7.435,0.119
7.436,0.121
7.437,0.122
7.438,0.122
7.439,0.125
7.440,0.128
7.441,0.134
7.442,0.133
7.443,0.131
7.444,0.131
7.445,0.134
7.446,0.138
7.447,0.138
7.448,0.138
7.449,0.138
7.450,0.136
7.451,0.138
7.452,0.142
7.453,0.147
7.454,0.148
7.455,0.153
7.456,0.155
7.457,0.156
7.458,0.157
7.459,0.159
7.460,0.158
7.461,0.159
7.462,0.166
7.463,0.172
7.464,0.169
7.465,0.169
7.466,0.162
7.467,0.159
7.468,0.158
7.469,0.159
7.470,0.156
7.471,0.159
7.472,0.156
7.473,0.156
7.474,0.159
7.475,0.159
7.476,0.159
7.477,0.159
7.478,0.155
7.479,0.150
7.480,0.147
7.481,0.144
7.482,0.145
7.483,0.147
7.484,0.151
7.485,0.150
7.486,0.147
7.487,0.144
7.488,0.143
7.489,0.138
7.490,0.133
7.491,0.128
7.492,0.125
7.493,0.119
7.494,0.114
7.495,0.113
7.496,0.113
7.497,0.113
7.498,0.106
7.499,0.100
7.500,0.097
7.501,0.091
7.502,0.091
7.503,0.091
7.504,0.086
7.505,0.081
7.506,0.075
7.507,0.072
7.508,0.071
7.509,0.066
7.510,0.064
7.511,0.063
7.512,0.061
7.513,0.059
7.514,0.056
7.515,0.047
7.516,0.041
7.517,0.038
7.518,0.031
7.519,0.031
7.520,0.031
7.521,0.031
7.522,0.028
7.523,0.025
7.524,0.021
7.525,0.016
7.526,0.011
7.527,0.006
7.528,0.008
7.529,0.006
7.530,0.006
7.531,0.003
7.532,0.001
7.533,0.000
7.534,0.002
7.535,-0.003
7.536,-0.006
7.537,-0.006
7.538,-0.009
7.539,-0.006
7.540,-0.011
7.541,-0.013
7.542,-0.014
7.543,-0.013
7.544,-0.016
7.545,-0.016
7.546,-0.011
7.547,-0.013
7.548,-0.014
7.549,-0.013
7.550,-0.017
7.551,-0.016
7.552,-0.014
7.553,-0.013
7.554,-0.017
7.555,-0.022
7.556,-0.022
7.557,-0.028
7.558,-0.028
7.559,-0.028
7.560,-0.030
7.561,-0.025
7.562,-0.028
7.563,-0.025
7.564,-0.028
7.565,-0.028
7.566,-0.028
7.567,-0.028
7.568,-0.029
7.569,-0.028
7.570,-0.029
7.571,-0.028
7.572,-0.029
7.573,-0.034
7.574,-0.034
7.575,-0.034
7.576,-0.038
7.577,-0.038
7.578,-0.031
7.579,-0.022
7.580,-0.025
7.581,-0.028
7.582,-0.028
7.583,-0.031
7.584,-0.031
7.585,-0.028
7.586,-0.030
7.587,-0.031
7.588,-0.034
7.589,-0.034
7.590,-0.034
7.591,-0.038
7.592,-0.034
7.593,-0.034
7.594,-0.034
7.595,-0.031
7.596,-0.031
7.597,-0.031
7.598,-0.036
7.599,-0.038
7.600,-0.036
7.601,-0.038
7.602,-0.036
7.603,-0.038
7.604,-0.036
7.605,-0.034
7.606,-0.034
7.607,-0.034
7.608,-0.041
7.609,-0.044
7.610,-0.043
7.611,-0.041
7.612,-0.042
7.613,-0.044
7.614,-0.044
7.615,-0.044
7.616,-0.044
7.617,-0.044
7.618,-0.044
7.619,-0.044
7.620,-0.039
7.621,-0.034
7.622,-0.034
7.623,-0.034
7.624,-0.039
7.625,-0.044
7.626,-0.045
7.627,-0.047
7.628,-0.050
7.629,-0.050
7.630,-0.050
7.631,-0.050
7.632,-0.049
7.633,-0.050
7.634,-0.053
7.635,-0.053
7.636,-0.049
7.637,-0.044
7.638,-0.043
7.639,-0.044
7.640,-0.047
7.641,-0.050
7.642,-0.051
7.643,-0.053
7.644,-0.053
7.645,-0.053
7.646,-0.052
7.647,-0.050
7.648,-0.050
7.649,-0.050
7.650,-0.047
7.651,-0.047
7.652,-0.051
7.653,-0.053
7.654,-0.056
7.655,-0.056
7.656,-0.056
7.657,-0.056
7.658,-0.055
7.659,-0.053
7.660,-0.056
7.661,-0.053
7.662,-0.054
7.663,-0.059
7.664,-0.061
7.665,-0.063
7.666,-0.063
7.667,-0.063
7.668,-0.063
7.669,-0.063
7.670,-0.061
7.671,-0.059
7.672,-0.059
7.673,-0.059
7.674,-0.059
7.675,-0.059
7.676,-0.061
7.677,-0.059
7.678,-0.056
7.679,-0.056
7.680,-0.056
7.681,-0.059
7.682,-0.063
7.683,-0.063
7.684,-0.061
7.685,-0.059
7.686,-0.061
7.687,-0.063
7.688,-0.067
7.689,-0.069
7.690,-0.069
7.691,-0.069
7.692,-0.069
7.693,-0.069
7.694,-0.069
7.695,-0.069
7.696,-0.068
7.697,-0.066
7.698,-0.066
7.699,-0.066
7.700,-0.070
7.701,-0.066
7.702,-0.064
7.703,-0.066
7.704,-0.066
7.705,-0.063
7.706,-0.069
7.707,-0.069
7.708,-0.067
7.709,-0.069
7.710,-0.069
7.711,-0.069
7.712,-0.072
7.713,-0.072
7.714,-0.072
7.715,-0.072
7.716,-0.072
7.717,-0.072
7.718,-0.071
7.719,-0.069
7.720,-0.068
7.721,-0.066
7.722,-0.068
7.723,-0.069
7.724,-0.070
7.725,-0.069
7.726,-0.072
7.727,-0.072
7.728,-0.073
7.729,-0.072
7.730,-0.071
7.731,-0.072
7.732,-0.072
7.733,-0.072
7.734,-0.072
7.735,-0.075
7.736,-0.081
7.737,-0.084
7.738,-0.078
7.739,-0.078
7.740,-0.080
7.741,-0.078
7.742,-0.076
7.743,-0.078
7.744,-0.077
7.745,-0.078
7.746,-0.075
7.747,-0.078
7.748,-0.075
7.749,-0.075
7.750,-0.078
7.751,-0.078
7.752,-0.077
7.753,-0.075
7.754,-0.079
7.755,-0.081
7.756,-0.081
7.757,-0.081
7.758,-0.077
7.759,-0.072
7.760,-0.073
7.761,-0.072
7.762,-0.072
7.763,-0.069
7.764,-0.069
7.765,-0.069
7.766,-0.078
7.767,-0.084
7.768,-0.086
7.769,-0.084
7.770,-0.086
7.771,-0.088
7.772,-0.089
7.773,-0.088
7.774,-0.091
7.775,-0.091
7.776,-0.094
7.777,-0.091
7.778,-0.091
7.779,-0.091
7.780,-0.089
7.781,-0.091
7.782,-0.089
7.783,-0.088
7.784,-0.086
7.785,-0.088
7.786,-0.088
7.787,-0.088
7.788,-0.084
7.789,-0.081
7.790,-0.083
7.791,-0.084
7.792,-0.089
7.793,-0.088
7.794,-0.089
7.795,-0.088
7.796,-0.088
7.797,-0.091
7.798,-0.088
7.799,-0.088
7.800,-0.089
7.801,-0.091
7.802,-0.094
7.803,-0.097
7.804,-0.097
7.805,-0.097
7.806,-0.094
7.807,-0.094
7.808,-0.096
7.809,-0.094
7.810,-0.094
7.811,-0.094
7.812,-0.094
7.813,-0.091
7.814,-0.091
7.815,-0.091
7.816,-0.091
7.817,-0.091
7.818,-0.091
7.819,-0.091
7.820,-0.088
7.821,-0.084
7.822,-0.084
7.823,-0.084
7.824,-0.088
7.825,-0.091
7.826,-0.091
7.827,-0.091
7.828,-0.092
7.829,-0.094
7.830,-0.092
7.831,-0.091
7.832,-0.086
7.833,-0.088
7.834,-0.089
7.835,-0.088
7.836,-0.086
7.837,-0.088
7.838,-0.088
7.839,-0.088
7.840,-0.089
7.841,-0.088
7.842,-0.088
7.843,-0.088
7.844,-0.088
7.845,-0.088
7.846,-0.088
7.847,-0.091
7.848,-0.092
7.849,-0.091
7.850,-0.091
7.851,-0.088
7.852,-0.084
7.853,-0.081
7.854,-0.080
7.855,-0.081
7.856,-0.086
7.857,-0.088
7.858,-0.091
7.859,-0.091
7.860,-0.092
7.861,-0.097
7.862,-0.096
7.863,-0.094
7.864,-0.094
7.865,-0.094
7.866,-0.094
7.867,-0.094
7.868,-0.092
7.869,-0.091
7.870,-0.089
7.871,-0.088
7.872,-0.088
7.873,-0.084
7.874,-0.088
7.875,-0.088
7.876,-0.088
7.877,-0.088
7.878,-0.083
7.879,-0.081
7.880,-0.081
7.881,-0.081
7.882,-0.080
7.883,-0.081
7.884,-0.075
7.885,-0.069
7.886,-0.072
7.887,-0.072
7.888,-0.073
7.889,-0.075
7.890,-0.072
7.891,-0.075
7.892,-0.072
7.893,-0.069
7.894,-0.066
7.895,-0.066
7.896,-0.069
7.897,-0.072
7.898,-0.072
7.899,-0.069
7.900,-0.068
7.901,-0.059
7.902,-0.055
7.903,-0.053
7.904,-0.049
7.905,-0.044
7.906,-0.041
7.907,-0.041
7.908,-0.044
7.909,-0.044
7.910,-0.044
7.911,-0.044
7.912,-0.043
7.913,-0.041
7.914,-0.041
7.915,-0.041
7.916,-0.041
7.917,-0.041
7.918,-0.041
7.919,-0.041
7.920,-0.038
7.921,-0.031
7.922,-0.027
7.923,-0.022
7.924,-0.019
7.925,-0.016
7.926,-0.009
7.927,-0.003
7.928,0.005
7.929,0.013
7.930,0.016
7.931,0.022
7.932,0.028
7.933,0.034
7.934,0.041
7.935,0.047
7.936,0.050
7.937,0.056
7.938,0.056
7.939,0.059
7.940,0.063
7.941,0.066
7.942,0.063
7.943,0.066
7.944,0.064
7.945,0.063
7.946,0.058
7.947,0.050
7.948,0.043
7.949,0.034
7.950,0.033
7.951,0.031
7.952,0.036
7.953,0.034
7.954,0.028
7.955,0.028
7.956,0.024
7.957,0.025
7.958,0.022
7.959,0.022
7.960,0.024
7.961,0.016
7.962,0.016
7.963,0.016
7.964,0.011
7.965,0.006
7.966,0.003
7.967,-0.006
7.968,-0.005
7.969,-0.009
7.970,-0.020
7.971,-0.028
7.972,-0.041
7.973,-0.050
7.974,-0.052
7.975,-0.059
7.976,-0.064
7.977,-0.059
7.978,-0.059
7.979,-0.063
7.980,-0.061
7.981,-0.066
7.982,-0.072
7.983,-0.078
7.984,-0.081
7.985,-0.081
7.986,-0.078
7.987,-0.081
7.988,-0.089
7.989,-0.097
7.990,-0.103
7.991,-0.106
7.992,-0.103
7.993,-0.106
7.994,-0.105
7.995,-0.103
7.996,-0.103
7.997,-0.103
7.998,-0.103
7.999,-0.103
8.000,-0.105
8.001,-0.103
8.002,-0.107
8.003,-0.112
8.004,-0.114
8.005,-0.112
8.006,-0.114
8.007,-0.112
8.008,-0.114
8.009,-0.116
8.010,-0.114
8.011,-0.112
8.012,-0.111
8.013,-0.109
8.014,-0.111
8.015,-0.109
8.016,-0.111
8.017,-0.109
8.018,-0.109
8.019,-0.112
8.020,-0.111
8.021,-0.112
8.022,-0.114
8.023,-0.116
8.024,-0.112
8.025,-0.109
8.026,-0.106
8.027,-0.109
8.028,-0.106
8.029,-0.109
8.030,-0.111
8.031,-0.112
8.032,-0.106
8.033,-0.103
8.034,-0.103
8.035,-0.106
8.036,-0.106
8.037,-0.106
8.038,-0.112
8.039,-0.119
8.040,-0.122
8.041,-0.125
8.042,-0.130
8.043,-0.131
8.044,-0.139
8.045,-0.144
8.046,-0.149
8.047,-0.156
8.048,-0.161
8.049,-0.166
8.050,-0.170
8.051,-0.175
8.052,-0.181
8.053,-0.181
8.054,-0.173
8.055,-0.166
8.056,-0.150
8.057,-0.134
8.058,-0.122
8.059,-0.109
8.060,-0.083
8.061,-0.053
8.062,-0.025
8.063,0.003
8.064,0.044
8.065,0.088
8.066,0.144
8.067,0.203
8.068,0.264
8.069,0.331
8.070,0.397
8.071,0.466
8.072,0.533
8.073,0.594
8.074,0.644
8.075,0.694
8.076,0.738
8.077,0.788
8.078,0.838
8.079,0.887
8.080,0.944
8.081,0.991
8.082,1.031
8.083,1.066
8.084,1.098
8.085,1.137
8.086,1.172
8.087,1.200
8.088,1.206
8.089,1.200
8.090,1.167
8.091,1.134
8.092,1.094
8.093,1.056
8.094,0.994
8.095,0.912
8.096,0.818
8.097,0.684
8.098,0.539
8.099,0.394
8.100,0.263
8.101,0.169
8.102,0.084
8.103,0.016
8.104,-0.052
8.105,-0.109
8.106,-0.145
8.107,-0.169
8.108,-0.181
8.109,-0.191
8.110,-0.195
8.111,-0.203
8.112,-0.204
8.113,-0.206
8.114,-0.200
8.115,-0.197
8.116,-0.192
8.117,-0.187
8.118,-0.172
8.119,-0.159
8.120,-0.146
8.121,-0.137
8.122,-0.131
8.123,-0.128
8.124,-0.122
8.125,-0.112
8.126,-0.111
8.127,-0.106
8.128,-0.104
8.129,-0.103
8.130,-0.096
8.131,-0.094
8.132,-0.091
8.133,-0.091
8.134,-0.089
8.135,-0.091
8.136,-0.092
8.137,-0.097
8.138,-0.098
8.139,-0.100
8.140,-0.100
8.141,-0.100
8.142,-0.100
8.143,-0.097
8.144,-0.095
8.145,-0.097
8.146,-0.096
8.147,-0.094
8.148,-0.092
8.149,-0.091
8.150,-0.092
8.151,-0.094
8.152,-0.099
8.153,-0.100
8.154,-0.099
8.155,-0.097
8.156,-0.097
8.157,-0.094
8.158,-0.092
8.159,-0.094
8.160,-0.094
8.161,-0.097
8.162,-0.098
8.163,-0.100
8.164,-0.100
8.165,-0.097
8.166,-0.091
8.167,-0.084
8.168,-0.086
8.169,-0.091
8.170,-0.092
8.171,-0.097
8.172,-0.097
8.173,-0.094
8.174,-0.091
8.175,-0.088
8.176,-0.086
8.177,-0.081
8.178,-0.081
8.179,-0.081
8.180,-0.084
8.181,-0.084
8.182,-0.084
8.183,-0.084
8.184,-0.084
8.185,-0.084
8.186,-0.086
8.187,-0.088
8.188,-0.088
8.189,-0.091
8.190,-0.089
8.191,-0.088
8.192,-0.088
8.193,-0.088
8.194,-0.091
8.195,-0.091
8.196,-0.088
8.197,-0.088
8.198,-0.084
8.199,-0.088
8.200,-0.092
8.201,-0.091
8.202,-0.089
8.203,-0.088
8.204,-0.089
8.205,-0.091
8.206,-0.089
8.207,-0.088
8.208,-0.092
8.209,-0.091
8.210,-0.089
8.211,-0.088
8.212,-0.089
8.213,-0.084
8.214,-0.083
8.215,-0.078
8.216,-0.078
8.217,-0.078
8.218,-0.081
8.219,-0.084
8.220,-0.083
8.221,-0.084
8.222,-0.083
8.223,-0.081
8.224,-0.078
8.225,-0.081
8.226,-0.084
8.227,-0.084
8.228,-0.080
8.229,-0.072
8.230,-0.069
8.231,-0.069
8.232,-0.073
8.233,-0.078
8.234,-0.078
8.235,-0.081
8.236,-0.075
8.237,-0.075
8.238,-0.072
8.239,-0.069
8.240,-0.067
8.241,-0.069
8.242,-0.069
8.243,-0.072
8.244,-0.073
8.245,-0.075
8.246,-0.069
8.247,-0.066
8.248,-0.064
8.249,-0.066
8.250,-0.072
8.251,-0.078
8.252,-0.076
8.253,-0.078
8.254,-0.077
8.255,-0.075
8.256,-0.075
8.257,-0.075
8.258,-0.074
8.259,-0.069
8.260,-0.070
8.261,-0.069
8.262,-0.070
8.263,-0.069
8.264,-0.070
8.265,-0.072
8.266,-0.075
8.267,-0.072
8.268,-0.066
8.269,-0.066
8.270,-0.066
8.271,-0.063
8.272,-0.061
8.273,-0.059
8.274,-0.059
8.275,-0.059
8.276,-0.058
8.277,-0.056
8.278,-0.047
8.279,-0.044
8.280,-0.041
8.281,-0.044
8.282,-0.045
8.283,-0.044
8.284,-0.042
8.285,-0.044
8.286,-0.038
8.287,-0.031
8.288,-0.033
8.289,-0.031
8.290,-0.036
8.291,-0.034
8.292,-0.031
8.293,-0.031
8.294,-0.031
8.295,-0.034
8.296,-0.031
8.297,-0.031
8.298,-0.031
8.299,-0.031
8.300,-0.024
8.301,-0.016
8.302,-0.016
8.303,-0.016
8.304,-0.019
8.305,-0.019
8.306,-0.016
8.307,-0.016
8.308,-0.016
8.309,-0.016
8.310,-0.016
8.311,-0.016
8.312,-0.013
8.313,-0.013
8.314,-0.011
8.315,-0.009
8.316,-0.003
8.317,0.003
8.318,0.002
8.319,0.003
8.320,0.003
8.321,0.006
8.322,0.009
8.323,0.013
8.324,0.020
8.325,0.022
8.326,0.024
8.327,0.025
8.328,0.024
8.329,0.022
8.330,0.022
8.331,0.022
8.332,0.021
8.333,0.022
8.334,0.021
8.335,0.022
8.336,0.025
8.337,0.028
8.338,0.026
8.339,0.028
8.340,0.031
8.341,0.031
8.342,0.036
8.343,0.038
8.344,0.041
8.345,0.044
8.346,0.044
8.347,0.047
8.348,0.049
8.349,0.047
8.350,0.046
8.351,0.050
8.352,0.048
8.353,0.050
8.354,0.056
8.355,0.063
8.356,0.063
8.357,0.066
8.358,0.059
8.359,0.059
8.360,0.064
8.361,0.066
8.362,0.066
8.363,0.066
8.364,0.067
8.365,0.069
8.366,0.070
8.367,0.075
8.368,0.077
8.369,0.078
8.370,0.078
8.371,0.078
8.372,0.080
8.373,0.078
8.374,0.080
8.375,0.078
8.376,0.079
8.377,0.081
8.378,0.081
8.379,0.081
8.380,0.084
8.381,0.084
8.382,0.088
8.383,0.088
8.384,0.084
8.385,0.084
8.386,0.084
8.387,0.084
8.388,0.083
8.389,0.084
8.390,0.086
8.391,0.088
8.392,0.091
8.393,0.094
8.394,0.093
8.395,0.091
8.396,0.091
8.397,0.094
8.398,0.096
8.399,0.094
8.400,0.096
8.401,0.094
8.402,0.096
8.403,0.094
8.404,0.094
8.405,0.094
8.406,0.097
8.407,0.103
8.408,0.113
8.409,0.119
8.410,0.120
8.411,0.122
8.412,0.124
8.413,0.122
8.414,0.119
8.415,0.116
8.416,0.116
8.417,0.116
8.418,0.120
8.419,0.122
8.420,0.122
8.421,0.122
8.422,0.129
8.423,0.134
8.424,0.134
8.425,0.134
8.426,0.141
8.427,0.141
8.428,0.142
8.429,0.144
8.430,0.147
8.431,0.144
8.432,0.147
8.433,0.144
8.434,0.143
8.435,0.144
8.436,0.144
8.437,0.144
8.438,0.147
8.439,0.147
8.440,0.141
8.441,0.138
8.442,0.136
8.443,0.134
8.444,0.133
8.445,0.131
8.446,0.126
8.447,0.125
8.448,0.123
8.449,0.125
8.450,0.122
8.451,0.122
8.452,0.122
8.453,0.119
8.454,0.113
8.455,0.109
8.456,0.111
8.457,0.106
8.458,0.103
8.459,0.103
8.460,0.096
8.461,0.091
8.462,0.089
8.463,0.088
8.464,0.086
8.465,0.084
8.466,0.081
8.467,0.075
8.468,0.072
8.469,0.072
8.470,0.070
8.471,0.069
8.472,0.067
8.473,0.066
8.474,0.064
8.475,0.066
8.476,0.058
8.477,0.053
8.478,0.050
8.479,0.041
8.480,0.038
8.481,0.031
8.482,0.031
8.483,0.031
8.484,0.031
8.485,0.031
8.486,0.025
8.487,0.019
8.488,0.013
8.489,0.009
8.490,0.008
8.491,0.009
8.492,0.009
8.493,0.009
8.494,0.006
8.495,0.009
8.496,0.008
8.497,0.006
8.498,0.006
8.499,0.003
8.500,0.006
8.501,0.003
8.502,0.003
8.503,0.000
8.504,-0.001
8.505,-0.006
8.506,-0.008
8.507,-0.006
8.508,-0.008
8.509,-0.009
8.510,-0.009
8.511,-0.013
8.512,-0.017
8.513,-0.025
8.514,-0.024
8.515,-0.025
8.516,-0.024
8.517,-0.016
8.518,-0.018
8.519,-0.016
8.520,-0.017
8.521,-0.022
8.522,-0.022
8.523,-0.028
8.524,-0.028
8.525,-0.034
8.526,-0.034
8.527,-0.034
8.528,-0.030
8.529,-0.025
8.530,-0.022
8.531,-0.022
8.532,-0.023
8.533,-0.028
8.534,-0.031
8.535,-0.031
8.536,-0.028
8.537,-0.028
8.538,-0.028
8.539,-0.028
8.540,-0.024
8.541,-0.025
8.542,-0.029
8.543,-0.028
8.544,-0.025
8.545,-0.022
8.546,-0.020
8.547,-0.025
8.548,-0.028
8.549,-0.028
8.550,-0.025
8.551,-0.025
8.552,-0.029
8.553,-0.028
8.554,-0.027
8.555,-0.028
8.556,-0.028
8.557,-0.028
8.558,-0.028
8.559,-0.031
8.560,-0.033
8.561,-0.031
8.562,-0.030
8.563,-0.028
8.564,-0.031
8.565,-0.031
8.566,-0.030
8.567,-0.028
8.568,-0.029
8.569,-0.034
8.570,-0.039
8.571,-0.044
8.572,-0.041
8.573,-0.038
8.574,-0.038
8.575,-0.038
8.576,-0.038
8.577,-0.038
8.578,-0.038
8.579,-0.038
8.580,-0.039
8.581,-0.041
8.582,-0.039
8.583,-0.038
8.584,-0.038
8.585,-0.038
8.586,-0.039
8.587,-0.041
8.588,-0.041
8.589,-0.044
8.590,-0.045
8.591,-0.047
8.592,-0.046
8.593,-0.044
8.594,-0.041
8.595,-0.038
8.596,-0.041
8.597,-0.041
8.598,-0.041
8.599,-0.044
8.600,-0.046
8.601,-0.044
8.602,-0.044
8.603,-0.044
8.604,-0.045
8.605,-0.047
8.606,-0.043
8.607,-0.038
8.608,-0.038
8.609,-0.038
8.610,-0.039
8.611,-0.038
8.612,-0.039
8.613,-0.044
8.614,-0.043
8.615,-0.044
8.616,-0.044
8.617,-0.044
8.618,-0.047
8.619,-0.050
8.620,-0.050
8.621,-0.053
8.622,-0.050
8.623,-0.050
8.624,-0.052
8.625,-0.050
8.626,-0.050
8.627,-0.050
8.628,-0.050
8.629,-0.050
8.630,-0.051
8.631,-0.053
8.632,-0.053
8.633,-0.053
8.634,-0.052
8.635,-0.050
8.636,-0.051
8.637,-0.056
8.638,-0.056
8.639,-0.053
8.640,-0.050
8.641,-0.047
8.642,-0.049
8.643,-0.050
8.644,-0.054
8.645,-0.059
8.646,-0.061
8.647,-0.063
8.648,-0.063
8.649,-0.066
8.650,-0.066
8.651,-0.066
8.652,-0.066
8.653,-0.066
8.654,-0.064
8.655,-0.063
8.656,-0.061
8.657,-0.059
8.658,-0.061
8.659,-0.063
8.660,-0.061
8.661,-0.063
8.662,-0.056
8.663,-0.056
8.664,-0.058
8.665,-0.056
8.666,-0.052
8.667,-0.056
8.668,-0.058
8.669,-0.056
8.670,-0.058
8.671,-0.059
8.672,-0.061
8.673,-0.066
8.674,-0.066
8.675,-0.066
8.676,-0.061
8.677,-0.056
8.678,-0.056
8.679,-0.056
8.680,-0.058
8.681,-0.059
8.682,-0.056
8.683,-0.056
8.684,-0.059
8.685,-0.059
8.686,-0.058
8.687,-0.063
8.688,-0.064
8.689,-0.066
8.690,-0.061
8.691,-0.059
8.692,-0.063
8.693,-0.063
8.694,-0.061
8.695,-0.056
8.696,-0.055
8.697,-0.056
8.698,-0.061
8.699,-0.063
8.700,-0.064
8.701,-0.066
8.702,-0.069
8.703,-0.069
8.704,-0.068
8.705,-0.066
8.706,-0.066
8.707,-0.059
8.708,-0.064
8.709,-0.066
8.710,-0.070
8.711,-0.072
8.712,-0.070
8.713,-0.072
8.714,-0.071
8.715,-0.072
8.716,-0.071
8.717,-0.069
8.718,-0.073
8.719,-0.078
8.720,-0.078
8.721,-0.078
8.722,-0.075
8.723,-0.075
8.724,-0.069
8.725,-0.066
8.726,-0.064
8.727,-0.066
8.728,-0.064
8.729,-0.066
8.730,-0.066
8.731,-0.066
8.732,-0.069
8.733,-0.072
8.734,-0.068
8.735,-0.069
8.736,-0.068
8.737,-0.069
8.738,-0.066
8.739,-0.066
8.740,-0.067
8.741,-0.069
8.742,-0.072
8.743,-0.072
8.744,-0.072
8.745,-0.069
8.746,-0.069
8.747,-0.069
8.748,-0.069
8.749,-0.069
8.750,-0.070
8.751,-0.072
8.752,-0.071
8.753,-0.072
8.754,-0.069
8.755,-0.072
8.756,-0.072
8.757,-0.072
8.758,-0.074
8.759,-0.069
8.760,-0.069
8.761,-0.069
8.762,-0.070
8.763,-0.072
8.764,-0.070
8.765,-0.069
8.766,-0.067
8.767,-0.069
8.768,-0.072
8.769,-0.075
8.770,-0.078
8.771,-0.081
8.772,-0.077
8.773,-0.072
8.774,-0.068
8.775,-0.066
8.776,-0.069
8.777,-0.069
8.778,-0.069
8.779,-0.069
8.780,-0.070
8.781,-0.072
8.782,-0.072
8.783,-0.072
8.784,-0.072
8.785,-0.072
8.786,-0.073
8.787,-0.075
8.788,-0.069
8.789,-0.069
8.790,-0.069
8.791,-0.069
8.792,-0.072
8.793,-0.072
8.794,-0.072
8.795,-0.072
8.796,-0.072
8.797,-0.072
8.798,-0.071
8.799,-0.066
8.800,-0.066
8.801,-0.066
8.802,-0.063
8.803,-0.063
8.804,-0.063
8.805,-0.059
8.806,-0.063
8.807,-0.056
8.808,-0.053
8.809,-0.053
8.810,-0.053
8.811,-0.053
8.812,-0.054
8.813,-0.053
8.814,-0.047
8.815,-0.047
8.816,-0.039
8.817,-0.034
8.818,-0.036
8.819,-0.034
8.820,-0.033
8.821,-0.031
8.822,-0.033
8.823,-0.031
8.824,-0.024
8.825,-0.022
8.826,-0.023
8.827,-0.025
8.828,-0.022
8.829,-0.019
8.830,-0.020
8.831,-0.022
8.832,-0.021
8.833,-0.019
8.834,-0.019
8.835,-0.019
8.836,-0.016
8.837,-0.013
8.838,-0.006
8.839,0.000
8.840,0.004
8.841,0.013
8.842,0.020
8.843,0.031
8.844,0.039
8.845,0.047
8.846,0.058
8.847,0.059
8.848,0.061
8.849,0.063
8.850,0.064
8.851,0.066
8.852,0.073
8.853,0.078
8.854,0.080
8.855,0.081
8.856,0.089
8.857,0.084
8.858,0.080
8.859,0.072
8.860,0.066
8.861,0.059
8.862,0.053
8.863,0.050
8.864,0.050
8.865,0.050
8.866,0.046
8.867,0.044
8.868,0.036
8.869,0.028
8.870,0.029
8.871,0.028
8.872,0.030
8.873,0.025
8.874,0.024
8.875,0.025
8.876,0.019
8.877,0.016
8.878,0.016
8.879,0.016
8.880,0.013
8.881,0.013
8.882,0.005
8.883,0.000
8.884,-0.011
8.885,-0.019
8.886,-0.023
8.887,-0.034
8.888,-0.039
8.889,-0.044
8.890,-0.053
8.891,-0.059
8.892,-0.059
8.893,-0.063
8.894,-0.069
8.895,-0.069
8.896,-0.072
8.897,-0.072
8.898,-0.074
8.899,-0.075
8.900,-0.074
8.901,-0.072
8.902,-0.074
8.903,-0.072
8.904,-0.078
8.905,-0.084
8.906,-0.084
8.907,-0.084
8.908,-0.091
8.909,-0.091
8.910,-0.092
8.911,-0.094
8.912,-0.092
8.913,-0.091
8.914,-0.089
8.915,-0.091
8.916,-0.092
8.917,-0.094
8.918,-0.092
8.919,-0.094
8.920,-0.095
8.921,-0.100
8.922,-0.101
8.923,-0.103
8.924,-0.103
8.925,-0.103
8.926,-0.100
8.927,-0.097
8.928,-0.097
8.929,-0.097
8.930,-0.094
8.931,-0.097
8.932,-0.096
8.933,-0.094
8.934,-0.098
8.935,-0.097
8.936,-0.096
8.937,-0.094
8.938,-0.095
8.939,-0.097
8.940,-0.097
8.941,-0.094
8.942,-0.100
8.943,-0.100
8.944,-0.102
8.945,-0.100
8.946,-0.099
8.947,-0.094
8.948,-0.094
8.949,-0.094
8.950,-0.097
8.951,-0.097
8.952,-0.097
8.953,-0.100
8.954,-0.103
8.955,-0.106
8.956,-0.111
8.957,-0.119
8.958,-0.123
8.959,-0.131
8.960,-0.133
8.961,-0.137
8.962,-0.142
8.963,-0.144
8.964,-0.151
8.965,-0.156
8.966,-0.166
8.967,-0.175
8.968,-0.175
8.969,-0.169
8.970,-0.158
8.971,-0.141
8.972,-0.124
8.973,-0.106
8.974,-0.092
8.975,-0.069
8.976,-0.041
8.977,-0.009
8.978,0.018
8.979,0.050
8.980,0.089
8.981,0.141
8.982,0.197
8.983,0.256
8.984,0.323
8.985,0.394
8.986,0.461
8.987,0.522
8.988,0.583
8.989,0.631
8.990,0.682
8.991,0.728
8.992,0.774
8.993,0.819
8.994,0.864
8.995,0.916
8.996,0.964
8.997,1.013
8.998,1.054
8.999,1.088
9.000,1.121
9.001,1.150
9.002,1.181
9.003,1.194
9.004,1.192
9.005,1.162
9.006,1.132
9.007,1.106
9.008,1.083
9.009,1.031
9.010,0.959
9.011,0.872
9.012,0.743
9.013,0.594
9.014,0.442
9.015,0.300
9.016,0.197
9.017,0.109
9.018,0.036
9.019,-0.038
9.020,-0.101
9.021,-0.141
9.022,-0.156
9.023,-0.159
9.024,-0.166
9.025,-0.169
9.026,-0.181
9.027,-0.184
9.028,-0.186
9.029,-0.184
9.030,-0.184
9.031,-0.184
9.032,-0.184
9.033,-0.175
9.034,-0.161
9.035,-0.144
9.036,-0.133
9.037,-0.122
9.038,-0.119
9.039,-0.112
9.040,-0.100
9.041,-0.094
9.042,-0.089
9.043,-0.088
9.044,-0.086
9.045,-0.081
9.046,-0.083
9.047,-0.084
9.048,-0.086
9.049,-0.084
9.050,-0.086
9.051,-0.084
9.052,-0.088
9.053,-0.088
9.054,-0.088
9.055,-0.088
9.056,-0.088
9.057,-0.088
9.058,-0.088
9.059,-0.088
9.060,-0.086
9.061,-0.084
9.062,-0.084
9.063,-0.084
9.064,-0.086
9.065,-0.088
9.066,-0.084
9.067,-0.088
9.068,-0.091
9.069,-0.091
9.070,-0.091
9.071,-0.091
9.072,-0.089
9.073,-0.088
9.074,-0.088
9.075,-0.084
9.076,-0.081
9.077,-0.078
9.078,-0.081
9.079,-0.084
9.080,-0.083
9.081,-0.084
9.082,-0.084
9.083,-0.084
9.084,-0.086
9.085,-0.084
9.086,-0.088
9.087,-0.088
9.088,-0.086
9.089,-0.088
9.090,-0.089
9.091,-0.091
9.092,-0.088
9.093,-0.088
9.094,-0.088
9.095,-0.088
9.096,-0.084
9.097,-0.084
9.098,-0.084
9.099,-0.084
9.100,-0.084
9.101,-0.084
9.102,-0.084
9.103,-0.084
9.104,-0.089
9.105,-0.088
9.106,-0.080
9.107,-0.075
9.108,-0.075
9.109,-0.078
9.110,-0.081
9.111,-0.081
9.112,-0.080
9.113,-0.075
9.114,-0.079
9.115,-0.084
9.116,-0.081
9.117,-0.081
9.118,-0.081
9.119,-0.081
9.120,-0.081
9.121,-0.081
9.122,-0.078
9.123,-0.078
9.124,-0.078
9.125,-0.078
9.126,-0.075
9.127,-0.078
9.128,-0.075
9.129,-0.078
9.130,-0.079
9.131,-0.081
9.132,-0.078
9.133,-0.075
9.134,-0.074
9.135,-0.072
9.136,-0.075
9.137,-0.075
9.138,-0.076
9.139,-0.075
9.140,-0.078
9.141,-0.078
9.142,-0.076
9.143,-0.078
9.144,-0.078
9.145,-0.081
9.146,-0.084
9.147,-0.084
9.148,-0.086
9.149,-0.084
9.150,-0.084
9.151,-0.081
9.152,-0.081
9.153,-0.078
9.154,-0.079
9.155,-0.078
9.156,-0.078
9.157,-0.078
9.158,-0.081
9.159,-0.081
9.160,-0.078
9.161,-0.072
9.162,-0.071
9.163,-0.069
9.164,-0.072
9.165,-0.072
9.166,-0.073
9.167,-0.072
9.168,-0.072
9.169,-0.072
9.170,-0.072
9.171,-0.072
9.172,-0.072
9.173,-0.072
9.174,-0.070
9.175,-0.072
9.176,-0.070
9.177,-0.072
9.178,-0.066
9.179,-0.063
9.180,-0.058
9.181,-0.056
9.182,-0.058
9.183,-0.056
9.184,-0.055
9.185,-0.056
9.186,-0.058
9.187,-0.059
9.188,-0.063
9.189,-0.063
9.190,-0.055
9.191,-0.050
9.192,-0.053
9.193,-0.050
9.194,-0.050
9.195,-0.047
9.196,-0.049
9.197,-0.047
9.198,-0.045
9.199,-0.044
9.200,-0.043
9.201,-0.041
9.202,-0.041
9.203,-0.041
9.204,-0.038
9.205,-0.041
9.206,-0.039
9.207,-0.038
9.208,-0.038
9.209,-0.038
9.210,-0.044
9.211,-0.041
9.212,-0.036
9.213,-0.034
9.214,-0.034
9.215,-0.031
9.216,-0.028
9.217,-0.028
9.218,-0.028
9.219,-0.028
9.220,-0.026
9.221,-0.025
9.222,-0.022
9.223,-0.019
9.224,-0.019
9.225,-0.016
9.226,-0.014
9.227,-0.013
9.228,-0.014
9.229,-0.013
9.230,-0.008
9.231,-0.006
9.232,-0.005
9.233,-0.003
9.234,0.000
9.235,0.000
9.236,0.003
9.237,0.003
9.238,0.000
9.239,0.003
9.240,0.006
9.241,0.013
9.242,0.017
9.243,0.019
9.244,0.018
9.245,0.019
9.246,0.022
9.247,0.022
9.248,0.025
9.249,0.025
9.250,0.025
9.251,0.025
9.252,0.028
9.253,0.025
9.254,0.026
9.255,0.031
9.256,0.034
9.257,0.041
9.258,0.038
9.259,0.038
9.260,0.039
9.261,0.038
9.262,0.042
9.263,0.047
9.264,0.048
9.265,0.050
9.266,0.058
9.267,0.056
9.268,0.055
9.269,0.056
9.270,0.058
9.271,0.056
9.272,0.059
9.273,0.056
9.274,0.059
9.275,0.063
9.276,0.063
9.277,0.063
9.278,0.063
9.279,0.063
9.280,0.059
9.281,0.056
9.282,0.058
9.283,0.059
9.284,0.069
9.285,0.075
9.286,0.072
9.287,0.072
9.288,0.073
9.289,0.078
9.290,0.078
9.291,0.078
9.292,0.078
9.293,0.078
9.294,0.079
9.295,0.084
9.296,0.083
9.297,0.084
9.298,0.086
9.299,0.084
9.300,0.083
9.301,0.081
9.302,0.081
9.303,0.081
9.304,0.084
9.305,0.084
9.306,0.086
9.307,0.091
9.308,0.097
9.309,0.100
9.310,0.097
9.311,0.094
9.312,0.094
9.313,0.094
9.314,0.093
9.315,0.094
9.316,0.093
9.317,0.094
9.318,0.097
9.319,0.100
9.320,0.100
9.321,0.103
9.322,0.108
9.323,0.109
9.324,0.108
9.325,0.106
9.326,0.106
9.327,0.109
9.328,0.113
9.329,0.116
9.330,0.117
9.331,0.122
9.332,0.124
9.333,0.125
9.334,0.124
9.335,0.122
9.336,0.123
9.337,0.128
9.338,0.128
9.339,0.128
9.340,0.096
9.341,0.066
9.342,0.031
9.343,0.000
9.344,0.000
9.345,0.003
9.346,0.000
9.347,0.003
9.348,0.033
9.349,0.066
9.350,0.101
9.351,0.134
9.352,0.133
9.353,0.131
9.354,0.128
9.355,0.125
9.356,0.125
9.357,0.125
9.358,0.124
9.359,0.122
9.360,0.123
9.361,0.119
9.362,0.119
9.363,0.119
9.364,0.120
9.365,0.119
9.366,0.118
9.367,0.116
9.368,0.113
9.369,0.106
9.370,0.104
9.371,0.106
9.372,0.100
9.373,0.094
9.374,0.089
9.375,0.084
9.376,0.086
9.377,0.084
9.378,0.081
9.379,0.078
9.380,0.075
9.381,0.072
9.382,0.066
9.383,0.063
9.384,0.059
9.385,0.053
9.386,0.050
9.387,0.047
9.388,0.044
9.389,0.041
9.390,0.039
9.391,0.031
9.392,0.028
9.393,0.028
9.394,0.023
9.395,0.025
9.396,0.025
9.397,0.025
9.398,0.019
9.399,0.013
9.400,0.011
9.401,0.009
9.402,0.006
9.403,0.003
9.404,0.000
9.405,-0.006
9.406,-0.005
9.407,-0.006
9.408,-0.008
9.409,-0.009
9.410,-0.008
9.411,-0.013
9.412,-0.014
9.413,-0.013
9.414,-0.016
9.415,-0.013
9.416,-0.014
9.417,-0.013
9.418,-0.014
9.419,-0.013
9.420,-0.019
9.421,-0.022
9.422,-0.022
9.423,-0.028
9.424,-0.030
9.425,-0.028
9.426,-0.031
9.427,-0.028
9.428,-0.027
9.429,-0.025
9.430,-0.027
9.431,-0.028
