'Elapsed time','II'
'seconds','mV'
0.000,-0.053
0.001,-0.050
0.002,-0.047
0.003,-0.044
0.004,-0.039
0.005,-0.034
0.006,-0.034
0.007,-0.034
0.008,-0.036
0.009,-0.038
0.010,-0.041
0.011,-0.044
0.012,-0.047
0.013,-0.050
0.014,-0.046
0.015,-0.041
0.016,-0.041
0.017,-0.041
0.018,-0.041
0.019,-0.041
0.020,-0.038
0.021,-0.034
0.022,-0.034
0.023,-0.034
0.024,-0.036
0.025,-0.038
0.026,-0.038
0.027,-0.038
0.028,-0.041
0.029,-0.044
0.030,-0.044
0.031,-0.044
0.032,-0.041
0.033,-0.038
0.034,-0.036
0.035,-0.034
0.036,-0.033
0.037,-0.031
0.038,-0.031
0.039,-0.031
0.040,-0.031
0.041,-0.031
0.042,-0.031
0.043,-0.031
0.044,-0.031
0.045,-0.031
0.046,-0.028
0.047,-0.025
0.048,-0.022
0.049,-0.019
0.050,-0.020
0.051,-0.022
0.052,-0.023
0.053,-0.025
0.054,-0.019
0.055,-0.013
0.056,-0.011
0.057,-0.009
0.058,-0.009
0.059,-0.009
0.060,-0.009
0.061,-0.009
0.062,-0.009
0.063,-0.009
0.064,-0.005
0.065,0.000
0.066,-0.001
0.067,-0.003
0.068,-0.006
0.069,-0.009
0.070,-0.005
0.071,0.000
0.072,0.001
0.073,0.003
0.074,0.004
0.075,0.006
0.076,0.006
0.077,0.006
0.078,0.006
0.079,0.006
0.080,0.011
0.081,0.016
0.082,0.016
0.083,0.016
0.084,0.016
0.085,0.016
0.086,0.014
0.087,0.013
0.088,0.013
0.089,0.013
0.090,0.013
0.091,0.013
0.092,0.019
0.093,0.025
0.094,0.025
0.095,0.025
0.096,0.026
0.097,0.028
0.098,0.028
0.099,0.028
0.100,0.028
0.101,0.028
0.102,0.028
0.103,0.028
0.104,0.028
0.105,0.028
0.106,0.028
0.107,0.028
0.108,0.028
0.109,0.028
0.110,0.028
0.111,0.028
0.112,0.029
0.113,0.031
0.114,0.036
0.115,0.041
0.116,0.039
0.117,0.038
0.118,0.036
0.119,0.034
0.120,0.038
0.121,0.041
0.122,0.039
0.123,0.038
0.124,0.041
0.125,0.044
0.126,0.044
0.127,0.044
0.128,0.044
0.129,0.044
0.130,0.045
0.131,0.047
0.132,0.047
0.133,0.047
0.134,0.047
0.135,0.047
0.136,0.046
0.137,0.047
0.138,0.047
0.139,0.050
0.140,0.051
0.141,0.053
0.142,0.055
0.143,0.053
0.144,0.052
0.145,0.050
0.146,0.050
0.147,0.053
0.148,0.059
0.149,0.066
0.150,0.069
0.151,0.066
0.152,0.064
0.153,0.066
0.154,0.069
0.155,0.069
0.156,0.069
0.157,0.075
0.158,0.076
0.159,0.078
0.160,0.082
0.161,0.084
0.162,0.087
0.163,0.091
0.164,0.091
0.165,0.094
0.166,0.096
0.167,0.094
0.168,0.097
0.169,0.100
0.170,0.104
0.171,0.106
0.172,0.107
0.173,0.106
0.174,0.103
0.175,0.103
0.176,0.103
0.177,0.103
0.178,0.103
0.179,0.106
0.180,0.109
0.181,0.116
0.182,0.112
0.183,0.112
0.184,0.117
0.185,0.119
0.186,0.119
0.187,0.119
0.188,0.122
0.189,0.122
0.190,0.119
0.191,0.119
0.192,0.119
0.193,0.119
0.194,0.116
0.195,0.116
0.196,0.117
0.197,0.116
0.198,0.116
0.199,0.119
0.200,0.119
0.201,0.116
0.202,0.112
0.203,0.116
0.204,0.119
0.205,0.119
0.206,0.119
0.207,0.119
0.208,0.120
0.209,0.122
0.210,0.122
0.211,0.122
0.212,0.117
0.213,0.112
0.214,0.112
0.215,0.112
0.216,0.108
0.217,0.103
0.218,0.101
0.219,0.097
0.220,0.095
0.221,0.097
0.222,0.098
0.223,0.097
0.224,0.092
0.225,0.091
0.226,0.086
0.227,0.081
0.228,0.080
0.229,0.075
0.230,0.073
0.231,0.072
0.232,0.071
0.233,0.072
0.234,0.070
0.235,0.069
0.236,0.072
0.237,0.072
0.238,0.066
0.239,0.062
0.240,0.062
0.241,0.062
0.242,0.056
0.243,0.053
0.244,0.050
0.245,0.050
0.246,0.045
0.247,0.047
0.248,0.044
0.249,0.044
0.250,0.042
0.251,0.038
0.252,0.034
0.253,0.031
0.254,0.029
0.255,0.031
0.256,0.031
0.257,0.028
0.258,0.028
0.259,0.028
0.260,0.032
0.261,0.031
0.262,0.032
0.263,0.031
0.264,0.031
0.265,0.028
0.266,0.025
0.267,0.022
0.268,0.021
0.269,0.016
0.270,0.017
0.271,0.016
0.272,0.016
0.273,0.016
0.274,0.020
0.275,0.022
0.276,0.023
0.277,0.022
0.278,0.017
0.279,0.013
0.280,0.009
0.281,0.009
0.282,0.008
0.283,0.006
0.284,0.004
0.285,0.006
0.286,0.007
0.287,0.009
0.288,0.006
0.289,0.003
0.290,0.003
0.291,0.003
0.292,0.004
0.293,0.000
0.294,-0.001
0.295,-0.006
0.296,-0.002
0.297,0.000
0.298,-0.003
0.299,-0.009
0.300,-0.008
0.301,-0.013
0.302,-0.013
0.303,-0.013
0.304,-0.013
0.305,-0.016
0.306,-0.016
0.307,-0.016
0.308,-0.014
0.309,-0.016
0.310,-0.019
0.311,-0.019
0.312,-0.023
0.313,-0.025
0.314,-0.024
0.315,-0.019
0.316,-0.020
0.317,-0.022
0.318,-0.025
0.319,-0.028
0.320,-0.028
0.321,-0.031
0.322,-0.027
0.323,-0.028
0.324,-0.027
0.325,-0.025
0.326,-0.025
0.327,-0.028
0.328,-0.025
0.329,-0.028
0.330,-0.028
0.331,-0.028
0.332,-0.031
0.333,-0.031
0.334,-0.033
0.335,-0.034
0.336,-0.033
0.337,-0.031
0.338,-0.031
0.339,-0.031
0.340,-0.030
0.341,-0.031
0.342,-0.033
0.343,-0.034
0.344,-0.034
0.345,-0.034
0.346,-0.038
0.347,-0.038
0.348,-0.034
0.349,-0.034
0.350,-0.036
0.351,-0.034
0.352,-0.034
0.353,-0.038
0.354,-0.038
0.355,-0.041
0.356,-0.041
0.357,-0.041
0.358,-0.041
0.359,-0.038
0.360,-0.039
0.361,-0.041
0.362,-0.038
0.363,-0.034
0.364,-0.033
0.365,-0.028
0.366,-0.033
0.367,-0.038
0.368,-0.044
0.369,-0.047
0.370,-0.047
0.371,-0.047
0.372,-0.050
0.373,-0.050
0.374,-0.050
0.375,-0.050
0.376,-0.050
0.377,-0.050
0.378,-0.050
0.379,-0.050
0.380,-0.047
0.381,-0.047
0.382,-0.048
0.383,-0.050
0.384,-0.053
0.385,-0.053
0.386,-0.054
0.387,-0.056
0.388,-0.056
0.389,-0.056
0.390,-0.054
0.391,-0.056
0.392,-0.059
0.393,-0.059
0.394,-0.059
0.395,-0.059
0.396,-0.056
0.397,-0.059
0.398,-0.059
0.399,-0.056
0.400,-0.056
0.401,-0.053
0.402,-0.058
0.403,-0.056
0.404,-0.055
0.405,-0.053
0.406,-0.053
0.407,-0.053
0.408,-0.052
0.409,-0.044
0.410,-0.045
0.411,-0.047
0.412,-0.053
0.413,-0.053
0.414,-0.052
0.415,-0.053
0.416,-0.054
0.417,-0.053
0.418,-0.059
0.419,-0.066
0.420,-0.066
0.421,-0.069
0.422,-0.070
0.423,-0.069
0.424,-0.063
0.425,-0.059
0.426,-0.061
0.427,-0.063
0.428,-0.064
0.429,-0.066
0.430,-0.069
0.431,-0.069
0.432,-0.066
0.433,-0.066
0.434,-0.063
0.435,-0.063
0.436,-0.063
0.437,-0.063
0.438,-0.064
0.439,-0.066
0.440,-0.063
0.441,-0.063
0.442,-0.061
0.443,-0.056
0.444,-0.047
0.445,-0.044
0.446,-0.038
0.447,-0.034
0.448,-0.036
0.449,-0.031
0.450,-0.022
0.451,-0.019
0.452,-0.009
0.453,-0.003
0.454,-0.001
0.455,0.000
0.456,0.003
0.457,0.003
0.458,0.007
0.459,0.013
0.460,0.016
0.461,0.019
0.462,0.026
0.463,0.031
0.464,0.031
0.465,0.031
0.466,0.036
0.467,0.038
0.468,0.042
0.469,0.050
0.470,0.050
0.471,0.047
0.472,0.047
0.473,0.044
0.474,0.044
0.475,0.044
0.476,0.044
0.477,0.044
0.478,0.042
0.479,0.050
0.480,0.050
0.481,0.056
0.482,0.067
0.483,0.072
0.484,0.076
0.485,0.081
0.486,0.095
0.487,0.109
0.488,0.121
0.489,0.131
0.490,0.142
0.491,0.156
0.492,0.173
0.493,0.187
0.494,0.200
0.495,0.206
0.496,0.209
0.497,0.209
0.498,0.206
0.499,0.200
0.500,0.196
0.501,0.184
0.502,0.182
0.503,0.175
0.504,0.178
0.505,0.175
0.506,0.169
0.507,0.162
0.508,0.155
0.509,0.150
0.510,0.153
0.511,0.147
0.512,0.136
0.513,0.128
0.514,0.119
0.515,0.109
0.516,0.102
0.517,0.094
0.518,0.084
0.519,0.075
0.520,0.059
0.521,0.047
0.522,0.033
0.523,0.022
0.524,0.011
0.525,0.000
0.526,-0.009
0.527,-0.022
0.528,-0.038
0.529,-0.050
0.530,-0.058
0.531,-0.066
0.532,-0.069
0.533,-0.069
0.534,-0.071
0.535,-0.075
0.536,-0.078
0.537,-0.081
0.538,-0.084
0.539,-0.084
0.540,-0.086
0.541,-0.088
0.542,-0.088
0.543,-0.088
0.544,-0.091
0.545,-0.091
0.546,-0.091
0.547,-0.091
0.548,-0.089
0.549,-0.091
0.550,-0.091
0.551,-0.091
0.552,-0.093
0.553,-0.094
0.554,-0.094
0.555,-0.094
0.556,-0.098
0.557,-0.103
0.558,-0.103
0.559,-0.106
0.560,-0.109
0.561,-0.113
0.562,-0.113
0.563,-0.116
0.564,-0.113
0.565,-0.116
0.566,-0.117
0.567,-0.116
0.568,-0.113
0.569,-0.109
0.570,-0.113
0.571,-0.109
0.572,-0.111
0.573,-0.113
0.574,-0.114
0.575,-0.113
0.576,-0.117
0.577,-0.116
0.578,-0.116
0.579,-0.116
0.580,-0.118
0.581,-0.116
0.582,-0.116
0.583,-0.116
0.584,-0.114
0.585,-0.116
0.586,-0.114
0.587,-0.119
0.588,-0.120
0.589,-0.122
0.590,-0.123
0.591,-0.125
0.592,-0.124
0.593,-0.122
0.594,-0.116
0.595,-0.109
0.596,-0.102
0.597,-0.094
0.598,-0.076
0.599,-0.059
0.600,-0.042
0.601,-0.031
0.602,-0.011
0.603,0.009
0.604,0.031
0.605,0.044
0.606,0.050
0.607,0.053
0.608,0.050
0.609,0.053
0.610,0.047
0.611,0.044
0.612,0.039
0.613,0.044
0.614,0.062
0.615,0.097
0.616,0.134
0.617,0.178
0.618,0.244
0.619,0.325
0.620,0.449
0.621,0.581
0.622,0.736
0.623,0.894
0.624,1.056
0.625,1.175
0.626,1.214
0.627,1.178
0.628,1.076
0.629,0.984
0.630,0.917
0.631,0.866
0.632,0.793
0.633,0.687
0.634,0.604
0.635,0.528
0.636,0.447
0.637,0.350
0.638,0.266
0.639,0.184
0.640,0.126
0.641,0.075
0.642,0.051
0.643,0.025
0.644,-0.002
0.645,-0.031
0.646,-0.053
0.647,-0.075
0.648,-0.101
0.649,-0.128
0.650,-0.167
0.651,-0.206
0.652,-0.238
0.653,-0.269
0.654,-0.306
0.655,-0.334
0.656,-0.359
0.657,-0.375
0.658,-0.381
0.659,-0.381
0.660,-0.361
0.661,-0.341
0.662,-0.314
0.663,-0.294
0.664,-0.275
0.665,-0.259
0.666,-0.253
0.667,-0.247
0.668,-0.230
0.669,-0.213
0.670,-0.200
0.671,-0.188
0.672,-0.178
0.673,-0.172
0.674,-0.170
0.675,-0.169
0.676,-0.164
0.677,-0.159
0.678,-0.149
0.679,-0.141
0.680,-0.134
0.681,-0.134
0.682,-0.125
0.683,-0.119
0.684,-0.118
0.685,-0.113
0.686,-0.111
0.687,-0.106
0.688,-0.106
0.689,-0.103
0.690,-0.101
0.691,-0.103
0.692,-0.104
0.693,-0.106
0.694,-0.104
0.695,-0.103
0.696,-0.102
0.697,-0.100
0.698,-0.101
0.699,-0.103
0.700,-0.104
0.701,-0.106
0.702,-0.106
0.703,-0.103
0.704,-0.103
0.705,-0.103
0.706,-0.101
0.707,-0.103
0.708,-0.106
0.709,-0.106
0.710,-0.099
0.711,-0.094
0.712,-0.095
0.713,-0.094
0.714,-0.091
0.715,-0.088
0.716,-0.092
0.717,-0.091
0.718,-0.091
0.719,-0.094
0.720,-0.094
0.721,-0.094
0.722,-0.089
0.723,-0.088
0.724,-0.083
0.725,-0.078
0.726,-0.078
0.727,-0.078
0.728,-0.077
0.729,-0.075
0.730,-0.079
0.731,-0.078
0.732,-0.084
0.733,-0.088
0.734,-0.088
0.735,-0.088
0.736,-0.089
0.737,-0.088
0.738,-0.086
0.739,-0.088
0.740,-0.089
0.741,-0.088
0.742,-0.088
0.743,-0.088
0.744,-0.083
0.745,-0.084
0.746,-0.083
0.747,-0.081
0.748,-0.078
0.749,-0.078
0.750,-0.078
0.751,-0.078
0.752,-0.075
0.753,-0.072
0.754,-0.072
0.755,-0.072
0.756,-0.075
0.757,-0.078
0.758,-0.078
0.759,-0.078
0.760,-0.075
0.761,-0.072
0.762,-0.072
0.763,-0.072
0.764,-0.072
0.765,-0.072
0.766,-0.071
0.767,-0.072
0.768,-0.073
0.769,-0.072
0.770,-0.072
0.771,-0.072
0.772,-0.073
0.773,-0.075
0.774,-0.076
0.775,-0.081
0.776,-0.081
0.777,-0.078
0.778,-0.080
0.779,-0.078
0.780,-0.077
0.781,-0.075
0.782,-0.076
0.783,-0.075
0.784,-0.076
0.785,-0.075
0.786,-0.068
0.787,-0.066
0.788,-0.067
0.789,-0.066
0.790,-0.067
0.791,-0.069
0.792,-0.066
0.793,-0.056
0.794,-0.054
0.795,-0.056
0.796,-0.061
0.797,-0.063
0.798,-0.061
0.799,-0.063
0.800,-0.061
0.801,-0.059
0.802,-0.058
0.803,-0.053
0.804,-0.049
0.805,-0.044
0.806,-0.043
0.807,-0.041
0.808,-0.039
0.809,-0.038
0.810,-0.038
0.811,-0.038
0.812,-0.042
0.813,-0.047
0.814,-0.041
0.815,-0.038
0.816,-0.039
0.817,-0.038
0.818,-0.041
0.819,-0.041
0.820,-0.038
0.821,-0.034
0.822,-0.034
0.823,-0.034
0.824,-0.034
0.825,-0.031
0.826,-0.031
0.827,-0.031
0.828,-0.031
0.829,-0.031
0.830,-0.033
0.831,-0.028
0.832,-0.029
0.833,-0.031
0.834,-0.031
0.835,-0.028
0.836,-0.025
0.837,-0.022
0.838,-0.018
0.839,-0.016
0.840,-0.020
0.841,-0.022
0.842,-0.026
0.843,-0.028
0.844,-0.029
0.845,-0.031
0.846,-0.025
0.847,-0.022
0.848,-0.020
0.849,-0.022
0.850,-0.021
0.851,-0.019
0.852,-0.019
0.853,-0.019
0.854,-0.022
0.855,-0.019
0.856,-0.018
0.857,-0.016
0.858,-0.016
0.859,-0.009
0.860,-0.011
0.861,-0.013
0.862,-0.013
0.863,-0.013
0.864,-0.013
0.865,-0.013
0.866,-0.014
0.867,-0.016
0.868,-0.016
0.869,-0.016
0.870,-0.013
0.871,-0.013
0.872,-0.017
0.873,-0.019
0.874,-0.022
0.875,-0.022
0.876,-0.022
0.877,-0.022
0.878,-0.021
0.879,-0.016
0.880,-0.014
0.881,-0.013
0.882,-0.011
0.883,-0.013
0.884,-0.013
0.885,-0.013
0.886,-0.009
0.887,-0.006
0.888,-0.002
0.889,0.000
0.890,0.004
0.891,0.006
0.892,0.006
0.893,0.006
0.894,0.003
0.895,0.003
0.896,0.003
0.897,0.003
0.898,0.003
0.899,0.003
0.900,0.002
0.901,0.003
0.902,0.003
0.903,0.000
0.904,0.000
0.905,0.000
0.906,0.002
0.907,0.003
0.908,0.007
0.909,0.013
0.910,0.016
0.911,0.022
0.912,0.020
0.913,0.019
0.914,0.023
0.915,0.025
0.916,0.029
0.917,0.031
0.918,0.038
0.919,0.044
0.920,0.048
0.921,0.050
0.922,0.049
0.923,0.050
0.924,0.046
0.925,0.047
0.926,0.044
0.927,0.047
0.928,0.048
0.929,0.050
0.930,0.053
0.931,0.059
0.932,0.058
0.933,0.056
0.934,0.056
0.935,0.056
0.936,0.056
0.937,0.056
0.938,0.058
0.939,0.053
0.940,0.052
0.941,0.050
0.942,0.049
0.943,0.047
0.944,0.045
0.945,0.047
0.946,0.044
0.947,0.044
0.948,0.041
0.949,0.041
0.950,0.042
0.951,0.041
0.952,0.044
0.953,0.044
0.954,0.044
0.955,0.047
0.956,0.041
0.957,0.038
0.958,0.034
0.959,0.034
0.960,0.027
0.961,0.019
0.962,0.019
0.963,0.016
0.964,0.016
0.965,0.016
0.966,0.011
0.967,0.009
0.968,0.009
0.969,0.006
0.970,0.007
0.971,0.006
0.972,0.005
0.973,0.000
0.974,0.000
0.975,-0.003
0.976,-0.006
0.977,-0.006
0.978,-0.014
0.979,-0.016
0.980,-0.022
0.981,-0.025
0.982,-0.024
0.983,-0.022
0.984,-0.025
0.985,-0.028
0.986,-0.030
0.987,-0.028
0.988,-0.028
0.989,-0.028
0.990,-0.028
0.991,-0.031
0.992,-0.033
0.993,-0.034
0.994,-0.034
0.995,-0.034
0.996,-0.033
0.997,-0.034
0.998,-0.034
0.999,-0.034
1.000,-0.036
1.001,-0.034
1.002,-0.033
1.003,-0.034
1.004,-0.044
1.005,-0.050
1.006,-0.047
1.007,-0.050
1.008,-0.054
1.009,-0.056
1.010,-0.053
1.011,-0.053
1.012,-0.058
1.013,-0.059
1.014,-0.059
1.015,-0.056
1.016,-0.056
1.017,-0.056
1.018,-0.058
1.019,-0.059
1.020,-0.061
1.021,-0.066
1.022,-0.064
1.023,-0.063
1.024,-0.069
1.025,-0.069
1.026,-0.067
1.027,-0.069
1.028,-0.068
1.029,-0.069
1.030,-0.071
1.031,-0.069
1.032,-0.073
1.033,-0.075
1.034,-0.077
1.035,-0.078
1.036,-0.078
1.037,-0.078
1.038,-0.077
1.039,-0.075
1.040,-0.081
1.041,-0.084
1.042,-0.084
1.043,-0.084
1.044,-0.083
1.045,-0.084
1.046,-0.084
1.047,-0.084
1.048,-0.084
1.049,-0.084
1.050,-0.089
1.051,-0.091
1.052,-0.086
1.053,-0.081
1.054,-0.078
1.055,-0.072
1.056,-0.082
1.057,-0.088
1.058,-0.088
1.059,-0.088
1.060,-0.084
1.061,-0.088
1.062,-0.089
1.063,-0.091
1.064,-0.093
1.065,-0.094
1.066,-0.091
1.067,-0.091
1.068,-0.094
1.069,-0.094
1.070,-0.093
1.071,-0.094
1.072,-0.094
1.073,-0.094
1.074,-0.096
1.075,-0.094
1.076,-0.097
1.077,-0.100
1.078,-0.100
1.079,-0.103
1.080,-0.103
1.081,-0.103
1.082,-0.104
1.083,-0.106
1.084,-0.106
1.085,-0.106
1.086,-0.106
1.087,-0.109
1.088,-0.113
1.089,-0.113
1.090,-0.113
1.091,-0.119
1.092,-0.118
1.093,-0.116
1.094,-0.114
1.095,-0.109
1.096,-0.111
1.097,-0.109
1.098,-0.109
1.099,-0.109
1.100,-0.109
1.101,-0.113
1.102,-0.113
1.103,-0.113
1.104,-0.113
1.105,-0.113
1.106,-0.113
1.107,-0.113
1.108,-0.113
1.109,-0.113
1.110,-0.109
1.111,-0.109
1.112,-0.113
1.113,-0.113
1.114,-0.111
1.115,-0.113
1.116,-0.114
1.117,-0.119
1.118,-0.118
1.119,-0.113
1.120,-0.113
1.121,-0.113
1.122,-0.111
1.123,-0.109
1.124,-0.113
1.125,-0.113
1.126,-0.113
1.127,-0.113
1.128,-0.109
1.129,-0.109
1.130,-0.111
1.131,-0.113
1.132,-0.109
1.133,-0.109
1.134,-0.113
1.135,-0.113
1.136,-0.113
1.137,-0.113
1.138,-0.111
1.139,-0.116
1.140,-0.119
1.141,-0.119
1.142,-0.121
1.143,-0.119
1.144,-0.122
1.145,-0.119
1.146,-0.119
1.147,-0.119
1.148,-0.119
1.149,-0.119
1.150,-0.123
1.151,-0.122
1.152,-0.119
1.153,-0.116
1.154,-0.118
1.155,-0.113
1.156,-0.113
1.157,-0.116
1.158,-0.116
1.159,-0.113
1.160,-0.119
1.161,-0.125
1.162,-0.122
1.163,-0.122
1.164,-0.119
1.165,-0.113
1.166,-0.113
1.167,-0.116
1.168,-0.117
1.169,-0.119
1.170,-0.116
1.171,-0.113
1.172,-0.116
1.173,-0.116
1.174,-0.113
1.175,-0.113
1.176,-0.113
1.177,-0.116
1.178,-0.119
1.179,-0.122
1.180,-0.121
1.181,-0.119
1.182,-0.114
1.183,-0.113
1.184,-0.113
1.185,-0.109
1.186,-0.102
1.187,-0.100
1.188,-0.097
1.189,-0.097
1.190,-0.098
1.191,-0.094
1.192,-0.086
1.193,-0.084
1.194,-0.076
1.195,-0.072
1.196,-0.063
1.197,-0.053
1.198,-0.044
1.199,-0.038
1.200,-0.034
1.201,-0.031
1.202,-0.033
1.203,-0.034
1.204,-0.031
1.205,-0.031
1.206,-0.024
1.207,-0.016
1.208,-0.006
1.209,0.000
1.210,0.000
1.211,0.003
1.212,0.004
1.213,0.003
1.214,0.006
1.215,0.006
1.216,0.005
1.217,0.003
1.218,0.003
1.219,0.003
1.220,-0.001
1.221,0.003
1.222,0.002
1.223,0.006
1.224,0.022
1.225,0.031
1.226,0.034
1.227,0.038
1.228,0.044
1.229,0.050
1.230,0.066
1.231,0.081
1.232,0.091
1.233,0.103
1.234,0.120
1.235,0.134
1.236,0.153
1.237,0.166
1.238,0.174
1.239,0.178
1.240,0.180
1.241,0.178
1.242,0.177
1.243,0.169
1.244,0.167
1.245,0.159
1.246,0.161
1.247,0.156
1.248,0.157
1.249,0.159
1.250,0.152
1.251,0.147
1.252,0.148
1.253,0.141
1.254,0.131
1.255,0.125
1.256,0.116
1.257,0.106
1.258,0.101
1.259,0.097
1.260,0.081
1.261,0.066
1.262,0.052
1.263,0.041
1.264,0.028
1.265,0.019
1.266,0.003
1.267,-0.013
1.268,-0.023
1.269,-0.038
1.270,-0.051
1.271,-0.063
1.272,-0.072
1.273,-0.081
1.274,-0.089
1.275,-0.094
1.276,-0.097
1.277,-0.103
1.278,-0.103
1.279,-0.103
1.280,-0.106
1.281,-0.106
1.282,-0.107
1.283,-0.109
1.284,-0.109
1.285,-0.109
1.286,-0.113
1.287,-0.113
1.288,-0.114
1.289,-0.116
1.290,-0.116
1.291,-0.119
1.292,-0.116
1.293,-0.113
1.294,-0.114
1.295,-0.116
1.296,-0.117
1.297,-0.119
1.298,-0.121
1.299,-0.122
1.300,-0.125
1.301,-0.131
1.302,-0.134
1.303,-0.138
1.304,-0.138
1.305,-0.141
1.306,-0.138
1.307,-0.141
1.308,-0.136
1.309,-0.128
1.310,-0.129
1.311,-0.131
1.312,-0.134
1.313,-0.131
1.314,-0.127
1.315,-0.122
1.316,-0.125
1.317,-0.125
1.318,-0.129
1.319,-0.128
1.320,-0.127
1.321,-0.125
1.322,-0.134
1.323,-0.141
1.324,-0.139
1.325,-0.138
1.326,-0.136
1.327,-0.138
1.328,-0.133
1.329,-0.134
1.330,-0.131
1.331,-0.128
1.332,-0.128
1.333,-0.128
1.334,-0.129
1.335,-0.131
1.336,-0.128
1.337,-0.125
1.338,-0.120
1.339,-0.116
1.340,-0.097
1.341,-0.078
1.342,-0.059
1.343,-0.047
1.344,-0.027
1.345,-0.006
1.346,0.014
1.347,0.025
1.348,0.036
1.349,0.044
1.350,0.031
1.351,0.025
1.352,0.020
1.353,0.019
1.354,0.023
1.355,0.038
1.356,0.057
1.357,0.094
1.358,0.145
1.359,0.203
1.360,0.291
1.361,0.394
1.362,0.525
1.363,0.666
1.364,0.820
1.365,0.978
1.366,1.131
1.367,1.241
1.368,1.266
1.369,1.216
1.370,1.116
1.371,1.025
1.372,0.956
1.373,0.903
1.374,0.832
1.375,0.731
1.376,0.642
1.377,0.559
1.378,0.474
1.379,0.372
1.380,0.291
1.381,0.212
1.382,0.150
1.383,0.094
1.384,0.055
1.385,0.013
1.386,-0.022
1.387,-0.059
1.388,-0.091
1.389,-0.122
1.390,-0.153
1.391,-0.184
1.392,-0.216
1.393,-0.247
1.394,-0.279
1.395,-0.313
1.396,-0.338
1.397,-0.353
1.398,-0.371
1.399,-0.378
1.400,-0.378
1.401,-0.372
1.402,-0.344
1.403,-0.316
1.404,-0.291
1.405,-0.272
1.406,-0.258
1.407,-0.247
1.408,-0.233
1.409,-0.219
1.410,-0.211
1.411,-0.203
1.412,-0.194
1.413,-0.184
1.414,-0.173
1.415,-0.166
1.416,-0.166
1.417,-0.166
1.418,-0.159
1.419,-0.153
1.420,-0.147
1.421,-0.144
1.422,-0.134
1.423,-0.131
1.424,-0.124
1.425,-0.119
1.426,-0.120
1.427,-0.119
1.428,-0.118
1.429,-0.113
1.430,-0.111
1.431,-0.106
1.432,-0.104
1.433,-0.106
1.434,-0.107
1.435,-0.109
1.436,-0.103
1.437,-0.097
1.438,-0.096
1.439,-0.094
1.440,-0.095
1.441,-0.097
1.442,-0.098
1.443,-0.100
1.444,-0.101
1.445,-0.100
1.446,-0.100
1.447,-0.100
1.448,-0.094
1.449,-0.091
1.450,-0.095
1.451,-0.097
1.452,-0.093
1.453,-0.091
1.454,-0.092
1.455,-0.091
1.456,-0.089
1.457,-0.088
1.458,-0.091
1.459,-0.088
1.460,-0.088
1.461,-0.091
1.462,-0.091
1.463,-0.091
1.464,-0.086
1.465,-0.084
1.466,-0.086
1.467,-0.088
1.468,-0.081
1.469,-0.075
1.470,-0.075
1.471,-0.075
1.472,-0.079
1.473,-0.078
1.474,-0.079
1.475,-0.078
1.476,-0.079
1.477,-0.081
1.478,-0.082
1.479,-0.081
1.480,-0.075
1.481,-0.072
1.482,-0.075
1.483,-0.075
1.484,-0.076
1.485,-0.078
1.486,-0.072
1.487,-0.072
1.488,-0.072
1.489,-0.072
1.490,-0.070
1.491,-0.072
1.492,-0.072
1.493,-0.072
1.494,-0.071
1.495,-0.069
1.496,-0.069
1.497,-0.069
1.498,-0.069
1.499,-0.069
1.500,-0.069
1.501,-0.069
1.502,-0.067
1.503,-0.066
1.504,-0.061
1.505,-0.056
1.506,-0.058
1.507,-0.059
1.508,-0.059
1.509,-0.063
1.510,-0.064
1.511,-0.063
1.512,-0.064
1.513,-0.066
1.514,-0.064
1.515,-0.063
1.516,-0.061
1.517,-0.063
1.518,-0.063
1.519,-0.059
1.520,-0.059
1.521,-0.056
1.522,-0.056
1.523,-0.056
1.524,-0.058
1.525,-0.056
1.526,-0.058
1.527,-0.056
1.528,-0.053
1.529,-0.056
1.530,-0.056
1.531,-0.053
1.532,-0.054
1.533,-0.056
1.534,-0.058
1.535,-0.053
1.536,-0.049
1.537,-0.047
1.538,-0.047
1.539,-0.044
1.540,-0.041
1.541,-0.041
1.542,-0.038
1.543,-0.034
1.544,-0.039
1.545,-0.041
1.546,-0.041
1.547,-0.041
1.548,-0.038
1.549,-0.034
1.550,-0.034
1.551,-0.034
1.552,-0.031
1.553,-0.028
1.554,-0.029
1.555,-0.031
1.556,-0.029
1.557,-0.031
1.558,-0.028
1.559,-0.022
1.560,-0.025
1.561,-0.025
1.562,-0.025
1.563,-0.025
1.564,-0.022
1.565,-0.019
1.566,-0.022
1.567,-0.022
1.568,-0.020
1.569,-0.019
1.570,-0.018
1.571,-0.016
1.572,-0.018
1.573,-0.013
1.574,-0.011
1.575,-0.009
1.576,-0.013
1.577,-0.013
1.578,-0.013
1.579,-0.013
1.580,-0.009
1.581,-0.009
1.582,-0.013
1.583,-0.013
1.584,-0.014
1.585,-0.013
1.586,-0.014
1.587,-0.016
1.588,-0.016
1.589,-0.019
1.590,-0.014
1.591,-0.013
1.592,-0.009
1.593,-0.006
1.594,-0.006
1.595,-0.006
1.596,-0.009
1.597,-0.006
1.598,-0.003
1.599,0.000
1.600,-0.003
1.601,0.000
1.602,0.000
1.603,0.000
1.604,-0.001
1.605,-0.003
1.606,0.000
1.607,0.003
1.608,0.004
1.609,0.006
1.610,0.005
1.611,0.003
1.612,0.005
1.613,0.003
1.614,0.004
1.615,0.009
1.616,0.005
1.617,0.003
1.618,0.003
1.619,0.003
1.620,0.003
1.621,0.006
1.622,0.006
1.623,0.006
1.624,0.011
1.625,0.013
1.626,0.013
1.627,0.013
1.628,0.013
1.629,0.013
1.630,0.017
1.631,0.019
1.632,0.021
1.633,0.019
1.634,0.019
1.635,0.019
1.636,0.019
1.637,0.022
1.638,0.024
1.639,0.025
1.640,0.025
1.641,0.025
1.642,0.026
1.643,0.031
1.644,0.034
1.645,0.034
1.646,0.038
1.647,0.041
1.648,0.041
1.649,0.041
1.650,0.039
1.651,0.038
1.652,0.039
1.653,0.044
1.654,0.044
1.655,0.044
1.656,0.047
1.657,0.047
1.658,0.054
1.659,0.059
1.660,0.061
1.661,0.062
1.662,0.064
1.663,0.062
1.664,0.067
1.665,0.075
1.666,0.071
1.667,0.072
1.668,0.072
1.669,0.078
1.670,0.079
1.671,0.081
1.672,0.078
1.673,0.078
1.674,0.078
1.675,0.078
1.676,0.078
1.677,0.078
1.678,0.078
1.679,0.078
1.680,0.084
1.681,0.084
1.682,0.086
1.683,0.087
1.684,0.087
1.685,0.087
1.686,0.084
1.687,0.084
1.688,0.080
1.689,0.078
1.690,0.072
1.691,0.069
1.692,0.069
1.693,0.066
1.694,0.066
1.695,0.062
1.696,0.061
1.697,0.062
1.698,0.059
1.699,0.059
1.700,0.055
1.701,0.053
1.702,0.051
1.703,0.050
1.704,0.050
1.705,0.047
1.706,0.047
1.707,0.047
1.708,0.044
1.709,0.044
1.710,0.041
1.711,0.034
1.712,0.034
1.713,0.031
1.714,0.038
1.715,0.041
1.716,0.038
1.717,0.031
1.718,0.031
1.719,0.034
1.720,0.031
1.721,0.034
1.722,0.030
1.723,0.028
1.724,0.025
1.725,0.022
1.726,0.019
1.727,0.016
1.728,0.013
1.729,0.013
1.730,0.011
1.731,0.009
1.732,0.009
1.733,0.006
1.734,0.006
1.735,0.006
1.736,0.006
1.737,0.006
1.738,0.006
1.739,0.003
1.740,0.003
1.741,0.003
1.742,0.004
1.743,0.009
1.744,0.009
1.745,0.006
1.746,0.002
1.747,0.000
1.748,0.004
1.749,0.003
1.750,-0.004
1.751,-0.009
1.752,-0.005
1.753,-0.003
1.754,-0.006
1.755,-0.006
1.756,-0.011
1.757,-0.013
1.758,-0.014
1.759,-0.016
1.760,-0.016
1.761,-0.016
1.762,-0.014
1.763,-0.016
1.764,-0.014
1.765,-0.013
1.766,-0.020
1.767,-0.022
1.768,-0.018
1.769,-0.016
1.770,-0.016
1.771,-0.019
1.772,-0.025
1.773,-0.028
1.774,-0.029
1.775,-0.028
1.776,-0.028
1.777,-0.028
1.778,-0.029
1.779,-0.031
1.780,-0.031
1.781,-0.031
1.782,-0.033
1.783,-0.031
1.784,-0.033
1.785,-0.034
1.786,-0.033
1.787,-0.034
1.788,-0.034
1.789,-0.034
1.790,-0.034
1.791,-0.034
1.792,-0.038
1.793,-0.038
1.794,-0.038
1.795,-0.038
1.796,-0.036
1.797,-0.031
1.798,-0.038
1.799,-0.038
1.800,-0.039
1.801,-0.041
1.802,-0.036
1.803,-0.038
1.804,-0.038
1.805,-0.038
1.806,-0.039
1.807,-0.041
1.808,-0.038
1.809,-0.038
1.810,-0.041
1.811,-0.041
1.812,-0.039
1.813,-0.041
1.814,-0.042
1.815,-0.044
1.816,-0.048
1.817,-0.050
1.818,-0.051
1.819,-0.053
1.820,-0.054
1.821,-0.059
1.822,-0.061
1.823,-0.063
1.824,-0.061
1.825,-0.059
1.826,-0.059
1.827,-0.059
1.828,-0.056
1.829,-0.056
1.830,-0.056
1.831,-0.053
1.832,-0.053
1.833,-0.059
1.834,-0.061
1.835,-0.063
1.836,-0.066
1.837,-0.066
1.838,-0.069
1.839,-0.069
1.840,-0.069
1.841,-0.069
1.842,-0.066
1.843,-0.066
1.844,-0.066
1.845,-0.066
1.846,-0.066
1.847,-0.066
1.848,-0.066
1.849,-0.066
1.850,-0.066
1.851,-0.066
1.852,-0.063
1.853,-0.063
1.854,-0.066
1.855,-0.066
1.856,-0.067
1.857,-0.072
1.858,-0.071
1.859,-0.072
1.860,-0.073
1.861,-0.072
1.862,-0.072
1.863,-0.072
1.864,-0.069
1.865,-0.066
1.866,-0.070
1.867,-0.072
1.868,-0.072
1.869,-0.072
1.870,-0.069
1.871,-0.069
1.872,-0.072
1.873,-0.075
1.874,-0.071
1.875,-0.069
1.876,-0.069
1.877,-0.069
1.878,-0.073
1.879,-0.078
1.880,-0.074
1.881,-0.072
1.882,-0.075
1.883,-0.075
1.884,-0.075
1.885,-0.075
1.886,-0.071
1.887,-0.072
1.888,-0.072
1.889,-0.069
1.890,-0.072
1.891,-0.072
1.892,-0.076
1.893,-0.075
1.894,-0.075
1.895,-0.075
1.896,-0.074
1.897,-0.072
1.898,-0.075
1.899,-0.072
1.900,-0.075
1.901,-0.078
1.902,-0.080
1.903,-0.075
1.904,-0.074
1.905,-0.075
1.906,-0.074
1.907,-0.069
1.908,-0.072
1.909,-0.075
1.910,-0.073
1.911,-0.075
1.912,-0.079
1.913,-0.081
1.914,-0.081
1.915,-0.084
1.916,-0.081
1.917,-0.078
1.918,-0.077
1.919,-0.075
1.920,-0.078
1.921,-0.078
1.922,-0.078
1.923,-0.081
1.924,-0.078
1.925,-0.078
1.926,-0.081
1.927,-0.084
1.928,-0.084
1.929,-0.084
1.930,-0.082
1.931,-0.084
1.932,-0.083
1.933,-0.078
1.934,-0.071
1.935,-0.069
1.936,-0.066
1.937,-0.066
1.938,-0.067
1.939,-0.063
1.940,-0.054
1.941,-0.053
1.942,-0.039
1.943,-0.028
1.944,-0.022
1.945,-0.016
1.946,-0.009
1.947,-0.006
1.948,-0.002
1.949,0.003
1.950,0.005
1.951,0.006
1.952,0.009
1.953,0.009
1.954,0.016
1.955,0.022
1.956,0.029
1.957,0.034
1.958,0.039
1.959,0.047
1.960,0.047
1.961,0.044
1.962,0.047
1.963,0.047
1.964,0.047
1.965,0.047
1.966,0.046
1.967,0.044
1.968,0.039
1.969,0.044
1.970,0.044
1.971,0.050
1.972,0.058
1.973,0.059
1.974,0.067
1.975,0.075
1.976,0.077
1.977,0.078
1.978,0.091
1.979,0.103
1.980,0.112
1.981,0.125
1.982,0.137
1.983,0.147
1.984,0.162
1.985,0.172
1.986,0.187
1.987,0.200
1.988,0.203
1.989,0.203
1.990,0.207
1.991,0.206
1.992,0.206
1.993,0.200
1.994,0.200
1.995,0.194
1.996,0.194
1.997,0.194
1.998,0.187
1.999,0.184
2.000,0.183
2.001,0.172
2.002,0.162
2.003,0.156
2.004,0.148
2.005,0.141
2.006,0.130
2.007,0.119
2.008,0.112
2.009,0.106
2.010,0.094
2.011,0.084
2.012,0.072
2.013,0.062
2.014,0.053
2.015,0.044
2.016,0.028
2.017,0.009
2.018,-0.004
2.019,-0.016
2.020,-0.022
2.021,-0.028
2.022,-0.038
2.023,-0.044
2.024,-0.049
2.025,-0.056
2.026,-0.061
2.027,-0.066
2.028,-0.069
2.029,-0.069
2.030,-0.069
2.031,-0.069
2.032,-0.070
2.033,-0.072
2.034,-0.075
2.035,-0.075
2.036,-0.075
2.037,-0.075
2.038,-0.076
2.039,-0.081
2.040,-0.081
2.041,-0.081
2.042,-0.084
2.043,-0.088
2.044,-0.088
2.045,-0.088
2.046,-0.088
2.047,-0.088
2.048,-0.088
2.049,-0.091
2.050,-0.094
2.051,-0.097
2.052,-0.096
2.053,-0.097
2.054,-0.094
2.055,-0.097
2.056,-0.100
2.057,-0.100
2.058,-0.099
2.059,-0.097
2.060,-0.100
2.061,-0.097
2.062,-0.096
2.063,-0.094
2.064,-0.096
2.065,-0.094
2.066,-0.098
2.067,-0.097
2.068,-0.096
2.069,-0.094
2.070,-0.096
2.071,-0.094
2.072,-0.094
2.073,-0.094
2.074,-0.091
2.075,-0.091
2.076,-0.089
2.077,-0.094
2.078,-0.095
2.079,-0.097
2.080,-0.096
2.081,-0.094
2.082,-0.095
2.083,-0.097
2.084,-0.091
2.085,-0.084
2.086,-0.078
2.087,-0.072
2.088,-0.052
2.089,-0.031
2.090,-0.008
2.091,0.009
2.092,0.029
2.093,0.050
2.094,0.067
2.095,0.075
2.096,0.082
2.097,0.087
2.098,0.077
2.099,0.072
2.100,0.067
2.101,0.066
2.102,0.078
2.103,0.100
2.104,0.128
2.105,0.172
2.106,0.225
2.107,0.284
2.108,0.366
2.109,0.462
2.110,0.586
2.111,0.719
2.112,0.873
2.113,1.031
2.114,1.203
2.115,1.331
2.116,1.359
2.117,1.312
2.118,1.207
2.119,1.112
2.120,1.034
2.121,0.972
2.122,0.889
2.123,0.775
2.124,0.681
2.125,0.594
2.126,0.509
2.127,0.409
2.128,0.316
2.129,0.225
2.130,0.162
2.131,0.106
2.132,0.062
2.133,0.016
2.134,-0.019
2.135,-0.056
2.136,-0.089
2.137,-0.122
2.138,-0.151
2.139,-0.181
2.140,-0.211
2.141,-0.241
2.142,-0.271
2.143,-0.300
2.144,-0.325
2.145,-0.341
2.146,-0.352
2.147,-0.353
2.148,-0.344
2.149,-0.328
2.150,-0.304
2.151,-0.281
2.152,-0.256
2.153,-0.238
2.154,-0.222
2.155,-0.209
2.156,-0.197
2.157,-0.184
2.158,-0.172
2.159,-0.159
2.160,-0.156
2.161,-0.153
2.162,-0.147
2.163,-0.144
2.164,-0.138
2.165,-0.131
2.166,-0.126
2.167,-0.122
2.168,-0.114
2.169,-0.109
2.170,-0.099
2.171,-0.094
2.172,-0.091
2.173,-0.091
2.174,-0.094
2.175,-0.094
2.176,-0.093
2.177,-0.088
2.178,-0.091
2.179,-0.091
2.180,-0.088
2.181,-0.088
2.182,-0.088
2.183,-0.088
2.184,-0.086
2.185,-0.084
2.186,-0.080
2.187,-0.075
2.188,-0.074
2.189,-0.072
2.190,-0.072
2.191,-0.072
2.192,-0.078
2.193,-0.081
2.194,-0.078
2.195,-0.075
2.196,-0.071
2.197,-0.069
2.198,-0.071
2.199,-0.069
2.200,-0.067
2.201,-0.069
2.202,-0.069
2.203,-0.066
2.204,-0.064
2.205,-0.063
2.206,-0.067
2.207,-0.066
2.208,-0.066
2.209,-0.069
2.210,-0.069
2.211,-0.069
2.212,-0.067
2.213,-0.069
2.214,-0.068
2.215,-0.066
2.216,-0.064
2.217,-0.063
2.218,-0.063
2.219,-0.063
2.220,-0.063
2.221,-0.056
2.222,-0.058
2.223,-0.056
2.224,-0.056
2.225,-0.056
2.226,-0.055
2.227,-0.050
2.228,-0.049
2.229,-0.050
2.230,-0.051
2.231,-0.050
2.232,-0.051
2.233,-0.053
2.234,-0.050
2.235,-0.053
2.236,-0.053
2.237,-0.053
2.238,-0.050
2.239,-0.050
2.240,-0.050
2.241,-0.050
2.242,-0.051
2.243,-0.053
2.244,-0.053
2.245,-0.053
2.246,-0.054
2.247,-0.056
2.248,-0.055
2.249,-0.053
2.250,-0.051
2.251,-0.050
2.252,-0.049
2.253,-0.047
2.254,-0.047
2.255,-0.047
2.256,-0.046
2.257,-0.047
2.258,-0.048
2.259,-0.047
2.260,-0.048
2.261,-0.050
2.262,-0.050
2.263,-0.050
2.264,-0.047
2.265,-0.047
2.266,-0.050
2.267,-0.050
2.268,-0.052
2.269,-0.050
2.270,-0.049
2.271,-0.047
2.272,-0.048
2.273,-0.047
2.274,-0.046
2.275,-0.041
2.276,-0.036
2.277,-0.038
2.278,-0.039
2.279,-0.038
2.280,-0.036
2.281,-0.034
2.282,-0.038
2.283,-0.034
2.284,-0.031
2.285,-0.031
2.286,-0.034
2.287,-0.034
2.288,-0.033
2.289,-0.034
2.290,-0.033
2.291,-0.031
2.292,-0.031
2.293,-0.028
2.294,-0.025
2.295,-0.022
2.296,-0.021
2.297,-0.019
2.298,-0.019
2.299,-0.019
2.300,-0.019
2.301,-0.019
2.302,-0.014
2.303,-0.009
2.304,-0.008
2.305,-0.009
2.306,-0.013
2.307,-0.013
2.308,-0.011
2.309,-0.006
2.310,-0.005
2.311,-0.003
2.312,-0.003
2.313,-0.003
2.314,-0.003
2.315,0.000
2.316,0.000
2.317,0.000
2.318,0.003
2.319,0.006
2.320,0.004
2.321,0.009
2.322,0.009
2.323,0.009
2.324,0.008
2.325,0.009
2.326,0.009
2.327,0.009
2.328,0.013
2.329,0.013
2.330,0.009
2.331,0.009
2.332,0.008
2.333,0.009
2.334,0.011
2.335,0.013
2.336,0.017
2.337,0.019
2.338,0.021
2.339,0.019
2.340,0.022
2.341,0.025
2.342,0.025
2.343,0.025
2.344,0.023
2.345,0.028
2.346,0.028
2.347,0.028
2.348,0.025
2.349,0.028
2.350,0.028
2.351,0.028
2.352,0.029
2.353,0.031
2.354,0.031
2.355,0.031
2.356,0.031
2.357,0.031
2.358,0.036
2.359,0.041
2.360,0.042
2.361,0.041
2.362,0.036
2.363,0.034
2.364,0.034
2.365,0.038
2.366,0.034
2.367,0.031
2.368,0.031
2.369,0.034
2.370,0.038
2.371,0.041
2.372,0.042
2.373,0.041
2.374,0.042
2.375,0.044
2.376,0.045
2.377,0.047
2.378,0.047
2.379,0.044
2.380,0.047
2.381,0.047
2.382,0.048
2.383,0.050
2.384,0.049
2.385,0.050
2.386,0.053
2.387,0.056
2.388,0.056
2.389,0.056
2.390,0.057
2.391,0.062
2.392,0.064
2.393,0.062
2.394,0.062
2.395,0.062
2.396,0.067
2.397,0.072
2.398,0.073
2.399,0.075
2.400,0.075
2.401,0.078
2.402,0.076
2.403,0.075
2.404,0.079
2.405,0.081
2.406,0.083
2.407,0.081
2.408,0.084
2.409,0.087
2.410,0.091
2.411,0.091
2.412,0.089
2.413,0.091
2.414,0.087
2.415,0.091
2.416,0.089
2.417,0.094
2.418,0.095
2.419,0.097
2.420,0.095
2.421,0.097
2.422,0.097
2.423,0.097
2.424,0.096
2.425,0.094
2.426,0.094
2.427,0.094
2.428,0.097
2.429,0.094
2.430,0.092
2.431,0.091
2.432,0.091
2.433,0.091
2.434,0.086
2.435,0.084
2.436,0.082
2.437,0.084
2.438,0.082
2.439,0.084
2.440,0.084
2.441,0.081
2.442,0.080
2.443,0.075
2.444,0.071
2.445,0.069
2.446,0.067
2.447,0.069
2.448,0.066
2.449,0.066
2.450,0.066
2.451,0.066
2.452,0.062
2.453,0.056
2.454,0.055
2.455,0.053
2.456,0.047
2.457,0.044
2.458,0.045
2.459,0.044
2.460,0.045
2.461,0.044
2.462,0.045
2.463,0.044
2.464,0.045
2.465,0.044
2.466,0.038
2.467,0.034
2.468,0.029
2.469,0.031
2.470,0.029
2.471,0.031
2.472,0.031
2.473,0.031
2.474,0.031
2.475,0.031
2.476,0.028
2.477,0.028
2.478,0.027
2.479,0.025
2.480,0.026
2.481,0.025
2.482,0.021
2.483,0.016
2.484,0.014
2.485,0.013
2.486,0.014
2.487,0.013
2.488,0.013
2.489,0.013
2.490,0.011
2.491,0.013
2.492,0.016
2.493,0.016
2.494,0.013
2.495,0.013
2.496,0.014
2.497,0.009
2.498,0.006
2.499,0.006
2.500,0.008
2.501,0.006
2.502,0.003
2.503,0.003
2.504,0.000
2.505,0.000
2.506,0.000
2.507,0.000
2.508,0.000
2.509,0.000
2.510,0.001
2.511,0.000
2.512,0.001
2.513,0.003
2.514,-0.003
2.515,-0.003
2.516,-0.001
2.517,-0.003
2.518,-0.003
2.519,-0.006
2.520,-0.008
2.521,-0.006
2.522,-0.009
2.523,-0.009
2.524,-0.011
2.525,-0.013
2.526,-0.013
2.527,-0.013
2.528,-0.016
2.529,-0.019
2.530,-0.021
2.531,-0.019
2.532,-0.020
2.533,-0.022
2.534,-0.022
2.535,-0.025
2.536,-0.022
2.537,-0.019
2.538,-0.019
2.539,-0.019
2.540,-0.023
2.541,-0.025
2.542,-0.025
2.543,-0.025
2.544,-0.025
2.545,-0.022
2.546,-0.027
2.547,-0.025
2.548,-0.028
2.549,-0.031
2.550,-0.028
2.551,-0.031
2.552,-0.030
2.553,-0.028
2.554,-0.031
2.555,-0.034
2.556,-0.031
2.557,-0.031
2.558,-0.034
2.559,-0.034
2.560,-0.036
2.561,-0.041
2.562,-0.039
2.563,-0.038
2.564,-0.038
2.565,-0.034
2.566,-0.034
2.567,-0.034
2.568,-0.034
2.569,-0.038
2.570,-0.041
2.571,-0.044
2.572,-0.044
2.573,-0.044
2.574,-0.044
2.575,-0.044
2.576,-0.044
2.577,-0.047
2.578,-0.050
2.579,-0.050
2.580,-0.044
2.581,-0.044
2.582,-0.043
2.583,-0.041
2.584,-0.041
2.585,-0.038
2.586,-0.038
2.587,-0.034
2.588,-0.041
2.589,-0.047
2.590,-0.047
2.591,-0.050
2.592,-0.050
2.593,-0.050
2.594,-0.050
2.595,-0.050
2.596,-0.050
2.597,-0.050
2.598,-0.047
2.599,-0.044
2.600,-0.041
2.601,-0.041
2.602,-0.044
2.603,-0.044
2.604,-0.044
2.605,-0.047
2.606,-0.046
2.607,-0.047
2.608,-0.050
2.609,-0.050
2.610,-0.050
2.611,-0.050
2.612,-0.050
2.613,-0.050
2.614,-0.052
2.615,-0.050
2.616,-0.050
2.617,-0.050
2.618,-0.046
2.619,-0.044
2.620,-0.047
2.621,-0.050
2.622,-0.048
2.623,-0.050
2.624,-0.049
2.625,-0.047
2.626,-0.048
2.627,-0.050
2.628,-0.047
2.629,-0.050
2.630,-0.050
2.631,-0.050
2.632,-0.050
2.633,-0.050
2.634,-0.049
2.635,-0.047
2.636,-0.050
2.637,-0.050
2.638,-0.049
2.639,-0.047
2.640,-0.044
2.641,-0.047
2.642,-0.050
2.643,-0.050
2.644,-0.052
2.645,-0.050
2.646,-0.053
2.647,-0.050
2.648,-0.049
2.649,-0.047
2.650,-0.047
2.651,-0.047
2.652,-0.051
2.653,-0.050
2.654,-0.049
2.655,-0.047
2.656,-0.051
2.657,-0.050
2.658,-0.046
2.659,-0.044
2.660,-0.045
2.661,-0.044
2.662,-0.046
2.663,-0.047
2.664,-0.044
2.665,-0.044
2.666,-0.045
2.667,-0.044
2.668,-0.043
2.669,-0.044
2.670,-0.041
2.671,-0.038
2.672,-0.038
2.673,-0.038
2.674,-0.041
2.675,-0.041
2.676,-0.039
2.677,-0.041
2.678,-0.039
2.679,-0.041
2.680,-0.039
2.681,-0.038
2.682,-0.039
2.683,-0.041
2.684,-0.038
2.685,-0.038
2.686,-0.038
2.687,-0.034
2.688,-0.028
2.689,-0.028
2.690,-0.021
2.691,-0.016
2.692,-0.022
2.693,-0.022
2.694,-0.017
2.695,-0.019
2.696,-0.008
2.697,0.000
2.698,0.009
2.699,0.019
2.700,0.024
2.701,0.025
2.702,0.029
2.703,0.034
2.704,0.036
2.705,0.038
2.706,0.039
2.707,0.038
2.708,0.044
2.709,0.050
2.710,0.057
2.711,0.062
2.712,0.061
2.713,0.062
2.714,0.066
2.715,0.066
2.716,0.067
2.717,0.066
2.718,0.067
2.719,0.069
2.720,0.069
2.721,0.069
2.722,0.064
2.723,0.069
2.724,0.069
2.725,0.075
2.726,0.081
2.727,0.081
2.728,0.086
2.729,0.091
2.730,0.098
2.731,0.106
2.732,0.114
2.733,0.122
2.734,0.130
2.735,0.141
2.736,0.156
2.737,0.169
2.738,0.186
2.739,0.197
2.740,0.212
2.741,0.225
2.742,0.231
2.743,0.234
2.744,0.233
2.745,0.225
2.746,0.225
2.747,0.219
2.748,0.219
2.749,0.212
2.750,0.212
2.751,0.212
2.752,0.208
2.753,0.206
2.754,0.205
2.755,0.194
2.756,0.186
2.757,0.181
2.758,0.175
2.759,0.169
2.760,0.161
2.761,0.153
2.762,0.139
2.763,0.125
2.764,0.114
2.765,0.106
2.766,0.092
2.767,0.081
2.768,0.070
2.769,0.059
2.770,0.049
2.771,0.034
2.772,0.022
2.773,0.013
2.774,0.004
2.775,-0.003
2.776,-0.009
2.777,-0.013
2.778,-0.019
2.779,-0.028
2.780,-0.031
2.781,-0.034
2.782,-0.038
2.783,-0.038
2.784,-0.038
2.785,-0.038
2.786,-0.036
2.787,-0.034
2.788,-0.041
2.789,-0.044
2.790,-0.044
2.791,-0.044
2.792,-0.045
2.793,-0.050
2.794,-0.050
2.795,-0.050
2.796,-0.054
2.797,-0.059
2.798,-0.059
2.799,-0.059
2.800,-0.063
2.801,-0.066
2.802,-0.064
2.803,-0.066
2.804,-0.066
2.805,-0.066
2.806,-0.066
2.807,-0.069
2.808,-0.064
2.809,-0.066
2.810,-0.067
2.811,-0.066
2.812,-0.061
2.813,-0.056
2.814,-0.063
2.815,-0.063
2.816,-0.064
2.817,-0.066
2.818,-0.068
2.819,-0.066
2.820,-0.069
2.821,-0.066
2.822,-0.066
2.823,-0.066
2.824,-0.068
2.825,-0.066
2.826,-0.066
2.827,-0.066
2.828,-0.064
2.829,-0.066
2.830,-0.061
2.831,-0.063
2.832,-0.063
2.833,-0.063
2.834,-0.063
2.835,-0.063
2.836,-0.064
2.837,-0.066
2.838,-0.061
2.839,-0.056
2.840,-0.047
2.841,-0.038
2.842,-0.019
2.843,0.000
2.844,0.017
2.845,0.028
2.846,0.045
2.847,0.062
2.848,0.084
2.849,0.097
2.850,0.103
2.851,0.106
2.852,0.098
2.853,0.097
2.854,0.092
2.855,0.091
2.856,0.091
2.857,0.100
2.858,0.125
2.859,0.166
2.860,0.212
2.861,0.266
2.862,0.333
2.863,0.416
2.864,0.546
2.865,0.684
2.866,0.836
2.867,0.991
2.868,1.153
2.869,1.272
2.870,1.314
2.871,1.281
2.872,1.182
2.873,1.094
2.874,1.022
2.875,0.966
2.876,0.889
2.877,0.781
2.878,0.694
2.879,0.613
2.880,0.537
2.881,0.447
2.882,0.353
2.883,0.262
2.884,0.196
2.885,0.134
2.886,0.101
2.887,0.066
2.888,0.036
2.889,0.003
2.890,-0.019
2.891,-0.041
2.892,-0.066
2.893,-0.091
2.894,-0.124
2.895,-0.156
2.896,-0.189
2.897,-0.222
2.898,-0.258
2.899,-0.284
2.900,-0.308
2.901,-0.322
2.902,-0.326
2.903,-0.325
2.904,-0.304
2.905,-0.284
2.906,-0.261
2.907,-0.244
2.908,-0.224
2.909,-0.206
2.910,-0.198
2.911,-0.191
2.912,-0.178
2.913,-0.166
2.914,-0.153
2.915,-0.141
2.916,-0.133
2.917,-0.128
2.918,-0.125
2.919,-0.122
2.920,-0.116
2.921,-0.109
2.922,-0.101
2.923,-0.097
2.924,-0.086
2.925,-0.081
2.926,-0.076
2.927,-0.075
2.928,-0.076
2.929,-0.075
2.930,-0.075
2.931,-0.072
2.932,-0.072
2.933,-0.069
2.934,-0.066
2.935,-0.066
2.936,-0.066
2.937,-0.066
2.938,-0.066
2.939,-0.066
2.940,-0.063
2.941,-0.059
2.942,-0.059
2.943,-0.059
2.944,-0.059
2.945,-0.059
2.946,-0.058
2.947,-0.053
2.948,-0.053
2.949,-0.053
2.950,-0.050
2.951,-0.050
2.952,-0.052
2.953,-0.050
2.954,-0.048
2.955,-0.050
2.956,-0.050
2.957,-0.047
2.958,-0.041
2.959,-0.034
2.960,-0.041
2.961,-0.041
2.962,-0.042
2.963,-0.047
2.964,-0.046
2.965,-0.044
2.966,-0.042
2.967,-0.044
2.968,-0.045
2.969,-0.047
2.970,-0.047
2.971,-0.047
2.972,-0.047
2.973,-0.047
2.974,-0.050
2.975,-0.047
2.976,-0.044
2.977,-0.038
2.978,-0.039
2.979,-0.041
2.980,-0.044
2.981,-0.044
2.982,-0.043
2.983,-0.044
2.984,-0.043
2.985,-0.038
2.986,-0.039
2.987,-0.041
2.988,-0.038
2.989,-0.041
2.990,-0.041
2.991,-0.041
2.992,-0.036
2.993,-0.034
2.994,-0.034
2.995,-0.034
2.996,-0.036
2.997,-0.038
2.998,-0.036
2.999,-0.034
3.000,-0.034
3.001,-0.034
3.002,-0.034
3.003,-0.034
3.004,-0.034
3.005,-0.034
3.006,-0.034
3.007,-0.034
3.008,-0.034
3.009,-0.034
3.010,-0.030
3.011,-0.028
3.012,-0.029
3.013,-0.028
3.014,-0.029
3.015,-0.031
3.016,-0.034
3.017,-0.038
3.018,-0.036
3.019,-0.038
3.020,-0.038
3.021,-0.034
3.022,-0.038
3.023,-0.038
3.024,-0.034
3.025,-0.031
3.026,-0.030
3.027,-0.025
3.028,-0.025
3.029,-0.022
3.030,-0.019
3.031,-0.022
3.032,-0.022
3.033,-0.019
3.034,-0.016
3.035,-0.013
3.036,-0.016
3.037,-0.013
3.038,-0.006
3.039,-0.003
3.040,-0.005
3.041,-0.003
3.042,0.000
3.043,0.000
3.044,0.002
3.045,0.003
3.046,0.001
3.047,0.003
3.048,0.003
3.049,0.003
3.050,0.003
3.051,0.003
3.052,0.003
3.053,0.003
3.054,0.005
3.055,0.006
3.056,0.005
3.057,0.003
3.058,0.005
3.059,0.003
3.060,0.004
3.061,0.009
3.062,0.008
3.063,0.009
3.064,0.009
3.065,0.009
3.066,0.006
3.067,0.003
3.068,0.006
3.069,0.013
3.070,0.013
3.071,0.013
3.072,0.014
3.073,0.016
3.074,0.016
3.075,0.022
3.076,0.022
3.077,0.022
3.078,0.017
3.079,0.016
3.080,0.019
3.081,0.022
3.082,0.025
3.083,0.025
3.084,0.023
3.085,0.025
3.086,0.026
3.087,0.031
3.088,0.031
3.089,0.031
3.090,0.033
3.091,0.031
3.092,0.038
3.093,0.041
3.094,0.039
3.095,0.038
3.096,0.038
3.097,0.038
3.098,0.033
3.099,0.034
3.100,0.033
3.101,0.031
3.102,0.028
3.103,0.031
3.104,0.031
3.105,0.031
3.106,0.028
3.107,0.025
3.108,0.025
3.109,0.025
3.110,0.025
3.111,0.025
3.112,0.025
3.113,0.025
3.114,0.029
3.115,0.031
3.116,0.031
3.117,0.034
3.118,0.036
3.119,0.041
3.120,0.039
3.121,0.038
3.122,0.034
3.123,0.034
3.124,0.036
3.125,0.038
3.126,0.041
3.127,0.041
3.128,0.042
3.129,0.044
3.130,0.045
3.131,0.047
3.132,0.047
3.133,0.044
3.134,0.047
3.135,0.047
3.136,0.047
3.137,0.047
3.138,0.047
3.139,0.050
3.140,0.050
3.141,0.050
3.142,0.056
3.143,0.062
3.144,0.061
3.145,0.062
3.146,0.062
3.147,0.059
3.148,0.061
3.149,0.062
3.150,0.066
3.151,0.069
3.152,0.072
3.153,0.075
3.154,0.075
3.155,0.078
3.156,0.075
3.157,0.072
3.158,0.076
3.159,0.078
3.160,0.081
3.161,0.081
3.162,0.080
3.163,0.078
3.164,0.081
3.165,0.081
3.166,0.082
3.167,0.087
3.168,0.084
3.169,0.087
3.170,0.086
3.171,0.091
3.172,0.091
3.173,0.091
3.174,0.092
3.175,0.097
3.176,0.096
3.177,0.094
3.178,0.092
3.179,0.091
3.180,0.092
3.181,0.094
3.182,0.097
3.183,0.094
3.184,0.092
3.185,0.091
3.186,0.091
3.187,0.091
3.188,0.086
3.189,0.084
3.190,0.078
3.191,0.075
3.192,0.072
3.193,0.072
3.194,0.073
3.195,0.072
3.196,0.072
3.197,0.069
3.198,0.066
3.199,0.066
3.200,0.059
3.201,0.056
3.202,0.053
3.203,0.053
3.204,0.053
3.205,0.053
3.206,0.053
3.207,0.050
3.208,0.047
3.209,0.044
3.210,0.041
3.211,0.041
3.212,0.038
3.213,0.031
3.214,0.036
3.215,0.038
3.216,0.038
3.217,0.034
3.218,0.036
3.219,0.034
3.220,0.034
3.221,0.038
3.222,0.031
3.223,0.031
3.224,0.025
3.225,0.022
3.226,0.021
3.227,0.019
3.228,0.017
3.229,0.016
3.230,0.011
3.231,0.009
3.232,0.006
3.233,0.003
3.234,0.007
3.235,0.009
3.236,0.011
3.237,0.013
3.238,0.013
3.239,0.013
3.240,0.013
3.241,0.009
3.242,0.009
3.243,0.009
3.244,0.008
3.245,0.009
3.246,0.009
3.247,0.006
3.248,0.003
3.249,0.003
3.250,0.006
3.251,0.003
3.252,-0.006
3.253,-0.013
3.254,-0.011
3.255,-0.013
3.256,-0.013
3.257,-0.009
3.258,-0.008
3.259,-0.003
3.260,-0.004
3.261,-0.006
3.262,-0.008
3.263,-0.009
3.264,-0.009
3.265,-0.013
3.266,-0.014
3.267,-0.016
3.268,-0.021
3.269,-0.019
3.270,-0.017
3.271,-0.019
3.272,-0.018
3.273,-0.019
3.274,-0.022
3.275,-0.022
3.276,-0.022
3.277,-0.019
3.278,-0.021
3.279,-0.022
3.280,-0.021
3.281,-0.019
3.282,-0.019
3.283,-0.019
3.284,-0.025
3.285,-0.028
3.286,-0.025
3.287,-0.022
3.288,-0.025
3.289,-0.031
3.290,-0.034
3.291,-0.038
3.292,-0.036
3.293,-0.034
3.294,-0.038
3.295,-0.038
3.296,-0.038
3.297,-0.038
3.298,-0.038
3.299,-0.034
3.300,-0.038
3.301,-0.034
3.302,-0.033
3.303,-0.031
3.304,-0.028
3.305,-0.031
3.306,-0.038
3.307,-0.044
3.308,-0.046
3.309,-0.047
3.310,-0.047
3.311,-0.050
3.312,-0.053
3.313,-0.053
3.314,-0.054
3.315,-0.059
3.316,-0.059
3.317,-0.059
3.318,-0.063
3.319,-0.063
3.320,-0.066
3.321,-0.069
3.322,-0.064
3.323,-0.063
3.324,-0.059
3.325,-0.056
3.326,-0.058
3.327,-0.059
3.328,-0.061
3.329,-0.063
3.330,-0.061
3.331,-0.063
3.332,-0.061
3.333,-0.056
3.334,-0.058
3.335,-0.066
3.336,-0.067
3.337,-0.069
3.338,-0.069
3.339,-0.066
3.340,-0.070
3.341,-0.072
3.342,-0.073
3.343,-0.075
3.344,-0.074
3.345,-0.075
3.346,-0.075
3.347,-0.075
3.348,-0.074
3.349,-0.072
3.350,-0.072
3.351,-0.072
3.352,-0.072
3.353,-0.072
3.354,-0.069
3.355,-0.069
3.356,-0.072
3.357,-0.072
3.358,-0.071
3.359,-0.072
3.360,-0.071
3.361,-0.072
3.362,-0.073
3.363,-0.072
3.364,-0.072
3.365,-0.072
3.366,-0.072
3.367,-0.072
3.368,-0.073
3.369,-0.072
3.370,-0.073
3.371,-0.075
3.372,-0.075
3.373,-0.072
3.374,-0.075
3.375,-0.075
3.376,-0.075
3.377,-0.081
3.378,-0.081
3.379,-0.084
3.380,-0.081
3.381,-0.081
3.382,-0.080
3.383,-0.078
3.384,-0.079
3.385,-0.084
3.386,-0.082
3.387,-0.084
3.388,-0.081
3.389,-0.081
3.390,-0.077
3.391,-0.075
3.392,-0.078
3.393,-0.078
3.394,-0.076
3.395,-0.081
3.396,-0.084
3.397,-0.081
3.398,-0.075
3.399,-0.069
3.400,-0.067
3.401,-0.069
3.402,-0.072
3.403,-0.072
3.404,-0.073
3.405,-0.075
3.406,-0.076
3.407,-0.081
3.408,-0.084
3.409,-0.084
3.410,-0.084
3.411,-0.084
3.412,-0.086
3.413,-0.084
3.414,-0.084
3.415,-0.084
3.416,-0.088
3.417,-0.088
3.418,-0.088
3.419,-0.088
3.420,-0.080
3.421,-0.069
3.422,-0.069
3.423,-0.066
3.424,-0.063
3.425,-0.059
3.426,-0.058
3.427,-0.053
3.428,-0.051
3.429,-0.044
3.430,-0.039
3.431,-0.034
3.432,-0.027
3.433,-0.019
3.434,-0.013
3.435,-0.006
3.436,-0.003
3.437,0.000
3.438,0.000
3.439,0.000
3.440,0.001
3.441,0.009
3.442,0.014
3.443,0.019
3.444,0.023
3.445,0.025
3.446,0.028
3.447,0.028
3.448,0.024
3.449,0.025
3.450,0.025
3.451,0.025
3.452,0.025
3.453,0.025
3.454,0.024
3.455,0.022
3.456,0.030
3.457,0.028
3.458,0.034
3.459,0.044
3.460,0.048
3.461,0.053
3.462,0.055
3.463,0.059
3.464,0.064
3.465,0.075
3.466,0.089
3.467,0.100
3.468,0.112
3.469,0.128
3.470,0.142
3.471,0.159
3.472,0.172
3.473,0.184
3.474,0.191
3.475,0.194
3.476,0.195
3.477,0.197
3.478,0.192
3.479,0.191
3.480,0.182
3.481,0.184
3.482,0.178
3.483,0.178
3.484,0.181
3.485,0.181
3.486,0.181
3.487,0.181
3.488,0.169
3.489,0.156
3.490,0.149
3.491,0.137
3.492,0.127
3.493,0.119
3.494,0.116
3.495,0.106
3.496,0.095
3.497,0.084
3.498,0.072
3.499,0.056
3.500,0.047
3.501,0.034
3.502,0.019
3.503,0.006
3.504,-0.009
3.505,-0.025
3.506,-0.038
3.507,-0.050
3.508,-0.056
3.509,-0.063
3.510,-0.069
3.511,-0.075
3.512,-0.084
3.513,-0.088
3.514,-0.091
3.515,-0.094
3.516,-0.095
3.517,-0.097
3.518,-0.097
3.519,-0.097
3.520,-0.094
3.521,-0.094
3.522,-0.094
3.523,-0.094
3.524,-0.094
3.525,-0.094
3.526,-0.097
3.527,-0.097
3.528,-0.097
3.529,-0.100
3.530,-0.103
3.531,-0.103
3.532,-0.102
3.533,-0.103
3.534,-0.106
3.535,-0.106
3.536,-0.109
3.537,-0.109
3.538,-0.111
3.539,-0.113
3.540,-0.116
3.541,-0.113
3.542,-0.116
3.543,-0.116
3.544,-0.114
3.545,-0.116
3.546,-0.114
3.547,-0.116
3.548,-0.116
3.549,-0.119
3.550,-0.119
3.551,-0.122
3.552,-0.121
3.553,-0.122
3.554,-0.120
3.555,-0.122
3.556,-0.121
3.557,-0.122
3.558,-0.122
3.559,-0.122
3.560,-0.125
3.561,-0.125
3.562,-0.122
3.563,-0.119
3.564,-0.126
3.565,-0.125
3.566,-0.123
3.567,-0.125
3.568,-0.125
3.569,-0.125
3.570,-0.126
3.571,-0.122
3.572,-0.117
3.573,-0.113
3.574,-0.106
3.575,-0.088
3.576,-0.075
3.577,-0.059
3.578,-0.044
3.579,-0.028
3.580,-0.009
3.581,0.016
3.582,0.022
3.583,0.022
3.584,0.029
3.585,0.025
3.586,0.022
3.587,0.016
3.588,0.009
3.589,0.009
3.590,0.023
3.591,0.044
3.592,0.077
3.593,0.125
3.594,0.186
3.595,0.262
3.596,0.350
3.597,0.481
3.598,0.625
3.599,0.778
3.600,0.930
3.601,1.084
3.602,1.159
3.603,1.169
3.604,1.136
3.605,1.019
3.606,0.928
3.607,0.872
3.608,0.816
3.609,0.741
3.610,0.653
3.611,0.578
3.612,0.487
3.613,0.406
3.614,0.329
3.615,0.259
3.616,0.191
3.617,0.141
3.618,0.091
3.619,0.062
3.620,0.031
3.621,0.003
3.622,-0.031
3.623,-0.059
3.624,-0.095
3.625,-0.125
3.626,-0.156
3.627,-0.197
3.628,-0.230
3.629,-0.259
3.630,-0.294
3.631,-0.328
3.632,-0.353
3.633,-0.378
3.634,-0.392
3.635,-0.394
3.636,-0.391
3.637,-0.369
3.638,-0.343
3.639,-0.319
3.640,-0.299
3.641,-0.278
3.642,-0.267
3.643,-0.256
3.644,-0.247
3.645,-0.238
3.646,-0.222
3.647,-0.209
3.648,-0.200
3.649,-0.188
3.650,-0.178
3.651,-0.175
3.652,-0.172
3.653,-0.166
3.654,-0.163
3.655,-0.156
3.656,-0.150
3.657,-0.144
3.658,-0.142
3.659,-0.134
3.660,-0.131
3.661,-0.131
3.662,-0.129
3.663,-0.131
3.664,-0.127
3.665,-0.125
3.666,-0.125
3.667,-0.125
3.668,-0.125
3.669,-0.125
3.670,-0.124
3.671,-0.119
3.672,-0.116
3.673,-0.116
3.674,-0.113
3.675,-0.109
3.676,-0.109
3.677,-0.109
3.678,-0.111
3.679,-0.113
3.680,-0.108
3.681,-0.106
3.682,-0.107
3.683,-0.106
3.684,-0.106
3.685,-0.109
3.686,-0.111
3.687,-0.109
3.688,-0.111
3.689,-0.113
3.690,-0.109
3.691,-0.109
3.692,-0.108
3.693,-0.109
3.694,-0.106
3.695,-0.106
3.696,-0.108
3.697,-0.106
3.698,-0.106
3.699,-0.103
3.700,-0.103
3.701,-0.103
3.702,-0.106
3.703,-0.106
3.704,-0.103
3.705,-0.103
3.706,-0.102
3.707,-0.103
3.708,-0.099
3.709,-0.097
3.710,-0.095
3.711,-0.097
3.712,-0.101
3.713,-0.106
3.714,-0.100
3.715,-0.097
3.716,-0.100
3.717,-0.100
3.718,-0.098
3.719,-0.100
3.720,-0.100
3.721,-0.097
3.722,-0.100
3.723,-0.100
3.724,-0.097
3.725,-0.091
3.726,-0.091
3.727,-0.091
3.728,-0.094
3.729,-0.097
3.730,-0.097
3.731,-0.097
3.732,-0.097
3.733,-0.097
3.734,-0.094
3.735,-0.091
3.736,-0.091
3.737,-0.088
3.738,-0.084
3.739,-0.084
3.740,-0.086
3.741,-0.088
3.742,-0.086
3.743,-0.084
3.744,-0.088
3.745,-0.088
3.746,-0.086
3.747,-0.088
3.748,-0.088
3.749,-0.088
3.750,-0.089
3.751,-0.088
3.752,-0.089
3.753,-0.091
3.754,-0.086
3.755,-0.088
3.756,-0.083
3.757,-0.078
3.758,-0.077
3.759,-0.075
3.760,-0.073
3.761,-0.075
3.762,-0.073
3.763,-0.072
3.764,-0.075
3.765,-0.075
3.766,-0.075
3.767,-0.078
3.768,-0.078
3.769,-0.078
3.770,-0.072
3.771,-0.069
3.772,-0.069
3.773,-0.072
3.774,-0.072
3.775,-0.069
3.776,-0.064
3.777,-0.056
3.778,-0.050
3.779,-0.050
3.780,-0.051
3.781,-0.050
3.782,-0.048
3.783,-0.050
3.784,-0.050
3.785,-0.050
3.786,-0.051
3.787,-0.050
3.788,-0.048
3.789,-0.050
3.790,-0.051
3.791,-0.050
3.792,-0.049
3.793,-0.047
3.794,-0.044
3.795,-0.044
3.796,-0.042
3.797,-0.044
3.798,-0.041
3.799,-0.038
3.800,-0.039
3.801,-0.041
3.802,-0.041
3.803,-0.041
3.804,-0.038
3.805,-0.038
3.806,-0.038
3.807,-0.041
3.808,-0.039
3.809,-0.041
3.810,-0.041
3.811,-0.041
3.812,-0.034
3.813,-0.031
3.814,-0.028
3.815,-0.022
3.816,-0.022
3.817,-0.025
3.818,-0.024
3.819,-0.022
3.820,-0.020
3.821,-0.022
3.822,-0.023
3.823,-0.022
3.824,-0.021
3.825,-0.016
3.826,-0.016
3.827,-0.016
3.828,-0.016
3.829,-0.016
3.830,-0.016
3.831,-0.019
3.832,-0.017
3.833,-0.019
3.834,-0.019
3.835,-0.022
3.836,-0.019
3.837,-0.019
3.838,-0.019
3.839,-0.019
3.840,-0.019
3.841,-0.019
3.842,-0.020
3.843,-0.022
3.844,-0.019
3.845,-0.016
3.846,-0.017
3.847,-0.016
3.848,-0.016
3.849,-0.016
3.850,-0.011
3.851,-0.013
3.852,-0.013
3.853,-0.013
3.854,-0.013
3.855,-0.013
3.856,-0.011
3.857,-0.013
3.858,-0.013
3.859,-0.009
3.860,-0.011
3.861,-0.013
3.862,-0.013
3.863,-0.013
3.864,-0.011
3.865,-0.006
3.866,-0.006
3.867,-0.003
3.868,-0.004
3.869,-0.006
3.870,-0.005
3.871,-0.003
3.872,-0.003
3.873,-0.003
3.874,0.001
3.875,0.003
3.876,0.004
3.877,0.006
3.878,0.011
3.879,0.013
3.880,0.013
3.881,0.019
3.882,0.019
3.883,0.019
3.884,0.021
3.885,0.019
3.886,0.017
3.887,0.019
3.888,0.028
3.889,0.028
3.890,0.025
3.891,0.028
3.892,0.029
3.893,0.034
3.894,0.034
3.895,0.034
3.896,0.031
3.897,0.031
3.898,0.034
3.899,0.038
3.900,0.042
3.901,0.041
3.902,0.044
3.903,0.044
3.904,0.049
3.905,0.047
3.906,0.047
3.907,0.044
3.908,0.045
3.909,0.047
3.910,0.050
3.911,0.053
3.912,0.053
3.913,0.053
3.914,0.052
3.915,0.053
3.916,0.049
3.917,0.047
3.918,0.046
3.919,0.044
3.920,0.045
3.921,0.044
3.922,0.042
3.923,0.038
3.924,0.039
3.925,0.038
3.926,0.036
3.927,0.034
3.928,0.032
3.929,0.034
3.930,0.032
3.931,0.031
3.932,0.032
3.933,0.031
3.934,0.031
3.935,0.028
3.936,0.028
3.937,0.025
3.938,0.019
3.939,0.016
3.940,0.014
3.941,0.016
3.942,0.016
3.943,0.013
3.944,0.013
3.945,0.013
3.946,0.009
3.947,0.009
3.948,0.006
3.949,0.006
3.950,0.003
3.951,0.003
3.952,0.000
3.953,0.000
3.954,0.006
3.955,0.003
3.956,0.000
3.957,-0.006
3.958,-0.006
3.959,-0.006
3.960,-0.006
3.961,-0.009
3.962,-0.009
3.963,-0.009
3.964,-0.009
3.965,-0.009
3.966,-0.009
3.967,-0.009
3.968,-0.013
3.969,-0.013
3.970,-0.013
3.971,-0.013
3.972,-0.013
3.973,-0.013
3.974,-0.011
3.975,-0.006
3.976,-0.008
3.977,-0.009
3.978,-0.009
3.979,-0.013
3.980,-0.014
3.981,-0.016
3.982,-0.017
3.983,-0.016
3.984,-0.020
3.985,-0.025
3.986,-0.024
3.987,-0.019
3.988,-0.019
3.989,-0.022
3.990,-0.022
3.991,-0.025
3.992,-0.025
3.993,-0.025
3.994,-0.022
3.995,-0.019
3.996,-0.018
3.997,-0.016
3.998,-0.019
3.999,-0.019
4.000,-0.020
4.001,-0.028
4.002,-0.029
4.003,-0.028
4.004,-0.028
4.005,-0.028
4.006,-0.031
4.007,-0.034
4.008,-0.033
4.009,-0.031
4.010,-0.028
4.011,-0.031
4.012,-0.036
4.013,-0.038
4.014,-0.038
4.015,-0.038
4.016,-0.039
4.017,-0.044
4.018,-0.047
4.019,-0.050
4.020,-0.049
4.021,-0.047
4.022,-0.050
4.023,-0.050
4.024,-0.047
4.025,-0.044
4.026,-0.043
4.027,-0.044
4.028,-0.045
4.029,-0.047
4.030,-0.048
4.031,-0.050
4.032,-0.046
4.033,-0.050
4.034,-0.050
4.035,-0.050
4.036,-0.051
4.037,-0.050
4.038,-0.052
4.039,-0.050
4.040,-0.050
4.041,-0.053
4.042,-0.058
4.043,-0.056
4.044,-0.055
4.045,-0.056
4.046,-0.056
4.047,-0.056
4.048,-0.058
4.049,-0.056
4.050,-0.056
4.051,-0.059
4.052,-0.061
4.053,-0.063
4.054,-0.064
4.055,-0.066
4.056,-0.068
4.057,-0.066
4.058,-0.061
4.059,-0.056
4.060,-0.056
4.061,-0.056
4.062,-0.056
4.063,-0.056
4.064,-0.059
4.065,-0.059
4.066,-0.056
4.067,-0.056
4.068,-0.063
4.069,-0.063
4.070,-0.063
4.071,-0.063
4.072,-0.061
4.073,-0.066
4.074,-0.064
4.075,-0.063
4.076,-0.061
4.077,-0.059
4.078,-0.063
4.079,-0.063
4.080,-0.064
4.081,-0.066
4.082,-0.066
4.083,-0.066
4.084,-0.066
4.085,-0.066
4.086,-0.067
4.087,-0.066
4.088,-0.064
4.089,-0.066
4.090,-0.067
4.091,-0.069
4.092,-0.071
4.093,-0.069
4.094,-0.072
4.095,-0.072
4.096,-0.068
4.097,-0.069
4.098,-0.068
4.099,-0.066
4.100,-0.067
4.101,-0.066
4.102,-0.070
4.103,-0.072
4.104,-0.068
4.105,-0.069
4.106,-0.069
4.107,-0.072
4.108,-0.070
4.109,-0.072
4.110,-0.073
4.111,-0.075
4.112,-0.074
4.113,-0.075
4.114,-0.072
4.115,-0.072
4.116,-0.075
4.117,-0.081
4.118,-0.077
4.119,-0.075
4.120,-0.078
4.121,-0.078
4.122,-0.074
4.123,-0.075
4.124,-0.078
4.125,-0.075
4.126,-0.075
4.127,-0.075
4.128,-0.072
4.129,-0.072
4.130,-0.075
4.131,-0.075
4.132,-0.078
4.133,-0.081
4.134,-0.080
4.135,-0.081
4.136,-0.081
4.137,-0.078
4.138,-0.077
4.139,-0.075
4.140,-0.079
4.141,-0.081
4.142,-0.082
4.143,-0.084
4.144,-0.084
4.145,-0.081
4.146,-0.080
4.147,-0.078
4.148,-0.076
4.149,-0.072
4.150,-0.073
4.151,-0.072
4.152,-0.072
4.153,-0.072
4.154,-0.064
4.155,-0.053
4.156,-0.053
4.157,-0.047
4.158,-0.041
4.159,-0.034
4.160,-0.024
4.161,-0.013
4.162,-0.011
4.163,-0.009
4.164,-0.003
4.165,0.003
4.166,0.005
4.167,0.006
4.168,0.007
4.169,0.016
4.170,0.023
4.171,0.031
4.172,0.036
4.173,0.038
4.174,0.042
4.175,0.044
4.176,0.038
4.177,0.038
4.178,0.039
4.179,0.041
4.180,0.042
4.181,0.044
4.182,0.041
4.183,0.038
4.184,0.044
4.185,0.041
4.186,0.047
4.187,0.056
4.188,0.061
4.189,0.066
4.190,0.066
4.191,0.069
4.192,0.067
4.193,0.072
4.194,0.081
4.195,0.087
4.196,0.103
4.197,0.122
4.198,0.134
4.199,0.150
4.200,0.162
4.201,0.175
4.202,0.191
4.203,0.203
4.204,0.209
4.205,0.216
4.206,0.211
4.207,0.209
4.208,0.200
4.209,0.200
4.210,0.194
4.211,0.194
4.212,0.191
4.213,0.184
4.214,0.187
4.215,0.191
4.216,0.182
4.217,0.175
4.218,0.169
4.219,0.159
4.220,0.151
4.221,0.147
4.222,0.144
4.223,0.134
4.224,0.122
4.225,0.109
4.226,0.099
4.227,0.084
4.228,0.074
4.229,0.059
4.230,0.046
4.231,0.034
4.232,0.023
4.233,0.013
4.234,0.003
4.235,-0.006
4.236,-0.017
4.237,-0.028
4.238,-0.039
4.239,-0.050
4.240,-0.059
4.241,-0.063
4.242,-0.067
4.243,-0.072
4.244,-0.078
4.245,-0.084
4.246,-0.086
4.247,-0.088
4.248,-0.086
4.249,-0.088
4.250,-0.084
4.251,-0.081
4.252,-0.078
4.253,-0.075
4.254,-0.078
4.255,-0.078
4.256,-0.081
4.257,-0.088
4.258,-0.089
4.259,-0.088
4.260,-0.084
4.261,-0.084
4.262,-0.088
4.263,-0.088
4.264,-0.091
4.265,-0.091
4.266,-0.095
4.267,-0.100
4.268,-0.100
4.269,-0.094
4.270,-0.096
4.271,-0.094
4.272,-0.094
4.273,-0.097
4.274,-0.097
4.275,-0.100
4.276,-0.100
4.277,-0.103
4.278,-0.103
4.279,-0.106
4.280,-0.105
4.281,-0.106
4.282,-0.104
4.283,-0.106
4.284,-0.105
4.285,-0.106
4.286,-0.106
4.287,-0.106
4.288,-0.106
4.289,-0.103
4.290,-0.102
4.291,-0.100
4.292,-0.106
4.293,-0.103
4.294,-0.101
4.295,-0.103
4.296,-0.102
4.297,-0.100
4.298,-0.101
4.299,-0.097
4.300,-0.094
4.301,-0.091
4.302,-0.086
4.303,-0.069
4.304,-0.051
4.305,-0.031
4.306,-0.014
4.307,0.003
4.308,0.022
4.309,0.047
4.310,0.059
4.311,0.066
4.312,0.076
4.313,0.075
4.314,0.075
4.315,0.072
4.316,0.062
4.317,0.059
4.318,0.072
4.319,0.091
4.320,0.122
4.321,0.169
4.322,0.221
4.323,0.287
4.324,0.369
4.325,0.494
4.326,0.625
4.327,0.766
4.328,0.941
4.329,1.119
4.330,1.273
4.331,1.362
4.332,1.341
4.333,1.234
4.334,1.128
4.335,1.056
4.336,1.006
4.337,0.937
4.338,0.828
4.339,0.731
4.340,0.650
4.341,0.578
4.342,0.478
4.343,0.384
4.344,0.292
4.345,0.219
4.346,0.158
4.347,0.119
4.348,0.072
4.349,0.028
4.350,-0.020
4.351,-0.063
4.352,-0.101
4.353,-0.134
4.354,-0.159
4.355,-0.194
4.356,-0.228
4.357,-0.259
4.358,-0.287
4.359,-0.316
4.360,-0.334
4.361,-0.353
4.362,-0.366
4.363,-0.366
4.364,-0.356
4.365,-0.328
4.366,-0.302
4.367,-0.278
4.368,-0.261
4.369,-0.244
4.370,-0.231
4.371,-0.219
4.372,-0.209
4.373,-0.200
4.374,-0.191
4.375,-0.184
4.376,-0.175
4.377,-0.163
4.378,-0.146
4.379,-0.134
4.380,-0.131
4.381,-0.125
4.382,-0.120
4.383,-0.113
4.384,-0.109
4.385,-0.106
4.386,-0.105
4.387,-0.097
4.388,-0.095
4.389,-0.097
4.390,-0.089
4.391,-0.084
4.392,-0.084
4.393,-0.088
4.394,-0.088
4.395,-0.088
4.396,-0.084
4.397,-0.081
4.398,-0.080
4.399,-0.075
4.400,-0.072
4.401,-0.072
4.402,-0.073
4.403,-0.075
4.404,-0.074
4.405,-0.072
4.406,-0.072
4.407,-0.072
4.408,-0.070
4.409,-0.072
4.410,-0.073
4.411,-0.072
4.412,-0.071
4.413,-0.072
4.414,-0.073
4.415,-0.072
4.416,-0.072
4.417,-0.072
4.418,-0.070
4.419,-0.072
4.420,-0.069
4.421,-0.069
4.422,-0.066
4.423,-0.066
4.424,-0.069
4.425,-0.069
4.426,-0.070
4.427,-0.069
4.428,-0.068
4.429,-0.066
4.430,-0.067
4.431,-0.066
4.432,-0.063
4.433,-0.063
4.434,-0.059
4.435,-0.059
4.436,-0.056
4.437,-0.056
4.438,-0.054
4.439,-0.056
4.440,-0.058
4.441,-0.059
4.442,-0.056
4.443,-0.056
4.444,-0.059
4.445,-0.059
4.446,-0.053
4.447,-0.050
4.448,-0.051
4.449,-0.050
4.450,-0.053
4.451,-0.053
4.452,-0.054
4.453,-0.053
4.454,-0.053
4.455,-0.053
4.456,-0.053
4.457,-0.053
4.458,-0.053
4.459,-0.053
4.460,-0.054
4.461,-0.056
4.462,-0.055
4.463,-0.053
4.464,-0.053
4.465,-0.050
4.466,-0.048
4.467,-0.050
4.468,-0.049
4.469,-0.047
4.470,-0.047
4.471,-0.047
4.472,-0.050
4.473,-0.050
4.474,-0.047
4.475,-0.047
4.476,-0.047
4.477,-0.047
4.478,-0.050
4.479,-0.050
4.480,-0.047
4.481,-0.044
4.482,-0.044
4.483,-0.050
4.484,-0.050
4.485,-0.050
4.486,-0.051
4.487,-0.053
4.488,-0.053
4.489,-0.056
4.490,-0.053
4.491,-0.050
4.492,-0.053
4.493,-0.053
4.494,-0.050
4.495,-0.050
4.496,-0.051
4.497,-0.053
4.498,-0.047
4.499,-0.044
4.500,-0.043
4.501,-0.044
4.502,-0.039
4.503,-0.031
4.504,-0.034
4.505,-0.034
4.506,-0.031
4.507,-0.034
4.508,-0.036
4.509,-0.034
4.510,-0.031
4.511,-0.031
4.512,-0.030
4.513,-0.028
4.514,-0.028
4.515,-0.025
4.516,-0.022
4.517,-0.022
4.518,-0.022
4.519,-0.019
4.520,-0.019
4.521,-0.019
4.522,-0.016
4.523,-0.016
4.524,-0.013
4.525,-0.013
4.526,-0.014
4.527,-0.016
4.528,-0.016
4.529,-0.016
4.530,-0.014
4.531,-0.013
4.532,-0.009
4.533,-0.009
4.534,-0.006
4.535,-0.006
4.536,-0.004
4.537,-0.006
4.538,-0.008
4.539,-0.009
4.540,-0.006
4.541,-0.006
4.542,-0.005
4.543,0.000
4.544,0.000
4.545,-0.003
4.546,-0.003
4.547,-0.003
4.548,0.001
4.549,0.003
4.550,0.002
4.551,0.003
4.552,0.003
4.553,0.006
4.554,0.005
4.555,0.003
4.556,0.003
4.557,0.003
4.558,0.003
4.559,0.000
4.560,0.002
4.561,0.000
4.562,0.001
4.563,0.000
4.564,0.002
4.565,0.000
4.566,0.001
4.567,0.003
4.568,0.003
4.569,0.003
4.570,0.003
4.571,0.003
4.572,0.003
4.573,0.003
4.574,0.006
4.575,0.013
4.576,0.011
4.577,0.009
4.578,0.014
4.579,0.013
4.580,0.011
4.581,0.009
4.582,0.009
4.583,0.009
4.584,0.013
4.585,0.013
4.586,0.014
4.587,0.019
4.588,0.017
4.589,0.016
4.590,0.019
4.591,0.022
4.592,0.021
4.593,0.022
4.594,0.019
4.595,0.019
4.596,0.019
4.597,0.019
4.598,0.020
4.599,0.022
4.600,0.022
4.601,0.022
4.602,0.028
4.603,0.031
4.604,0.028
4.605,0.025
4.606,0.028
4.607,0.028
4.608,0.024
4.609,0.025
4.610,0.029
4.611,0.034
4.612,0.039
4.613,0.041
4.614,0.041
4.615,0.044
4.616,0.051
4.617,0.050
4.618,0.048
4.619,0.053
4.620,0.056
4.621,0.062
4.622,0.059
4.623,0.056
4.624,0.056
4.625,0.059
4.626,0.058
4.627,0.056
4.628,0.059
4.629,0.056
4.630,0.058
4.631,0.056
4.632,0.062
4.633,0.062
4.634,0.064
4.635,0.062
4.636,0.062
4.637,0.062
4.638,0.062
4.639,0.062
4.640,0.062
4.641,0.062
4.642,0.061
4.643,0.062
4.644,0.058
4.645,0.056
4.646,0.055
4.647,0.053
4.648,0.057
4.649,0.059
4.650,0.059
4.651,0.056
4.652,0.055
4.653,0.050
4.654,0.049
4.655,0.047
4.656,0.044
4.657,0.044
4.658,0.042
4.659,0.041
4.660,0.041
4.661,0.038
4.662,0.039
4.663,0.038
4.664,0.041
4.665,0.041
4.666,0.034
4.667,0.031
4.668,0.028
4.669,0.028
4.670,0.029
4.671,0.028
4.672,0.027
4.673,0.025
4.674,0.022
4.675,0.022
4.676,0.019
4.677,0.019
4.678,0.016
4.679,0.016
4.680,0.014
4.681,0.016
4.682,0.017
4.683,0.009
4.684,0.009
4.685,0.006
4.686,0.006
4.687,0.006
4.688,0.007
4.689,0.006
4.690,0.006
4.691,0.006
4.692,0.006
4.693,0.006
4.694,0.006
4.695,0.006
4.696,0.004
4.697,0.006
4.698,0.005
4.699,0.003
4.700,0.002
4.701,0.000
4.702,-0.004
4.703,-0.006
4.704,-0.006
4.705,-0.006
4.706,-0.004
4.707,-0.006
4.708,-0.008
4.709,-0.009
4.710,-0.009
4.711,-0.006
4.712,-0.008
4.713,-0.009
4.714,-0.008
4.715,-0.003
4.716,-0.004
4.717,-0.009
4.718,-0.008
4.719,-0.009
4.720,-0.011
4.721,-0.013
4.722,-0.013
4.723,-0.013
4.724,-0.009
4.725,-0.006
4.726,-0.009
4.727,-0.009
4.728,-0.009
4.729,-0.016
4.730,-0.019
4.731,-0.019
4.732,-0.019
4.733,-0.019
4.734,-0.019
4.735,-0.019
4.736,-0.020
4.737,-0.022
4.738,-0.020
4.739,-0.025
4.740,-0.027
4.741,-0.025
4.742,-0.026
4.743,-0.028
4.744,-0.027
4.745,-0.028
4.746,-0.028
4.747,-0.028
4.748,-0.027
4.749,-0.025
4.750,-0.031
4.751,-0.034
4.752,-0.033
4.753,-0.031
4.754,-0.030
4.755,-0.031
4.756,-0.031
4.757,-0.031
4.758,-0.033
4.759,-0.034
4.760,-0.030
4.761,-0.034
4.762,-0.036
4.763,-0.038
4.764,-0.039
4.765,-0.038
4.766,-0.042
4.767,-0.044
4.768,-0.043
4.769,-0.044
4.770,-0.050
4.771,-0.050
4.772,-0.049
4.773,-0.050
4.774,-0.051
4.775,-0.053
4.776,-0.055
4.777,-0.053
4.778,-0.053
4.779,-0.056
4.780,-0.056
4.781,-0.056
4.782,-0.056
4.783,-0.056
4.784,-0.058
4.785,-0.056
4.786,-0.058
4.787,-0.059
4.788,-0.061
4.789,-0.063
4.790,-0.059
4.791,-0.056
4.792,-0.059
4.793,-0.059
4.794,-0.058
4.795,-0.059
4.796,-0.066
4.797,-0.066
4.798,-0.067
4.799,-0.069
4.800,-0.064
4.801,-0.066
4.802,-0.067
4.803,-0.069
4.804,-0.070
4.805,-0.072
4.806,-0.074
4.807,-0.072
4.808,-0.071
4.809,-0.069
4.810,-0.069
4.811,-0.069
4.812,-0.069
4.813,-0.069
4.814,-0.069
4.815,-0.066
4.816,-0.064
4.817,-0.066
4.818,-0.066
4.819,-0.066
4.820,-0.070
4.821,-0.072
4.822,-0.075
4.823,-0.075
4.824,-0.072
4.825,-0.072
4.826,-0.072
4.827,-0.072
4.828,-0.072
4.829,-0.072
4.830,-0.075
4.831,-0.075
4.832,-0.075
4.833,-0.075
4.834,-0.071
4.835,-0.072
4.836,-0.075
4.837,-0.075
4.838,-0.077
4.839,-0.075
4.840,-0.079
4.841,-0.078
4.842,-0.078
4.843,-0.078
4.844,-0.077
4.845,-0.075
4.846,-0.077
4.847,-0.072
4.848,-0.072
4.849,-0.072
4.850,-0.076
4.851,-0.075
4.852,-0.074
4.853,-0.075
4.854,-0.076
4.855,-0.075
4.856,-0.077
4.857,-0.078
4.858,-0.076
4.859,-0.078
4.860,-0.079
4.861,-0.078
4.862,-0.077
4.863,-0.078
4.864,-0.079
4.865,-0.081
4.866,-0.081
4.867,-0.081
4.868,-0.081
4.869,-0.078
4.870,-0.074
4.871,-0.072
4.872,-0.072
4.873,-0.075
4.874,-0.074
4.875,-0.072
4.876,-0.073
4.877,-0.075
4.878,-0.073
4.879,-0.075
4.880,-0.076
4.881,-0.075
4.882,-0.069
4.883,-0.069
4.884,-0.067
4.885,-0.069
4.886,-0.073
4.887,-0.072
4.888,-0.063
4.889,-0.059
4.890,-0.049
4.891,-0.041
4.892,-0.031
4.893,-0.022
4.894,-0.014
4.895,-0.009
4.896,-0.005
4.897,0.000
4.898,0.003
4.899,0.006
4.900,0.008
4.901,0.006
4.902,0.006
4.903,0.006
4.904,0.016
4.905,0.022
4.906,0.022
4.907,0.025
4.908,0.028
4.909,0.028
4.910,0.031
4.911,0.031
4.912,0.031
4.913,0.031
4.914,0.036
4.915,0.041
4.916,0.034
4.917,0.038
4.918,0.039
4.919,0.047
4.920,0.055
4.921,0.056
4.922,0.055
4.923,0.053
4.924,0.058
4.925,0.062
4.926,0.078
4.927,0.094
4.928,0.106
4.929,0.122
4.930,0.137
4.931,0.150
4.932,0.166
4.933,0.175
4.934,0.183
4.935,0.187
4.936,0.192
4.937,0.194
4.938,0.194
4.939,0.187
4.940,0.186
4.941,0.178
4.942,0.179
4.943,0.175
4.944,0.175
4.945,0.175
4.946,0.173
4.947,0.175
4.948,0.175
4.949,0.166
4.950,0.150
4.951,0.137
4.952,0.131
4.953,0.125
4.954,0.117
4.955,0.109
4.956,0.097
4.957,0.084
4.958,0.075
4.959,0.069
4.960,0.056
4.961,0.047
4.962,0.038
4.963,0.028
4.964,0.020
4.965,0.009
4.966,-0.008
4.967,-0.022
4.968,-0.033
4.969,-0.044
4.970,-0.054
4.971,-0.063
4.972,-0.068
4.973,-0.075
4.974,-0.078
4.975,-0.081
4.976,-0.086
4.977,-0.088
4.978,-0.089
4.979,-0.091
4.980,-0.089
4.981,-0.088
4.982,-0.094
4.983,-0.097
4.984,-0.100
4.985,-0.103
4.986,-0.100
4.987,-0.100
4.988,-0.099
4.989,-0.097
4.990,-0.100
4.991,-0.103
4.992,-0.103
4.993,-0.103
4.994,-0.106
4.995,-0.109
4.996,-0.113
4.997,-0.119
4.998,-0.119
4.999,-0.119
5.000,-0.116
5.001,-0.116
5.002,-0.114
5.003,-0.119
5.004,-0.120
5.005,-0.119
5.006,-0.118
5.007,-0.116
5.008,-0.116
5.009,-0.109
5.010,-0.109
5.011,-0.109
5.012,-0.111
5.013,-0.109
5.014,-0.114
5.015,-0.113
5.016,-0.113
5.017,-0.113
5.018,-0.116
5.019,-0.116
5.020,-0.114
5.021,-0.113
5.022,-0.109
5.023,-0.109
5.024,-0.108
5.025,-0.113
5.026,-0.113
5.027,-0.113
5.028,-0.113
5.029,-0.113
5.030,-0.111
5.031,-0.109
5.032,-0.103
5.033,-0.097
5.034,-0.092
5.035,-0.088
5.036,-0.066
5.037,-0.044
5.038,-0.023
5.039,-0.009
5.040,0.007
5.041,0.025
5.042,0.047
5.043,0.059
5.044,0.066
5.045,0.069
5.046,0.061
5.047,0.059
5.048,0.053
5.049,0.050
5.050,0.054
5.051,0.069
5.052,0.097
5.053,0.141
5.054,0.191
5.055,0.247
5.056,0.323
5.057,0.416
5.058,0.546
5.059,0.684
5.060,0.844
5.061,1.006
5.062,1.170
5.063,1.291
5.064,1.319
5.065,1.272
5.066,1.164
5.067,1.066
5.068,0.987
5.069,0.925
5.070,0.846
5.071,0.734
5.072,0.644
5.073,0.559
5.074,0.478
5.075,0.381
5.076,0.294
5.077,0.209
5.078,0.148
5.079,0.094
5.080,0.058
5.081,0.019
5.082,-0.016
5.083,-0.053
5.084,-0.086
5.085,-0.119
5.086,-0.148
5.087,-0.178
5.088,-0.209
5.089,-0.241
5.090,-0.271
5.091,-0.300
5.092,-0.325
5.093,-0.341
5.094,-0.355
5.095,-0.359
5.096,-0.353
5.097,-0.341
5.098,-0.314
5.099,-0.287
5.100,-0.269
5.101,-0.256
5.102,-0.244
5.103,-0.234
5.104,-0.222
5.105,-0.209
5.106,-0.196
5.107,-0.181
5.108,-0.173
5.109,-0.166
5.110,-0.156
5.111,-0.150
5.112,-0.144
5.113,-0.138
5.114,-0.131
5.115,-0.125
5.116,-0.117
5.117,-0.113
5.118,-0.105
5.119,-0.103
5.120,-0.100
5.121,-0.100
5.122,-0.101
5.123,-0.100
5.124,-0.103
5.125,-0.103
5.126,-0.104
5.127,-0.103
5.128,-0.101
5.129,-0.103
5.130,-0.097
5.131,-0.091
5.132,-0.089
5.133,-0.088
5.134,-0.088
5.135,-0.088
5.136,-0.088
5.137,-0.088
5.138,-0.088
5.139,-0.088
5.140,-0.091
5.141,-0.091
5.142,-0.089
5.143,-0.088
5.144,-0.086
5.145,-0.088
5.146,-0.089
5.147,-0.088
5.148,-0.084
5.149,-0.084
5.150,-0.088
5.151,-0.088
5.152,-0.083
5.153,-0.078
5.154,-0.078
5.155,-0.072
5.156,-0.071
5.157,-0.072
5.158,-0.073
5.159,-0.075
5.160,-0.073
5.161,-0.075
5.162,-0.075
5.163,-0.075
5.164,-0.073
5.165,-0.072
5.166,-0.072
5.167,-0.072
5.168,-0.075
5.169,-0.072
5.170,-0.072
5.171,-0.069
5.172,-0.069
5.173,-0.069
5.174,-0.070
5.175,-0.069
5.176,-0.068
5.177,-0.069
5.178,-0.072
5.179,-0.072
5.180,-0.071
5.181,-0.069
5.182,-0.066
5.183,-0.069
5.184,-0.069
5.185,-0.069
5.186,-0.067
5.187,-0.069
5.188,-0.069
5.189,-0.069
5.190,-0.066
5.191,-0.063
5.192,-0.063
5.193,-0.063
5.194,-0.063
5.195,-0.063
5.196,-0.061
5.197,-0.059
5.198,-0.058
5.199,-0.056
5.200,-0.056
5.201,-0.056
5.202,-0.055
5.203,-0.053
5.204,-0.050
5.205,-0.050
5.206,-0.051
5.207,-0.050
5.208,-0.050
5.209,-0.050
5.210,-0.049
5.211,-0.047
5.212,-0.044
5.213,-0.044
5.214,-0.043
5.215,-0.038
5.216,-0.041
5.217,-0.041
5.218,-0.042
5.219,-0.044
5.220,-0.043
5.221,-0.038
5.222,-0.041
5.223,-0.041
5.224,-0.038
5.225,-0.041
5.226,-0.039
5.227,-0.034
5.228,-0.034
5.229,-0.034
5.230,-0.036
5.231,-0.031
5.232,-0.028
5.233,-0.028
5.234,-0.028
5.235,-0.025
5.236,-0.021
5.237,-0.019
5.238,-0.017
5.239,-0.016
5.240,-0.018
5.241,-0.016
5.242,-0.016
5.243,-0.016
5.244,-0.017
5.245,-0.019
5.246,-0.018
5.247,-0.016
5.248,-0.013
5.249,-0.009
5.250,-0.011
5.251,-0.013
5.252,-0.009
5.253,-0.009
5.254,-0.008
5.255,-0.003
5.256,-0.003
5.257,0.000
5.258,0.001
5.259,0.003
5.260,0.003
5.261,0.003
5.262,0.003
5.263,0.006
5.264,0.009
5.265,0.013
5.266,0.013
5.267,0.013
5.268,0.008
5.269,0.009
5.270,0.009
5.271,0.009
5.272,0.009
5.273,0.013
5.274,0.016
5.275,0.019
5.276,0.019
5.277,0.016
5.278,0.013
5.279,0.013
5.280,0.017
5.281,0.025
5.282,0.024
5.283,0.022
5.284,0.024
5.285,0.022
5.286,0.022
5.287,0.019
5.288,0.017
5.289,0.016
5.290,0.019
5.291,0.022
5.292,0.020
5.293,0.025
5.294,0.025
5.295,0.025
5.296,0.022
5.297,0.025
5.298,0.026
5.299,0.028
5.300,0.027
5.301,0.025
5.302,0.026
5.303,0.028
5.304,0.027
5.305,0.025
5.306,0.025
5.307,0.025
5.308,0.032
5.309,0.038
5.310,0.036
5.311,0.038
5.312,0.036
5.313,0.038
5.314,0.038
5.315,0.038
5.316,0.036
5.317,0.038
5.318,0.038
5.319,0.038
5.320,0.039
5.321,0.038
5.322,0.036
5.323,0.034
5.324,0.036
5.325,0.038
5.326,0.041
5.327,0.041
5.328,0.045
5.329,0.047
5.330,0.047
5.331,0.047
5.332,0.048
5.333,0.053
5.334,0.053
5.335,0.053
5.336,0.056
5.337,0.059
5.338,0.058
5.339,0.059
5.340,0.059
5.341,0.056
5.342,0.061
5.343,0.066
5.344,0.067
5.345,0.069
5.346,0.070
5.347,0.072
5.348,0.075
5.349,0.081
5.350,0.079
5.351,0.078
5.352,0.081
5.353,0.081
5.354,0.086
5.355,0.087
5.356,0.087
5.357,0.087
5.358,0.089
5.359,0.087
5.360,0.087
5.361,0.091
5.362,0.086
5.363,0.087
5.364,0.086
5.365,0.091
5.366,0.089
5.367,0.087
5.368,0.087
5.369,0.091
5.370,0.092
5.371,0.094
5.372,0.092
5.373,0.091
5.374,0.094
5.375,0.097
5.376,0.099
5.377,0.094
5.378,0.091
5.379,0.087
5.380,0.086
5.381,0.084
5.382,0.082
5.383,0.084
5.384,0.082
5.385,0.084
5.386,0.078
5.387,0.075
5.388,0.074
5.389,0.069
5.390,0.070
5.391,0.069
5.392,0.067
5.393,0.069
5.394,0.064
5.395,0.062
5.396,0.056
5.397,0.053
5.398,0.051
5.399,0.050
5.400,0.049
5.401,0.044
5.402,0.045
5.403,0.047
5.404,0.044
5.405,0.044
5.406,0.045
5.407,0.044
5.408,0.045
5.409,0.044
5.410,0.042
5.411,0.038
5.412,0.036
5.413,0.031
5.414,0.031
5.415,0.034
5.416,0.031
5.417,0.034
5.418,0.031
5.419,0.031
5.420,0.032
5.421,0.034
5.422,0.032
5.423,0.031
5.424,0.027
5.425,0.025
5.426,0.025
5.427,0.025
5.428,0.024
5.429,0.019
5.430,0.019
5.431,0.019
5.432,0.014
5.433,0.009
5.434,0.009
5.435,0.006
5.436,0.006
5.437,0.006
5.438,0.003
5.439,0.003
5.440,0.006
5.441,0.006
5.442,0.003
5.443,0.003
5.444,0.006
5.445,0.003
5.446,0.000
5.447,0.000
5.448,0.004
5.449,0.006
5.450,0.002
5.451,0.000
5.452,-0.002
5.453,0.000
5.454,0.003
5.455,0.006
5.456,0.005
5.457,0.003
5.458,0.004
5.459,0.003
5.460,0.003
5.461,0.003
5.462,-0.006
5.463,-0.009
5.464,-0.003
5.465,0.000
5.466,0.001
5.467,0.000
5.468,-0.004
5.469,-0.006
5.470,-0.006
5.471,-0.003
5.472,-0.008
5.473,-0.013
5.474,-0.013
5.475,-0.013
5.476,-0.011
5.477,-0.009
5.478,-0.014
5.479,-0.016
5.480,-0.016
5.481,-0.016
5.482,-0.016
5.483,-0.019
5.484,-0.022
5.485,-0.025
5.486,-0.024
5.487,-0.022
5.488,-0.025
5.489,-0.025
5.490,-0.024
5.491,-0.022
5.492,-0.022
5.493,-0.019
5.494,-0.024
5.495,-0.022
5.496,-0.022
5.497,-0.022
5.498,-0.018
5.499,-0.019
5.500,-0.022
5.501,-0.025
5.502,-0.028
5.503,-0.031
5.504,-0.027
5.505,-0.025
5.506,-0.028
5.507,-0.028
5.508,-0.027
5.509,-0.028
5.510,-0.029
5.511,-0.031
5.512,-0.033
5.513,-0.031
5.514,-0.033
5.515,-0.034
5.516,-0.036
5.517,-0.041
5.518,-0.042
5.519,-0.044
5.520,-0.043
5.521,-0.041
5.522,-0.041
5.523,-0.041
5.524,-0.038
5.525,-0.038
5.526,-0.039
5.527,-0.038
5.528,-0.036
5.529,-0.041
5.530,-0.041
5.531,-0.041
5.532,-0.042
5.533,-0.041
5.534,-0.045
5.535,-0.047
5.536,-0.044
5.537,-0.041
5.538,-0.041
5.539,-0.044
5.540,-0.045
5.541,-0.047
5.542,-0.047
5.543,-0.047
5.544,-0.048
5.545,-0.050
5.546,-0.049
5.547,-0.047
5.548,-0.044
5.549,-0.044
5.550,-0.046
5.551,-0.047
5.552,-0.047
5.553,-0.047
5.554,-0.048
5.555,-0.047
5.556,-0.050
5.557,-0.050
5.558,-0.046
5.559,-0.047
5.560,-0.047
5.561,-0.050
5.562,-0.048
5.563,-0.050
5.564,-0.050
5.565,-0.050
5.566,-0.050
5.567,-0.053
5.568,-0.051
5.569,-0.053
5.570,-0.052
5.571,-0.053
5.572,-0.053
5.573,-0.056
5.574,-0.058
5.575,-0.056
5.576,-0.052
5.577,-0.053
5.578,-0.058
5.579,-0.056
5.580,-0.056
5.581,-0.056
5.582,-0.053
5.583,-0.053
5.584,-0.059
5.585,-0.063
5.586,-0.063
5.587,-0.063
5.588,-0.059
5.589,-0.059
5.590,-0.063
5.591,-0.063
5.592,-0.063
5.593,-0.063
5.594,-0.066
5.595,-0.066
5.596,-0.064
5.597,-0.063
5.598,-0.064
5.599,-0.063
5.600,-0.061
5.601,-0.059
5.602,-0.058
5.603,-0.053
5.604,-0.052
5.605,-0.047
5.606,-0.050
5.607,-0.053
5.608,-0.047
5.609,-0.038
5.610,-0.038
5.611,-0.031
5.612,-0.025
5.613,-0.019
5.614,-0.009
5.615,0.000
5.616,0.002
5.617,0.003
5.618,0.007
5.619,0.013
5.620,0.014
5.621,0.016
5.622,0.013
5.623,0.016
5.624,0.025
5.625,0.034
5.626,0.036
5.627,0.034
5.628,0.034
5.629,0.031
5.630,0.031
5.631,0.038
5.632,0.041
5.633,0.044
5.634,0.045
5.635,0.047
5.636,0.046
5.637,0.044
5.638,0.049
5.639,0.044
5.640,0.051
5.641,0.062
5.642,0.064
5.643,0.066
5.644,0.069
5.645,0.075
5.646,0.078
5.647,0.087
5.648,0.104
5.649,0.119
5.650,0.127
5.651,0.137
5.652,0.150
5.653,0.166
5.654,0.178
5.655,0.191
5.656,0.198
5.657,0.203
5.658,0.204
5.659,0.206
5.660,0.201
5.661,0.200
5.662,0.189
5.663,0.187
5.664,0.180
5.665,0.178
5.666,0.178
5.667,0.175
5.668,0.176
5.669,0.178
5.670,0.170
5.671,0.162
5.672,0.157
5.673,0.150
5.674,0.141
5.675,0.134
5.676,0.131
5.677,0.122
5.678,0.111
5.679,0.100
5.680,0.087
5.681,0.072
5.682,0.064
5.683,0.053
5.684,0.038
5.685,0.025
5.686,0.013
5.687,0.000
5.688,-0.009
5.689,-0.019
5.690,-0.025
5.691,-0.031
5.692,-0.038
5.693,-0.044
5.694,-0.054
5.695,-0.059
5.696,-0.064
5.697,-0.069
5.698,-0.073
5.699,-0.078
5.700,-0.081
5.701,-0.084
5.702,-0.083
5.703,-0.084
5.704,-0.084
5.705,-0.084
5.706,-0.084
5.707,-0.084
5.708,-0.088
5.709,-0.088
5.710,-0.086
5.711,-0.088
5.712,-0.091
5.713,-0.091
5.714,-0.089
5.715,-0.091
5.716,-0.093
5.717,-0.091
5.718,-0.097
5.719,-0.100
5.720,-0.100
5.721,-0.100
5.722,-0.103
5.723,-0.100
5.724,-0.097
5.725,-0.091
5.726,-0.088
5.727,-0.088
5.728,-0.088
5.729,-0.091
5.730,-0.089
5.731,-0.091
5.732,-0.092
5.733,-0.097
5.734,-0.097
5.735,-0.100
5.736,-0.100
5.737,-0.103
5.738,-0.104
5.739,-0.109
5.740,-0.109
5.741,-0.109
5.742,-0.108
5.743,-0.103
5.744,-0.104
5.745,-0.106
5.746,-0.111
5.747,-0.106
5.748,-0.103
5.749,-0.103
5.750,-0.103
5.751,-0.103
5.752,-0.104
5.753,-0.100
5.754,-0.093
5.755,-0.084
5.756,-0.075
5.757,-0.053
5.758,-0.033
5.759,-0.009
5.760,0.007
5.761,0.025
5.762,0.044
5.763,0.069
5.764,0.080
5.765,0.084
5.766,0.086
5.767,0.075
5.768,0.069
5.769,0.059
5.770,0.050
5.771,0.047
5.772,0.055
5.773,0.069
5.774,0.099
5.775,0.144
5.776,0.186
5.777,0.244
5.778,0.327
5.779,0.453
5.780,0.594
5.781,0.744
5.782,0.906
5.783,1.072
5.784,1.186
5.785,1.234
5.786,1.207
5.787,1.097
5.788,1.000
5.789,0.937
5.790,0.884
5.791,0.812
5.792,0.712
5.793,0.625
5.794,0.547
5.795,0.478
5.796,0.392
5.797,0.313
5.798,0.224
5.799,0.153
5.800,0.100
5.801,0.069
5.802,0.036
5.803,0.006
5.804,-0.024
5.805,-0.047
5.806,-0.075
5.807,-0.097
5.808,-0.118
5.809,-0.147
5.810,-0.183
5.811,-0.216
5.812,-0.254
5.813,-0.294
5.814,-0.320
5.815,-0.347
5.816,-0.366
5.817,-0.372
5.818,-0.373
5.819,-0.356
5.820,-0.331
5.821,-0.309
5.822,-0.289
5.823,-0.269
5.824,-0.255
5.825,-0.241
5.826,-0.227
5.827,-0.213
5.828,-0.200
5.829,-0.191
5.830,-0.178
5.831,-0.163
5.832,-0.152
5.833,-0.147
5.834,-0.144
5.835,-0.138
5.836,-0.134
5.837,-0.128
5.838,-0.121
5.839,-0.113
5.840,-0.117
5.841,-0.116
5.842,-0.106
5.843,-0.100
5.844,-0.098
5.845,-0.100
5.846,-0.097
5.847,-0.097
5.848,-0.093
5.849,-0.088
5.850,-0.083
5.851,-0.078
5.852,-0.078
5.853,-0.075
5.854,-0.072
5.855,-0.072
5.856,-0.075
5.857,-0.078
5.858,-0.075
5.859,-0.072
5.860,-0.072
5.861,-0.072
5.862,-0.069
5.863,-0.069
5.864,-0.070
5.865,-0.069
5.866,-0.069
5.867,-0.072
5.868,-0.073
5.869,-0.072
5.870,-0.073
5.871,-0.075
5.872,-0.072
5.873,-0.072
5.874,-0.072
5.875,-0.075
5.876,-0.072
5.877,-0.072
5.878,-0.075
5.879,-0.075
5.880,-0.075
5.881,-0.072
5.882,-0.075
5.883,-0.078
5.884,-0.077
5.885,-0.072
5.886,-0.066
5.887,-0.063
5.888,-0.064
5.889,-0.069
5.890,-0.067
5.891,-0.069
5.892,-0.061
5.893,-0.056
5.894,-0.055
5.895,-0.053
5.896,-0.049
5.897,-0.047
5.898,-0.050
5.899,-0.050
5.900,-0.048
5.901,-0.050
5.902,-0.051
5.903,-0.050
5.904,-0.052
5.905,-0.050
5.906,-0.051
5.907,-0.050
5.908,-0.050
5.909,-0.050
5.910,-0.050
5.911,-0.050
5.912,-0.051
5.913,-0.053
5.914,-0.052
5.915,-0.050
5.916,-0.051
5.917,-0.053
5.918,-0.053
5.919,-0.050
5.920,-0.046
5.921,-0.044
5.922,-0.044
5.923,-0.044
5.924,-0.047
5.925,-0.050
5.926,-0.053
5.927,-0.053
5.928,-0.050
5.929,-0.050
5.930,-0.049
5.931,-0.047
5.932,-0.046
5.933,-0.041
5.934,-0.041
5.935,-0.041
5.936,-0.039
5.937,-0.044
5.938,-0.044
5.939,-0.044
5.940,-0.044
5.941,-0.044
5.942,-0.041
5.943,-0.041
5.944,-0.038
5.945,-0.034
5.946,-0.036
5.947,-0.034
5.948,-0.030
5.949,-0.028
5.950,-0.029
5.951,-0.031
5.952,-0.029
5.953,-0.031
5.954,-0.030
5.955,-0.031
5.956,-0.030
5.957,-0.025
5.958,-0.025
5.959,-0.022
5.960,-0.019
5.961,-0.022
5.962,-0.023
5.963,-0.022
5.964,-0.013
5.965,-0.006
5.966,-0.008
5.967,-0.009
5.968,-0.011
5.969,-0.009
5.970,-0.005
5.971,-0.003
5.972,-0.003
5.973,0.000
5.974,0.000
5.975,0.000
5.976,0.003
5.977,0.003
5.978,0.006
5.979,0.006
5.980,0.005
5.981,0.003
5.982,0.003
5.983,0.003
5.984,0.005
5.985,0.006
5.986,0.011
5.987,0.013
5.988,0.011
5.989,0.006
5.990,0.009
5.991,0.009
5.992,0.009
5.993,0.009
5.994,0.017
5.995,0.022
5.996,0.021
5.997,0.022
5.998,0.025
5.999,0.025
6.000,0.025
6.001,0.025
6.002,0.027
6.003,0.025
6.004,0.025
6.005,0.028
6.006,0.027
6.007,0.028
6.008,0.025
6.009,0.022
6.010,0.023
6.011,0.025
6.012,0.028
6.013,0.028
6.014,0.036
6.015,0.041
6.016,0.036
6.017,0.028
6.018,0.032
6.019,0.034
6.020,0.034
6.021,0.034
6.022,0.030
6.023,0.025
6.024,0.026
6.025,0.028
6.026,0.028
6.027,0.028
6.028,0.031
6.029,0.038
6.030,0.038
6.031,0.038
6.032,0.036
6.033,0.028
6.034,0.028
6.035,0.028
6.036,0.028
6.037,0.028
6.038,0.032
6.039,0.034
6.040,0.036
6.041,0.041
6.042,0.039
6.043,0.038
6.044,0.039
6.045,0.041
6.046,0.039
6.047,0.041
6.048,0.038
6.049,0.038
6.050,0.038
6.051,0.038
6.052,0.047
6.053,0.056
6.054,0.061
6.055,0.066
6.056,0.069
6.057,0.069
6.058,0.067
6.059,0.066
6.060,0.067
6.061,0.066
6.062,0.059
6.063,0.059
6.064,0.061
6.065,0.062
6.066,0.064
6.067,0.062
6.068,0.061
6.069,0.062
6.070,0.069
6.071,0.066
6.072,0.061
6.073,0.062
6.074,0.066
6.075,0.072
6.076,0.072
6.077,0.072
6.078,0.072
6.079,0.075
6.080,0.076
6.081,0.078
6.082,0.080
6.083,0.075
6.084,0.078
6.085,0.078
6.086,0.086
6.087,0.087
6.088,0.086
6.089,0.081
6.090,0.080
6.091,0.078
6.092,0.078
6.093,0.078
6.094,0.077
6.095,0.075
6.096,0.075
6.097,0.078
6.098,0.075
6.099,0.075
6.100,0.072
6.101,0.069
6.102,0.070
6.103,0.069
6.104,0.070
6.105,0.069
6.106,0.070
6.107,0.069
6.108,0.069
6.109,0.069
6.110,0.061
6.111,0.056
6.112,0.054
6.113,0.053
6.114,0.054
6.115,0.053
6.116,0.054
6.117,0.053
6.118,0.052
6.119,0.047
6.120,0.041
6.121,0.038
6.122,0.034
6.123,0.034
6.124,0.036
6.125,0.034
6.126,0.036
6.127,0.038
6.128,0.033
6.129,0.031
6.130,0.029
6.131,0.031
6.132,0.029
6.133,0.031
6.134,0.029
6.135,0.031
6.136,0.036
6.137,0.031
6.138,0.030
6.139,0.025
6.140,0.024
6.141,0.022
6.142,0.021
6.143,0.016
6.144,0.013
6.145,0.009
6.146,0.008
6.147,0.006
6.148,0.007
6.149,0.009
6.150,0.006
6.151,0.006
6.152,0.005
6.153,0.003
6.154,0.003
6.155,0.003
6.156,0.000
6.157,0.000
6.158,0.000
6.159,0.000
6.160,0.002
6.161,0.000
6.162,0.000
6.163,0.000
6.164,0.000
6.165,0.003
6.166,0.000
6.167,-0.003
6.168,-0.004
6.169,-0.003
6.170,-0.002
6.171,-0.003
6.172,-0.006
6.173,-0.013
6.174,-0.014
6.175,-0.016
6.176,-0.016
6.177,-0.016
6.178,-0.016
6.179,-0.016
6.180,-0.022
6.181,-0.025
6.182,-0.022
6.183,-0.025
6.184,-0.026
6.185,-0.025
6.186,-0.024
6.187,-0.022
6.188,-0.021
6.189,-0.019
6.190,-0.023
6.191,-0.028
6.192,-0.026
6.193,-0.031
6.194,-0.034
6.195,-0.034
6.196,-0.034
6.197,-0.034
6.198,-0.033
6.199,-0.034
6.200,-0.034
6.201,-0.034
6.202,-0.031
6.203,-0.028
6.204,-0.031
6.205,-0.031
6.206,-0.031
6.207,-0.031
6.208,-0.030
6.209,-0.031
6.210,-0.036
6.211,-0.041
6.212,-0.041
6.213,-0.041
6.214,-0.038
6.215,-0.044
6.216,-0.045
6.217,-0.047
6.218,-0.048
6.219,-0.047
6.220,-0.047
6.221,-0.044
6.222,-0.044
6.223,-0.047
6.224,-0.051
6.225,-0.050
6.226,-0.049
6.227,-0.050
6.228,-0.050
6.229,-0.050
6.230,-0.053
6.231,-0.053
6.232,-0.053
6.233,-0.056
6.234,-0.059
6.235,-0.063
6.236,-0.066
6.237,-0.069
6.238,-0.072
6.239,-0.072
6.240,-0.068
6.241,-0.063
6.242,-0.063
6.243,-0.063
6.244,-0.066
6.245,-0.069
6.246,-0.073
6.247,-0.075
6.248,-0.072
6.249,-0.072
6.250,-0.077
6.251,-0.075
6.252,-0.075
6.253,-0.075
6.254,-0.072
6.255,-0.075
6.256,-0.075
6.257,-0.075
6.258,-0.074
6.259,-0.072
6.260,-0.075
6.261,-0.075
6.262,-0.074
6.263,-0.075
6.264,-0.074
6.265,-0.072
6.266,-0.072
6.267,-0.069
6.268,-0.072
6.269,-0.072
6.270,-0.069
6.271,-0.072
6.272,-0.076
6.273,-0.084
6.274,-0.080
6.275,-0.078
6.276,-0.078
6.277,-0.078
6.278,-0.079
6.279,-0.084
6.280,-0.082
6.281,-0.084
6.282,-0.084
6.283,-0.088
6.284,-0.086
6.285,-0.088
6.286,-0.089
6.287,-0.088
6.288,-0.084
6.289,-0.088
6.290,-0.092
6.291,-0.091
6.292,-0.092
6.293,-0.094
6.294,-0.091
6.295,-0.091
6.296,-0.093
6.297,-0.091
6.298,-0.091
6.299,-0.091
6.300,-0.091
6.301,-0.094
6.302,-0.094
6.303,-0.091
6.304,-0.091
6.305,-0.091
6.306,-0.097
6.307,-0.100
6.308,-0.097
6.309,-0.094
6.310,-0.095
6.311,-0.094
6.312,-0.093
6.313,-0.091
6.314,-0.091
6.315,-0.088
6.316,-0.086
6.317,-0.081
6.318,-0.077
6.319,-0.072
6.320,-0.064
6.321,-0.053
6.322,-0.053
6.323,-0.047
6.324,-0.038
6.325,-0.028
6.326,-0.023
6.327,-0.019
6.328,-0.019
6.329,-0.019
6.330,-0.016
6.331,-0.013
6.332,-0.006
6.333,0.000
6.334,0.001
6.335,0.009
6.336,0.014
6.337,0.019
6.338,0.021
6.339,0.019
6.340,0.019
6.341,0.016
6.342,0.016
6.343,0.022
6.344,0.028
6.345,0.034
6.346,0.033
6.347,0.031
6.348,0.028
6.349,0.025
6.350,0.038
6.351,0.041
6.352,0.042
6.353,0.047
6.354,0.054
6.355,0.062
6.356,0.062
6.357,0.066
6.358,0.072
6.359,0.084
6.360,0.104
6.361,0.122
6.362,0.130
6.363,0.141
6.364,0.153
6.365,0.169
6.366,0.178
6.367,0.187
6.368,0.189
6.369,0.187
6.370,0.187
6.371,0.187
6.372,0.180
6.373,0.175
6.374,0.164
6.375,0.162
6.376,0.157
6.377,0.159
6.378,0.158
6.379,0.153
6.380,0.150
6.381,0.147
6.382,0.137
6.383,0.128
6.384,0.128
6.385,0.125
6.386,0.116
6.387,0.109
6.388,0.100
6.389,0.084
6.390,0.069
6.391,0.053
6.392,0.044
6.393,0.031
6.394,0.014
6.395,-0.006
6.396,-0.019
6.397,-0.028
6.398,-0.039
6.399,-0.050
6.400,-0.059
6.401,-0.069
6.402,-0.074
6.403,-0.078
6.404,-0.084
6.405,-0.091
6.406,-0.100
6.407,-0.103
6.408,-0.105
6.409,-0.106
6.410,-0.106
6.411,-0.106
6.412,-0.106
6.413,-0.106
6.414,-0.106
6.415,-0.109
6.416,-0.109
6.417,-0.109
6.418,-0.109
6.419,-0.109
6.420,-0.111
6.421,-0.109
6.422,-0.108
6.423,-0.109
6.424,-0.119
6.425,-0.125
6.426,-0.124
6.427,-0.125
6.428,-0.128
6.429,-0.128
6.430,-0.128
6.431,-0.125
6.432,-0.125
6.433,-0.125
6.434,-0.128
6.435,-0.125
6.436,-0.129
6.437,-0.131
6.438,-0.131
6.439,-0.134
6.440,-0.136
6.441,-0.141
6.442,-0.139
6.443,-0.141
6.444,-0.136
6.445,-0.134
6.446,-0.133
6.447,-0.134
6.448,-0.130
6.449,-0.128
6.450,-0.129
6.451,-0.134
6.452,-0.133
6.453,-0.131
6.454,-0.133
6.455,-0.131
6.456,-0.131
6.457,-0.131
6.458,-0.138
6.459,-0.134
6.460,-0.133
6.461,-0.134
6.462,-0.131
6.463,-0.128
6.464,-0.128
6.465,-0.122
6.466,-0.113
6.467,-0.103
6.468,-0.100
6.469,-0.084
6.470,-0.069
6.471,-0.050
6.472,-0.031
6.473,-0.013
6.474,-0.001
6.475,0.016
6.476,0.024
6.477,0.025
6.478,0.025
6.479,0.013
6.480,0.013
6.481,0.009
6.482,0.003
6.483,0.003
6.484,0.023
6.485,0.050
6.486,0.087
6.487,0.141
6.488,0.212
6.489,0.300
6.490,0.397
6.491,0.537
6.492,0.686
6.493,0.844
6.494,0.980
6.495,1.119
6.496,1.159
6.497,1.134
6.498,1.106
6.499,0.994
6.500,0.904
6.501,0.850
6.502,0.784
6.503,0.700
6.504,0.617
6.505,0.547
6.506,0.450
6.507,0.362
6.508,0.284
6.509,0.212
6.510,0.151
6.511,0.109
6.512,0.061
6.513,0.034
6.514,0.000
6.515,-0.031
6.516,-0.069
6.517,-0.100
6.518,-0.138
6.519,-0.169
6.520,-0.194
6.521,-0.228
6.522,-0.266
6.523,-0.300
6.524,-0.330
6.525,-0.359
6.526,-0.377
6.527,-0.394
6.528,-0.403
6.529,-0.400
6.530,-0.391
6.531,-0.363
6.532,-0.342
6.533,-0.325
6.534,-0.313
6.535,-0.300
6.536,-0.289
6.537,-0.278
6.538,-0.264
6.539,-0.250
6.540,-0.234
6.541,-0.222
6.542,-0.209
6.543,-0.194
6.544,-0.184
6.545,-0.181
6.546,-0.175
6.547,-0.166
6.548,-0.164
6.549,-0.159
6.550,-0.153
6.551,-0.147
6.552,-0.148
6.553,-0.144
6.554,-0.138
6.555,-0.134
6.556,-0.133
6.557,-0.134
6.558,-0.131
6.559,-0.131
6.560,-0.128
6.561,-0.125
6.562,-0.125
6.563,-0.125
6.564,-0.126
6.565,-0.125
6.566,-0.123
6.567,-0.125
6.568,-0.122
6.569,-0.119
6.570,-0.120
6.571,-0.122
6.572,-0.123
6.573,-0.125
6.574,-0.121
6.575,-0.119
6.576,-0.116
6.577,-0.109
6.578,-0.108
6.579,-0.109
6.580,-0.113
6.581,-0.113
6.582,-0.113
6.583,-0.113
6.584,-0.111
6.585,-0.113
6.586,-0.113
6.587,-0.116
6.588,-0.111
6.589,-0.109
6.590,-0.111
6.591,-0.109
6.592,-0.108
6.593,-0.103
6.594,-0.103
6.595,-0.103
6.596,-0.104
6.597,-0.103
6.598,-0.101
6.599,-0.103
6.600,-0.103
6.601,-0.106
6.602,-0.103
6.603,-0.103
6.604,-0.101
6.605,-0.103
6.606,-0.104
6.607,-0.106
6.608,-0.103
6.609,-0.103
6.610,-0.106
6.611,-0.106
6.612,-0.103
6.613,-0.103
6.614,-0.103
6.615,-0.100
6.616,-0.103
6.617,-0.103
6.618,-0.103
6.619,-0.100
6.620,-0.100
6.621,-0.100
6.622,-0.097
6.623,-0.094
6.624,-0.094
6.625,-0.094
6.626,-0.094
6.627,-0.094
6.628,-0.095
6.629,-0.097
6.630,-0.096
6.631,-0.091
6.632,-0.088
6.633,-0.088
6.634,-0.088
6.635,-0.088
6.636,-0.086
6.637,-0.084
6.638,-0.089
6.639,-0.091
6.640,-0.088
6.641,-0.088
6.642,-0.088
6.643,-0.088
6.644,-0.089
6.645,-0.088
6.646,-0.089
6.647,-0.091
6.648,-0.084
6.649,-0.084
6.650,-0.084
6.651,-0.084
6.652,-0.083
6.653,-0.081
6.654,-0.081
6.655,-0.084
6.656,-0.080
6.657,-0.075
6.658,-0.078
6.659,-0.078
6.660,-0.074
6.661,-0.072
6.662,-0.073
6.663,-0.075
6.664,-0.069
6.665,-0.066
6.666,-0.064
6.667,-0.066
6.668,-0.067
6.669,-0.066
6.670,-0.064
6.671,-0.059
6.672,-0.055
6.673,-0.056
6.674,-0.056
6.675,-0.053
6.676,-0.051
6.677,-0.053
6.678,-0.058
6.679,-0.063
6.680,-0.059
6.681,-0.053
6.682,-0.051
6.683,-0.053
6.684,-0.047
6.685,-0.038
6.686,-0.036
6.687,-0.034
6.688,-0.034
6.689,-0.038
6.690,-0.036
6.691,-0.038
6.692,-0.036
6.693,-0.034
6.694,-0.034
6.695,-0.034
6.696,-0.033
6.697,-0.031
6.698,-0.029
6.699,-0.031
6.700,-0.028
6.701,-0.028
6.702,-0.026
6.703,-0.028
6.704,-0.028
6.705,-0.028
6.706,-0.026
6.707,-0.028
6.708,-0.027
6.709,-0.022
6.710,-0.023
6.711,-0.028
6.712,-0.028
6.713,-0.028
6.714,-0.021
6.715,-0.016
6.716,-0.020
6.717,-0.022
6.718,-0.022
6.719,-0.019
6.720,-0.019
6.721,-0.019
6.722,-0.020
6.723,-0.022
6.724,-0.021
6.725,-0.022
6.726,-0.022
6.727,-0.025
6.728,-0.025
6.729,-0.028
6.730,-0.022
6.731,-0.019
6.732,-0.020
6.733,-0.022
6.734,-0.022
6.735,-0.022
6.736,-0.022
6.737,-0.022
6.738,-0.022
6.739,-0.022
6.740,-0.025
6.741,-0.025
6.742,-0.026
6.743,-0.028
6.744,-0.026
6.745,-0.031
6.746,-0.031
6.747,-0.031
6.748,-0.030
6.749,-0.028
6.750,-0.026
6.751,-0.028
6.752,-0.029
6.753,-0.028
6.754,-0.025
6.755,-0.022
6.756,-0.023
6.757,-0.025
6.758,-0.022
6.759,-0.016
6.760,-0.017
6.761,-0.016
6.762,-0.017
6.763,-0.019
6.764,-0.018
6.765,-0.016
6.766,-0.013
6.767,-0.009
6.768,-0.008
6.769,-0.009
6.770,-0.006
6.771,-0.003
6.772,0.000
6.773,0.000
6.774,0.000
6.775,0.006
6.776,0.008
6.777,0.009
6.778,0.011
6.779,0.009
6.780,0.009
6.781,0.013
6.782,0.019
6.783,0.016
6.784,0.011
6.785,0.013
6.786,0.014
6.787,0.019
6.788,0.019
6.789,0.019
6.790,0.016
6.791,0.016
6.792,0.016
6.793,0.016
6.794,0.020
6.795,0.019
6.796,0.022
6.797,0.022
6.798,0.027
6.799,0.025
6.800,0.026
6.801,0.025
6.802,0.025
6.803,0.025
6.804,0.025
6.805,0.025
6.806,0.025
6.807,0.025
6.808,0.024
6.809,0.025
6.810,0.017
6.811,0.013
6.812,0.014
6.813,0.016
6.814,0.020
6.815,0.022
6.816,0.021
6.817,0.016
6.818,0.016
6.819,0.013
6.820,0.014
6.821,0.016
6.822,0.013
6.823,0.013
6.824,0.011
6.825,0.009
6.826,0.008
6.827,0.003
6.828,0.004
6.829,0.003
6.830,0.002
6.831,-0.003
6.832,-0.005
6.833,-0.003
6.834,-0.005
6.835,-0.003
6.836,-0.002
6.837,-0.003
6.838,-0.004
6.839,-0.006
6.840,-0.009
6.841,-0.009
6.842,-0.013
6.843,-0.013
6.844,-0.016
6.845,-0.016
6.846,-0.019
6.847,-0.019
6.848,-0.013
6.849,-0.016
6.850,-0.014
6.851,-0.016
6.852,-0.017
6.853,-0.019
6.854,-0.018
6.855,-0.019
6.856,-0.022
6.857,-0.025
6.858,-0.026
6.859,-0.028
6.860,-0.027
6.861,-0.025
6.862,-0.028
6.863,-0.028
6.864,-0.028
6.865,-0.028
6.866,-0.028
6.867,-0.028
6.868,-0.031
6.869,-0.031
6.870,-0.033
6.871,-0.034
6.872,-0.031
6.873,-0.031
6.874,-0.033
6.875,-0.034
6.876,-0.034
6.877,-0.031
6.878,-0.033
6.879,-0.034
6.880,-0.033
6.881,-0.028
6.882,-0.028
6.883,-0.031
6.884,-0.030
6.885,-0.031
6.886,-0.033
6.887,-0.034
6.888,-0.034
6.889,-0.034
6.890,-0.034
6.891,-0.034
6.892,-0.038
6.893,-0.038
6.894,-0.036
6.895,-0.041
6.896,-0.045
6.897,-0.047
6.898,-0.044
6.899,-0.041
6.900,-0.041
6.901,-0.041
6.902,-0.041
6.903,-0.041
6.904,-0.038
6.905,-0.041
6.906,-0.045
6.907,-0.047
6.908,-0.047
6.909,-0.047
6.910,-0.046
6.911,-0.047
6.912,-0.048
6.913,-0.050
6.914,-0.050
6.915,-0.050
6.916,-0.053
6.917,-0.053
6.918,-0.053
6.919,-0.053
6.920,-0.052
6.921,-0.053
6.922,-0.056
6.923,-0.059
6.924,-0.061
6.925,-0.063
6.926,-0.059
6.927,-0.066
6.928,-0.066
6.929,-0.066
6.930,-0.067
6.931,-0.066
6.932,-0.068
6.933,-0.066
6.934,-0.063
6.935,-0.063
6.936,-0.067
6.937,-0.066
6.938,-0.067
6.939,-0.072
6.940,-0.069
6.941,-0.066
6.942,-0.069
6.943,-0.069
6.944,-0.068
6.945,-0.069
6.946,-0.068
6.947,-0.066
6.948,-0.064
6.949,-0.063
6.950,-0.069
6.951,-0.072
6.952,-0.072
6.953,-0.072
6.954,-0.073
6.955,-0.075
6.956,-0.075
6.957,-0.075
6.958,-0.077
6.959,-0.075
6.960,-0.071
6.961,-0.069
6.962,-0.075
6.963,-0.075
6.964,-0.074
6.965,-0.072
6.966,-0.070
6.967,-0.075
6.968,-0.075
6.969,-0.075
6.970,-0.075
6.971,-0.075
6.972,-0.081
6.973,-0.084
6.974,-0.081
6.975,-0.078
6.976,-0.078
6.977,-0.078
6.978,-0.081
6.979,-0.084
6.980,-0.083
6.981,-0.081
6.982,-0.084
6.983,-0.084
6.984,-0.084
6.985,-0.084
6.986,-0.080
6.987,-0.081
6.988,-0.080
6.989,-0.075
6.990,-0.077
6.991,-0.075
6.992,-0.079
6.993,-0.078
6.994,-0.078
6.995,-0.078
6.996,-0.077
6.997,-0.075
6.998,-0.079
6.999,-0.078
7.000,-0.079
7.001,-0.081
7.002,-0.086
7.003,-0.084
7.004,-0.083
7.005,-0.084
7.006,-0.086
7.007,-0.084
7.008,-0.083
7.009,-0.081
7.010,-0.078
7.011,-0.078
7.012,-0.081
7.013,-0.081
7.014,-0.081
7.015,-0.084
7.016,-0.084
7.017,-0.084
7.018,-0.080
7.019,-0.075
7.020,-0.077
7.021,-0.075
7.022,-0.073
7.023,-0.075
7.024,-0.074
7.025,-0.075
7.026,-0.078
7.027,-0.081
7.028,-0.081
7.029,-0.081
7.030,-0.079
7.031,-0.081
7.032,-0.086
7.033,-0.088
7.034,-0.082
7.035,-0.084
7.036,-0.077
7.037,-0.072
7.038,-0.072
7.039,-0.066
7.040,-0.055
7.041,-0.050
7.042,-0.042
7.043,-0.038
7.044,-0.031
7.045,-0.025
7.046,-0.018
7.047,-0.013
7.048,-0.008
7.049,-0.003
7.050,-0.001
7.051,0.000
7.052,0.006
7.053,0.009
7.054,0.016
7.055,0.022
7.056,0.025
7.057,0.025
7.058,0.029
7.059,0.038
7.060,0.038
7.061,0.034
7.062,0.036
7.063,0.034
7.064,0.039
7.065,0.044
7.066,0.044
7.067,0.044
7.068,0.041
7.069,0.047
7.070,0.048
7.071,0.056
7.072,0.059
7.073,0.056
7.074,0.058
7.075,0.059
7.076,0.067
7.077,0.075
7.078,0.086
7.079,0.097
7.080,0.107
7.081,0.122
7.082,0.134
7.083,0.144
7.084,0.161
7.085,0.172
7.086,0.187
7.087,0.200
7.088,0.200
7.089,0.197
7.090,0.198
7.091,0.194
7.092,0.191
7.093,0.181
7.094,0.182
7.095,0.178
7.096,0.178
7.097,0.178
7.098,0.172
7.099,0.169
7.100,0.166
7.101,0.153
7.102,0.145
7.103,0.141
7.104,0.136
7.105,0.131
7.106,0.125
7.107,0.119
7.108,0.109
7.109,0.100
7.110,0.084
7.111,0.072
7.112,0.061
7.113,0.053
7.114,0.042
7.115,0.031
7.116,0.017
7.117,0.000
7.118,-0.013
7.119,-0.022
7.120,-0.030
7.121,-0.038
7.122,-0.050
7.123,-0.059
7.124,-0.061
7.125,-0.066
7.126,-0.070
7.127,-0.075
7.128,-0.078
7.129,-0.078
7.130,-0.079
7.131,-0.081
7.132,-0.081
7.133,-0.081
7.134,-0.086
7.135,-0.088
7.136,-0.088
7.137,-0.088
7.138,-0.089
7.139,-0.094
7.140,-0.094
7.141,-0.094
7.142,-0.096
7.143,-0.097
7.144,-0.096
7.145,-0.094
7.146,-0.098
7.147,-0.103
7.148,-0.102
7.149,-0.103
7.150,-0.103
7.151,-0.103
7.152,-0.102
7.153,-0.103
7.154,-0.103
7.155,-0.109
7.156,-0.111
7.157,-0.109
7.158,-0.106
7.159,-0.103
7.160,-0.106
7.161,-0.103
7.162,-0.103
7.163,-0.103
7.164,-0.100
7.165,-0.094
7.166,-0.103
7.167,-0.106
7.168,-0.106
7.169,-0.106
7.170,-0.108
7.171,-0.106
7.172,-0.107
7.173,-0.109
7.174,-0.106
7.175,-0.106
7.176,-0.105
7.177,-0.109
7.178,-0.107
7.179,-0.106
7.180,-0.102
7.181,-0.097
7.182,-0.098
7.183,-0.100
7.184,-0.093
7.185,-0.084
7.186,-0.077
7.187,-0.069
7.188,-0.051
7.189,-0.034
7.190,-0.016
7.191,-0.003
7.192,0.020
7.193,0.044
7.194,0.064
7.195,0.075
7.196,0.086
7.197,0.094
7.198,0.084
7.199,0.081
7.200,0.074
7.201,0.069
7.202,0.076
7.203,0.094
7.204,0.120
7.205,0.162
7.206,0.214
7.207,0.272
7.208,0.357
7.209,0.459
7.210,0.589
7.211,0.728
7.212,0.886
7.213,1.047
7.214,1.207
7.215,1.325
7.216,1.344
7.217,1.287
7.218,1.186
7.219,1.094
7.220,1.022
7.221,0.966
7.222,0.886
7.223,0.775
7.224,0.681
7.225,0.594
7.226,0.505
7.227,0.400
7.228,0.314
7.229,0.231
7.230,0.172
7.231,0.119
7.232,0.077
7.233,0.031
7.234,-0.014
7.235,-0.063
7.236,-0.097
7.237,-0.131
7.238,-0.163
7.239,-0.194
7.240,-0.224
7.241,-0.253
7.242,-0.281
7.243,-0.309
7.244,-0.331
7.245,-0.344
7.246,-0.355
7.247,-0.356
7.248,-0.347
7.249,-0.331
7.250,-0.313
7.251,-0.294
7.252,-0.271
7.253,-0.253
7.254,-0.239
7.255,-0.228
7.256,-0.214
7.257,-0.200
7.258,-0.183
7.259,-0.166
7.260,-0.163
7.261,-0.159
7.262,-0.150
7.263,-0.144
7.264,-0.138
7.265,-0.131
7.266,-0.124
7.267,-0.116
7.268,-0.109
7.269,-0.106
7.270,-0.101
7.271,-0.103
7.272,-0.097
7.273,-0.094
7.274,-0.091
7.275,-0.084
7.276,-0.084
7.277,-0.081
7.278,-0.082
7.279,-0.081
7.280,-0.079
7.281,-0.081
7.282,-0.081
7.283,-0.081
7.284,-0.078
7.285,-0.075
7.286,-0.075
7.287,-0.075
7.288,-0.074
7.289,-0.072
7.290,-0.069
7.291,-0.066
7.292,-0.064
7.293,-0.059
7.294,-0.063
7.295,-0.066
7.296,-0.063
7.297,-0.063
7.298,-0.067
7.299,-0.069
7.300,-0.066
7.301,-0.066
7.302,-0.066
7.303,-0.063
7.304,-0.061
7.305,-0.059
7.306,-0.064
7.307,-0.063
7.308,-0.061
7.309,-0.063
7.310,-0.063
7.311,-0.063
7.312,-0.061
7.313,-0.063
7.314,-0.059
7.315,-0.056
7.316,-0.056
7.317,-0.056
7.318,-0.053
7.319,-0.050
7.320,-0.054
7.321,-0.053
7.322,-0.052
7.323,-0.047
7.324,-0.047
7.325,-0.047
7.326,-0.050
7.327,-0.050
7.328,-0.050
7.329,-0.053
7.330,-0.050
7.331,-0.044
7.332,-0.047
7.333,-0.050
7.334,-0.044
7.335,-0.044
7.336,-0.045
7.337,-0.047
7.338,-0.045
7.339,-0.047
7.340,-0.046
7.341,-0.044
7.342,-0.043
7.343,-0.041
7.344,-0.042
7.345,-0.044
7.346,-0.045
7.347,-0.047
7.348,-0.046
7.349,-0.044
7.350,-0.042
7.351,-0.041
7.352,-0.041
7.353,-0.041
7.354,-0.039
7.355,-0.038
7.356,-0.038
7.357,-0.041
7.358,-0.041
7.359,-0.038
7.360,-0.039
7.361,-0.041
7.362,-0.039
7.363,-0.038
7.364,-0.031
7.365,-0.028
7.366,-0.031
7.367,-0.031
7.368,-0.033
7.369,-0.031
7.370,-0.031
7.371,-0.031
7.372,-0.033
7.373,-0.031
7.374,-0.033
7.375,-0.031
7.376,-0.028
7.377,-0.031
7.378,-0.031
7.379,-0.028
7.380,-0.027
7.381,-0.025
7.382,-0.026
7.383,-0.022
7.384,-0.016
7.385,-0.013
7.386,-0.017
7.387,-0.019
7.388,-0.017
7.389,-0.019
7.390,-0.016
7.391,-0.013
7.392,-0.017
7.393,-0.019
7.394,-0.017
7.395,-0.016
7.396,-0.011
7.397,-0.006
7.398,-0.005
7.399,-0.003
7.400,-0.004
7.401,-0.006
7.402,-0.003
7.403,0.000
7.404,0.002
7.405,0.000
7.406,-0.001
7.407,0.000
7.408,0.000
7.409,0.003
7.410,0.003
7.411,0.003
7.412,0.003
7.413,0.003
7.414,0.003
7.415,0.006
7.416,0.008
7.417,0.009
7.418,0.009
7.419,0.009
7.420,0.006
7.421,0.009
7.422,0.008
7.423,0.006
7.424,0.009
7.425,0.016
7.426,0.014
7.427,0.013
7.428,0.016
7.429,0.016
7.430,0.016
7.431,0.019
7.432,0.019
7.433,0.022
7.434,0.022
7.435,0.022
7.436,0.025
7.437,0.025
7.438,0.027
7.439,0.025
7.440,0.025
7.441,0.025
7.442,0.026
7.443,0.028
7.444,0.024
7.445,0.025
7.446,0.026
7.447,0.028
7.448,0.024
7.449,0.025
7.450,0.022
7.451,0.019
7.452,0.020
7.453,0.022
7.454,0.023
7.455,0.025
7.456,0.025
7.457,0.025
7.458,0.026
7.459,0.028
7.460,0.030
7.461,0.028
7.462,0.028
7.463,0.031
7.464,0.032
7.465,0.038
7.466,0.034
7.467,0.031
7.468,0.028
7.469,0.028
7.470,0.028
7.471,0.028
7.472,0.028
7.473,0.025
7.474,0.026
7.475,0.028
7.476,0.028
7.477,0.028
7.478,0.030
7.479,0.028
7.480,0.036
7.481,0.041
7.482,0.041
7.483,0.041
7.484,0.038
7.485,0.038
7.486,0.039
7.487,0.041
7.488,0.044
7.489,0.047
7.490,0.046
7.491,0.047
7.492,0.048
7.493,0.047
7.494,0.047
7.495,0.047
7.496,0.053
7.497,0.059
7.498,0.061
7.499,0.062
7.500,0.061
7.501,0.062
7.502,0.064
7.503,0.066
7.504,0.067
7.505,0.066
7.506,0.067
7.507,0.066
7.508,0.064
7.509,0.062
7.510,0.066
7.511,0.066
7.512,0.067
7.513,0.072
7.514,0.072
7.515,0.078
7.516,0.071
7.517,0.069
7.518,0.067
7.519,0.066
7.520,0.062
7.521,0.062
7.522,0.062
7.523,0.062
7.524,0.062
7.525,0.062
7.526,0.062
7.527,0.062
7.528,0.066
7.529,0.062
7.530,0.062
7.531,0.062
7.532,0.064
7.533,0.066
7.534,0.059
7.535,0.056
7.536,0.053
7.537,0.053
7.538,0.051
7.539,0.053
7.540,0.053
7.541,0.050
7.542,0.053
7.543,0.053
7.544,0.049
7.545,0.047
7.546,0.045
7.547,0.047
7.548,0.044
7.549,0.044
7.550,0.039
7.551,0.034
7.552,0.034
7.553,0.031
7.554,0.031
7.555,0.031
7.556,0.028
7.557,0.028
7.558,0.031
7.559,0.031
7.560,0.031
7.561,0.028
7.562,0.028
7.563,0.025
7.564,0.026
7.565,0.025
7.566,0.024
7.567,0.025
7.568,0.022
7.569,0.025
7.570,0.022
7.571,0.022
7.572,0.022
7.573,0.022
7.574,0.022
7.575,0.022
7.576,0.019
7.577,0.019
7.578,0.017
7.579,0.016
7.580,0.017
7.581,0.016
7.582,0.014
7.583,0.013
7.584,0.013
7.585,0.013
7.586,0.014
7.587,0.013
7.588,0.011
7.589,0.009
7.590,0.011
7.591,0.016
7.592,0.017
7.593,0.016
7.594,0.013
7.595,0.013
7.596,0.017
7.597,0.016
7.598,0.013
7.599,0.013
7.600,0.011
7.601,0.006
7.602,0.004
7.603,0.006
7.604,0.003
7.605,0.003
7.606,0.003
7.607,0.003
7.608,-0.001
7.609,-0.006
7.610,-0.006
7.611,-0.009
7.612,-0.009
7.613,-0.009
7.614,-0.008
7.615,0.000
7.616,0.000
7.617,-0.003
7.618,-0.002
7.619,-0.003
7.620,-0.006
7.621,-0.006
7.622,-0.008
7.623,-0.006
7.624,-0.008
7.625,-0.009
7.626,-0.011
7.627,-0.013
7.628,-0.013
7.629,-0.013
7.630,-0.014
7.631,-0.013
7.632,-0.014
7.633,-0.016
7.634,-0.014
7.635,-0.016
7.636,-0.016
7.637,-0.016
7.638,-0.020
7.639,-0.025
7.640,-0.028
7.641,-0.028
7.642,-0.024
7.643,-0.019
7.644,-0.023
7.645,-0.025
7.646,-0.031
7.647,-0.031
7.648,-0.031
7.649,-0.031
7.650,-0.029
7.651,-0.034
7.652,-0.034
7.653,-0.034
7.654,-0.034
7.655,-0.034
7.656,-0.031
7.657,-0.031
7.658,-0.034
7.659,-0.034
7.660,-0.036
7.661,-0.041
7.662,-0.041
7.663,-0.041
7.664,-0.039
7.665,-0.034
7.666,-0.038
7.667,-0.041
7.668,-0.039
7.669,-0.041
7.670,-0.041
7.671,-0.041
7.672,-0.042
7.673,-0.044
7.674,-0.041
7.675,-0.038
7.676,-0.036
7.677,-0.038
7.678,-0.041
7.679,-0.041
7.680,-0.038
7.681,-0.041
7.682,-0.045
7.683,-0.050
7.684,-0.050
7.685,-0.047
7.686,-0.050
7.687,-0.050
7.688,-0.050
7.689,-0.050
7.690,-0.050
7.691,-0.053
7.692,-0.054
7.693,-0.056
7.694,-0.058
7.695,-0.059
7.696,-0.058
7.697,-0.056
7.698,-0.055
7.699,-0.053
7.700,-0.053
7.701,-0.056
7.702,-0.056
7.703,-0.053
7.704,-0.053
7.705,-0.056
7.706,-0.056
7.707,-0.059
7.708,-0.058
7.709,-0.053
7.710,-0.054
7.711,-0.056
7.712,-0.061
7.713,-0.066
7.714,-0.068
7.715,-0.066
7.716,-0.067
7.717,-0.069
7.718,-0.066
7.719,-0.066
7.720,-0.063
7.721,-0.059
7.722,-0.056
7.723,-0.056
7.724,-0.061
7.725,-0.063
7.726,-0.063
7.727,-0.063
7.728,-0.059
7.729,-0.063
7.730,-0.063
7.731,-0.059
7.732,-0.063
7.733,-0.063
7.734,-0.067
7.735,-0.066
7.736,-0.061
7.737,-0.056
7.738,-0.056
7.739,-0.056
7.740,-0.061
7.741,-0.059
7.742,-0.059
7.743,-0.059
7.744,-0.064
7.745,-0.063
7.746,-0.063
7.747,-0.066
7.748,-0.067
7.749,-0.066
7.750,-0.069
7.751,-0.072
7.752,-0.069
7.753,-0.069
7.754,-0.070
7.755,-0.069
7.756,-0.068
7.757,-0.069
7.758,-0.069
7.759,-0.069
7.760,-0.070
7.761,-0.072
7.762,-0.075
7.763,-0.075
7.764,-0.072
7.765,-0.072
7.766,-0.072
7.767,-0.075
7.768,-0.075
7.769,-0.075
7.770,-0.075
7.771,-0.075
7.772,-0.072
7.773,-0.072
7.774,-0.072
7.775,-0.069
7.776,-0.064
7.777,-0.066
7.778,-0.064
7.779,-0.066
7.780,-0.064
7.781,-0.056
7.782,-0.046
7.783,-0.041
7.784,-0.031
7.785,-0.025
7.786,-0.018
7.787,-0.009
7.788,-0.003
7.789,0.000
7.790,0.002
7.791,0.003
7.792,0.005
7.793,0.006
7.794,0.011
7.795,0.013
7.796,0.019
7.797,0.025
7.798,0.030
7.799,0.031
7.800,0.030
7.801,0.031
7.802,0.031
7.803,0.028
7.804,0.032
7.805,0.034
7.806,0.034
7.807,0.034
7.808,0.038
7.809,0.041
7.810,0.039
7.811,0.047
7.812,0.044
7.813,0.047
7.814,0.057
7.815,0.062
7.816,0.064
7.817,0.066
7.818,0.073
7.819,0.081
7.820,0.095
7.821,0.109
7.822,0.119
7.823,0.131
7.824,0.150
7.825,0.166
7.826,0.181
7.827,0.191
7.828,0.196
7.829,0.197
7.830,0.199
7.831,0.197
7.832,0.194
7.833,0.184
7.834,0.182
7.835,0.175
7.836,0.178
7.837,0.175
7.838,0.175
7.839,0.175
7.840,0.167
7.841,0.162
7.842,0.162
7.843,0.153
7.844,0.145
7.845,0.141
7.846,0.134
7.847,0.128
7.848,0.119
7.849,0.109
7.850,0.096
7.851,0.081
7.852,0.070
7.853,0.062
7.854,0.050
7.855,0.041
7.856,0.031
7.857,0.022
7.858,0.014
7.859,0.003
7.860,-0.008
7.861,-0.016
7.862,-0.025
7.863,-0.034
7.864,-0.044
7.865,-0.050
7.866,-0.055
7.867,-0.063
7.868,-0.061
7.869,-0.059
7.870,-0.063
7.871,-0.063
7.872,-0.064
7.873,-0.066
7.874,-0.069
7.875,-0.072
7.876,-0.075
7.877,-0.075
7.878,-0.078
7.879,-0.081
7.880,-0.077
7.881,-0.075
7.882,-0.076
7.883,-0.078
7.884,-0.081
7.885,-0.084
7.886,-0.084
7.887,-0.084
7.888,-0.086
7.889,-0.088
7.890,-0.088
7.891,-0.091
7.892,-0.091
7.893,-0.091
7.894,-0.092
7.895,-0.097
7.896,-0.097
7.897,-0.103
7.898,-0.104
7.899,-0.103
7.900,-0.103
7.901,-0.103
7.902,-0.103
7.903,-0.097
7.904,-0.094
7.905,-0.091
7.906,-0.097
7.907,-0.100
7.908,-0.104
7.909,-0.103
7.910,-0.102
7.911,-0.100
7.912,-0.103
7.913,-0.103
7.914,-0.103
7.915,-0.103
7.916,-0.101
7.917,-0.103
7.918,-0.100
7.919,-0.103
7.920,-0.101
7.921,-0.100
7.922,-0.099
7.923,-0.097
7.924,-0.096
7.925,-0.094
7.926,-0.088
7.927,-0.081
7.928,-0.071
7.929,-0.059
7.930,-0.036
7.931,-0.013
7.932,0.011
7.933,0.028
7.934,0.045
7.935,0.062
7.936,0.083
7.937,0.094
7.938,0.097
7.939,0.097
7.940,0.086
7.941,0.081
7.942,0.076
7.943,0.075
7.944,0.082
7.945,0.100
7.946,0.129
7.947,0.175
7.948,0.228
7.949,0.287
7.950,0.370
7.951,0.469
7.952,0.601
7.953,0.744
7.954,0.903
7.955,1.066
7.956,1.211
7.957,1.312
7.958,1.319
7.959,1.250
7.960,1.151
7.961,1.062
7.962,0.983
7.963,0.919
7.964,0.839
7.965,0.728
7.966,0.637
7.967,0.553
7.968,0.474
7.969,0.378
7.970,0.284
7.971,0.194
7.972,0.136
7.973,0.084
7.974,0.050
7.975,0.013
7.976,-0.021
7.977,-0.056
7.978,-0.092
7.979,-0.128
7.980,-0.153
7.981,-0.178
7.982,-0.209
7.983,-0.241
7.984,-0.271
7.985,-0.300
7.986,-0.319
7.987,-0.328
7.988,-0.341
7.989,-0.344
7.990,-0.339
7.991,-0.328
7.992,-0.306
7.993,-0.284
7.994,-0.266
7.995,-0.253
7.996,-0.234
7.997,-0.219
7.998,-0.208
7.999,-0.197
8.000,-0.183
8.001,-0.169
8.002,-0.161
8.003,-0.153
8.004,-0.147
8.005,-0.144
8.006,-0.139
8.007,-0.134
8.008,-0.127
8.009,-0.119
8.010,-0.108
8.011,-0.100
8.012,-0.095
8.013,-0.097
8.014,-0.091
8.015,-0.088
8.016,-0.089
8.017,-0.088
8.018,-0.083
8.019,-0.075
8.020,-0.075
8.021,-0.072
8.022,-0.070
8.023,-0.072
8.024,-0.073
8.025,-0.075
8.026,-0.073
8.027,-0.072
8.028,-0.072
8.029,-0.072
8.030,-0.071
8.031,-0.069
8.032,-0.069
8.033,-0.069
8.034,-0.070
8.035,-0.069
8.036,-0.069
8.037,-0.069
8.038,-0.064
8.039,-0.063
8.040,-0.066
8.041,-0.066
8.042,-0.059
8.043,-0.056
8.044,-0.058
8.045,-0.056
8.046,-0.055
8.047,-0.053
8.048,-0.058
8.049,-0.056
8.050,-0.058
8.051,-0.063
8.052,-0.064
8.053,-0.066
8.054,-0.064
8.055,-0.066
8.056,-0.061
8.057,-0.056
8.058,-0.054
8.059,-0.053
8.060,-0.054
8.061,-0.056
8.062,-0.063
8.063,-0.063
8.064,-0.059
8.065,-0.053
8.066,-0.052
8.067,-0.050
8.068,-0.046
8.069,-0.038
8.070,-0.036
8.071,-0.038
8.072,-0.041
8.073,-0.041
8.074,-0.041
8.075,-0.041
8.076,-0.036
8.077,-0.038
8.078,-0.041
8.079,-0.044
8.080,-0.042
8.081,-0.044
8.082,-0.045
8.083,-0.047
8.084,-0.048
8.085,-0.050
8.086,-0.050
8.087,-0.050
8.088,-0.049
8.089,-0.047
8.090,-0.046
8.091,-0.044
8.092,-0.044
8.093,-0.044
8.094,-0.045
8.095,-0.047
8.096,-0.046
8.097,-0.044
8.098,-0.043
8.099,-0.044
8.100,-0.044
8.101,-0.041
8.102,-0.036
8.103,-0.031
8.104,-0.034
8.105,-0.038
8.106,-0.036
8.107,-0.038
8.108,-0.036
8.109,-0.031
8.110,-0.034
8.111,-0.034
8.112,-0.034
8.113,-0.034
8.114,-0.036
8.115,-0.034
8.116,-0.036
8.117,-0.034
8.118,-0.028
8.119,-0.028
8.120,-0.029
8.121,-0.028
8.122,-0.028
8.123,-0.028
8.124,-0.029
8.125,-0.025
8.126,-0.019
8.127,-0.016
8.128,-0.020
8.129,-0.022
8.130,-0.019
8.131,-0.019
8.132,-0.017
8.133,-0.016
8.134,-0.016
8.135,-0.013
8.136,-0.009
8.137,-0.006
8.138,-0.006
8.139,-0.006
8.140,-0.008
8.141,-0.009
8.142,-0.008
8.143,-0.006
8.144,-0.003
8.145,0.000
8.146,0.003
8.147,0.003
8.148,0.004
8.149,0.009
8.150,0.008
8.151,0.009
8.152,0.009
8.153,0.009
8.154,0.011
8.155,0.013
8.156,0.009
8.157,0.009
8.158,0.013
8.159,0.016
8.160,0.017
8.161,0.019
8.162,0.016
8.163,0.019
8.164,0.023
8.165,0.028
8.166,0.025
8.167,0.025
8.168,0.024
8.169,0.022
8.170,0.025
8.171,0.025
8.172,0.023
8.173,0.025
8.174,0.024
8.175,0.025
8.176,0.025
8.177,0.025
8.178,0.027
8.179,0.025
8.180,0.028
8.181,0.028
8.182,0.029
8.183,0.031
8.184,0.031
8.185,0.031
8.186,0.031
8.187,0.038
8.188,0.038
8.189,0.038
8.190,0.034
8.191,0.038
8.192,0.038
8.193,0.038
8.194,0.039
8.195,0.041
8.196,0.039
8.197,0.038
8.198,0.039
8.199,0.041
8.200,0.042
8.201,0.044
8.202,0.046
8.203,0.044
8.204,0.044
8.205,0.047
8.206,0.044
8.207,0.044
8.208,0.048
8.209,0.053
8.210,0.052
8.211,0.053
8.212,0.052
8.213,0.050
8.214,0.053
8.215,0.053
8.216,0.053
8.217,0.053
8.218,0.053
8.219,0.053
8.220,0.057
8.221,0.059
8.222,0.059
8.223,0.056
8.224,0.057
8.225,0.059
8.226,0.059
8.227,0.062
8.228,0.067
8.229,0.072
8.230,0.072
8.231,0.072
8.232,0.071
8.233,0.072
8.234,0.075
8.235,0.075
8.236,0.078
8.237,0.081
8.238,0.083
8.239,0.084
8.240,0.083
8.241,0.081
8.242,0.086
8.243,0.094
8.244,0.095
8.245,0.097
8.246,0.099
8.247,0.097
8.248,0.100
8.249,0.100
8.250,0.099
8.251,0.097
8.252,0.099
8.253,0.097
8.254,0.091
8.255,0.087
8.256,0.083
8.257,0.084
8.258,0.084
8.259,0.091
8.260,0.092
8.261,0.094
8.262,0.091
8.263,0.091
8.264,0.094
8.265,0.097
8.266,0.096
8.267,0.094
8.268,0.086
8.269,0.078
8.270,0.082
8.271,0.081
8.272,0.081
8.273,0.081
8.274,0.082
8.275,0.084
8.276,0.086
8.277,0.091
8.278,0.087
8.279,0.087
8.280,0.083
8.281,0.081
8.282,0.080
8.283,0.075
8.284,0.074
8.285,0.069
8.286,0.067
8.287,0.069
8.288,0.064
8.289,0.062
8.290,0.061
8.291,0.062
8.292,0.061
8.293,0.059
8.294,0.058
8.295,0.053
8.296,0.053
8.297,0.053
8.298,0.054
8.299,0.059
8.300,0.059
8.301,0.056
8.302,0.055
8.303,0.050
8.304,0.051
8.305,0.050
8.306,0.050
8.307,0.047
8.308,0.047
8.309,0.050
8.310,0.044
8.311,0.044
8.312,0.041
8.313,0.041
8.314,0.041
8.315,0.041
8.316,0.036
8.317,0.031
8.318,0.027
8.319,0.025
8.320,0.025
8.321,0.025
8.322,0.025
8.323,0.022
8.324,0.023
8.325,0.025
8.326,0.026
8.327,0.028
8.328,0.031
8.329,0.031
8.330,0.031
8.331,0.031
8.332,0.025
8.333,0.022
8.334,0.022
8.335,0.019
8.336,0.016
8.337,0.016
8.338,0.019
8.339,0.016
8.340,0.011
8.341,0.009
8.342,0.017
8.343,0.022
8.344,0.017
8.345,0.016
8.346,0.013
8.347,0.013
8.348,0.013
8.349,0.013
8.350,0.013
8.351,0.013
8.352,0.014
8.353,0.013
8.354,0.009
8.355,0.006
8.356,0.001
8.357,0.003
8.358,0.005
8.359,0.003
8.360,0.004
8.361,0.003
8.362,0.000
8.363,0.000
8.364,-0.001
8.365,0.000
8.366,-0.004
8.367,-0.009
8.368,-0.008
8.369,-0.006
8.370,-0.006
8.371,-0.006
8.372,-0.009
8.373,-0.009
8.374,-0.009
8.375,-0.009
8.376,-0.008
8.377,-0.009
8.378,-0.009
8.379,-0.009
8.380,-0.009
8.381,-0.009
8.382,-0.013
8.383,-0.013
8.384,-0.014
8.385,-0.016
8.386,-0.017
8.387,-0.016
8.388,-0.022
8.389,-0.022
8.390,-0.021
8.391,-0.019
8.392,-0.016
8.393,-0.019
8.394,-0.023
8.395,-0.028
8.396,-0.030
8.397,-0.031
8.398,-0.027
8.399,-0.025
8.400,-0.028
8.401,-0.028
8.402,-0.027
8.403,-0.028
8.404,-0.029
8.405,-0.031
8.406,-0.033
8.407,-0.031
8.408,-0.031
8.409,-0.031
8.410,-0.030
8.411,-0.031
8.412,-0.031
8.413,-0.031
8.414,-0.031
8.415,-0.031
8.416,-0.033
8.417,-0.034
8.418,-0.033
8.419,-0.034
8.420,-0.034
8.421,-0.031
8.422,-0.030
8.423,-0.034
8.424,-0.033
8.425,-0.031
8.426,-0.031
8.427,-0.028
8.428,-0.030
8.429,-0.028
8.430,-0.028
8.431,-0.028
8.432,-0.028
8.433,-0.031
8.434,-0.033
8.435,-0.034
8.436,-0.036
8.437,-0.038
8.438,-0.039
8.439,-0.041
8.440,-0.044
8.441,-0.047
8.442,-0.044
8.443,-0.044
8.444,-0.046
8.445,-0.044
8.446,-0.041
8.447,-0.041
8.448,-0.041
8.449,-0.044
8.450,-0.044
8.451,-0.041
8.452,-0.039
8.453,-0.038
8.454,-0.036
8.455,-0.034
8.456,-0.038
8.457,-0.038
8.458,-0.039
8.459,-0.041
8.460,-0.042
8.461,-0.047
8.462,-0.049
8.463,-0.050
8.464,-0.046
8.465,-0.044
8.466,-0.044
8.467,-0.044
8.468,-0.045
8.469,-0.047
8.470,-0.044
8.471,-0.047
8.472,-0.048
8.473,-0.050
8.474,-0.050
8.475,-0.050
8.476,-0.051
8.477,-0.053
8.478,-0.050
8.479,-0.053
8.480,-0.052
8.481,-0.050
8.482,-0.053
8.483,-0.056
8.484,-0.056
8.485,-0.056
8.486,-0.053
8.487,-0.050
8.488,-0.049
8.489,-0.050
8.490,-0.051
8.491,-0.053
8.492,-0.054
8.493,-0.053
8.494,-0.056
8.495,-0.056
8.496,-0.053
8.497,-0.056
8.498,-0.055
8.499,-0.056
8.500,-0.054
8.501,-0.056
8.502,-0.055
8.503,-0.053
8.504,-0.053
8.505,-0.056
8.506,-0.058
8.507,-0.063
8.508,-0.061
8.509,-0.063
8.510,-0.061
8.511,-0.063
8.512,-0.066
8.513,-0.066
8.514,-0.063
8.515,-0.066
8.516,-0.070
8.517,-0.069
8.518,-0.066
8.519,-0.063
8.520,-0.058
8.521,-0.056
8.522,-0.059
8.523,-0.059
8.524,-0.059
8.525,-0.059
8.526,-0.061
8.527,-0.066
8.528,-0.067
8.529,-0.066
8.530,-0.064
8.531,-0.063
8.532,-0.066
8.533,-0.066
8.534,-0.067
8.535,-0.069
8.536,-0.072
8.537,-0.072
8.538,-0.072
8.539,-0.072
8.540,-0.069
8.541,-0.063
8.542,-0.061
8.543,-0.056
8.544,-0.055
8.545,-0.053
8.546,-0.046
8.547,-0.034
8.548,-0.030
8.549,-0.019
8.550,-0.011
8.551,-0.003
8.552,0.000
8.553,0.003
8.554,0.003
8.555,0.003
8.556,0.005
8.557,0.006
8.558,0.014
8.559,0.022
8.560,0.021
8.561,0.025
8.562,0.030
8.563,0.034
8.564,0.039
8.565,0.041
8.566,0.042
8.567,0.041
8.568,0.039
8.569,0.044
8.570,0.044
8.571,0.044
8.572,0.042
8.573,0.041
8.574,0.041
8.575,0.041
8.576,0.051
8.577,0.053
8.578,0.056
8.579,0.062
8.580,0.070
8.581,0.078
8.582,0.078
8.583,0.081
8.584,0.092
8.585,0.109
8.586,0.123
8.587,0.134
8.588,0.146
8.589,0.159
8.590,0.169
8.591,0.181
8.592,0.187
8.593,0.194
8.594,0.194
8.595,0.191
8.596,0.191
8.597,0.191
8.598,0.186
8.599,0.184
8.600,0.176
8.601,0.178
8.602,0.173
8.603,0.175
8.604,0.174
8.605,0.169
8.606,0.162
8.607,0.156
8.608,0.151
8.609,0.147
8.610,0.142
8.611,0.134
8.612,0.125
8.613,0.119
8.614,0.111
8.615,0.097
8.616,0.081
8.617,0.066
8.618,0.061
8.619,0.053
8.620,0.045
8.621,0.034
8.622,0.019
8.623,0.006
8.624,-0.003
8.625,-0.013
8.626,-0.021
8.627,-0.028
8.628,-0.039
8.629,-0.050
8.630,-0.052
8.631,-0.053
8.632,-0.063
8.633,-0.066
8.634,-0.069
8.635,-0.072
8.636,-0.075
8.637,-0.078
8.638,-0.081
8.639,-0.084
8.640,-0.083
8.641,-0.084
8.642,-0.081
8.643,-0.078
8.644,-0.077
8.645,-0.075
8.646,-0.077
8.647,-0.075
8.648,-0.076
8.649,-0.081
8.650,-0.086
8.651,-0.088
8.652,-0.086
8.653,-0.088
8.654,-0.091
8.655,-0.091
8.656,-0.097
8.657,-0.100
8.658,-0.097
8.659,-0.094
8.660,-0.097
8.661,-0.094
8.662,-0.097
8.663,-0.097
8.664,-0.094
8.665,-0.094
8.666,-0.094
8.667,-0.097
8.668,-0.094
8.669,-0.094
8.670,-0.094
8.671,-0.097
8.672,-0.100
8.673,-0.106
8.674,-0.100
8.675,-0.097
8.676,-0.097
8.677,-0.100
8.678,-0.099
8.679,-0.097
8.680,-0.097
8.681,-0.094
8.682,-0.093
8.683,-0.091
8.684,-0.097
8.685,-0.094
8.686,-0.091
8.687,-0.091
8.688,-0.091
8.689,-0.091
8.690,-0.095
8.691,-0.094
8.692,-0.084
8.693,-0.075
8.694,-0.070
8.695,-0.053
8.696,-0.034
8.697,-0.013
8.698,0.004
8.699,0.022
8.700,0.034
8.701,0.053
8.702,0.066
8.703,0.072
8.704,0.079
8.705,0.075
8.706,0.069
8.707,0.059
8.708,0.057
8.709,0.062
8.710,0.074
8.711,0.091
8.712,0.124
8.713,0.172
8.714,0.216
8.715,0.275
8.716,0.342
8.717,0.453
8.718,0.584
8.719,0.725
8.720,0.897
8.721,1.072
8.722,1.225
8.723,1.312
8.724,1.303
8.725,1.209
8.726,1.103
8.727,1.031
8.728,0.984
8.729,0.919
8.730,0.811
8.731,0.716
8.732,0.630
8.733,0.553
8.734,0.455
8.735,0.362
8.736,0.271
8.737,0.197
8.738,0.141
8.739,0.106
8.740,0.070
8.741,0.038
8.742,0.003
8.743,-0.025
8.744,-0.056
8.745,-0.081
8.746,-0.106
8.747,-0.141
8.748,-0.175
8.749,-0.206
8.750,-0.242
8.751,-0.278
8.752,-0.306
8.753,-0.334
8.754,-0.351
8.755,-0.356
8.756,-0.356
8.757,-0.338
8.758,-0.306
8.759,-0.278
8.760,-0.259
8.761,-0.241
8.762,-0.229
8.763,-0.219
8.764,-0.208
8.765,-0.197
8.766,-0.189
8.767,-0.184
8.768,-0.174
8.769,-0.159
8.770,-0.142
8.771,-0.131
8.772,-0.133
8.773,-0.131
8.774,-0.128
8.775,-0.122
8.776,-0.114
8.777,-0.106
8.778,-0.106
8.779,-0.100
8.780,-0.097
8.781,-0.097
8.782,-0.095
8.783,-0.097
8.784,-0.093
8.785,-0.091
8.786,-0.088
8.787,-0.084
8.788,-0.084
8.789,-0.084
8.790,-0.081
8.791,-0.075
8.792,-0.072
8.793,-0.072
8.794,-0.072
8.795,-0.072
8.796,-0.072
8.797,-0.072
8.798,-0.073
8.799,-0.075
8.800,-0.073
8.801,-0.075
8.802,-0.075
8.803,-0.072
8.804,-0.069
8.805,-0.069
8.806,-0.069
8.807,-0.066
8.808,-0.064
8.809,-0.063
8.810,-0.061
8.811,-0.063
8.812,-0.064
8.813,-0.069
8.814,-0.063
8.815,-0.059
8.816,-0.063
8.817,-0.063
8.818,-0.061
8.819,-0.056
8.820,-0.058
8.821,-0.059
8.822,-0.064
8.823,-0.066
8.824,-0.063
8.825,-0.063
8.826,-0.056
8.827,-0.053
8.828,-0.050
8.829,-0.050
8.830,-0.048
8.831,-0.050
8.832,-0.051
8.833,-0.053
8.834,-0.049
8.835,-0.047
8.836,-0.046
8.837,-0.041
8.838,-0.039
8.839,-0.041
8.840,-0.041
8.841,-0.038
8.842,-0.041
8.843,-0.041
8.844,-0.044
8.845,-0.044
8.846,-0.041
8.847,-0.038
8.848,-0.039
8.849,-0.041
8.850,-0.042
8.851,-0.044
8.852,-0.045
8.853,-0.047
8.854,-0.047
8.855,-0.047
8.856,-0.048
8.857,-0.047
8.858,-0.045
8.859,-0.047
8.860,-0.047
8.861,-0.047
8.862,-0.046
8.863,-0.044
8.864,-0.046
8.865,-0.044
8.866,-0.045
8.867,-0.050
8.868,-0.049
8.869,-0.047
8.870,-0.044
8.871,-0.038
8.872,-0.036
8.873,-0.034
8.874,-0.031
8.875,-0.034
8.876,-0.038
8.877,-0.041
8.878,-0.041
8.879,-0.041
8.880,-0.038
8.881,-0.038
8.882,-0.034
8.883,-0.031
8.884,-0.034
8.885,-0.034
8.886,-0.033
8.887,-0.034
8.888,-0.034
8.889,-0.034
8.890,-0.031
8.891,-0.031
8.892,-0.028
8.893,-0.028
8.894,-0.029
8.895,-0.028
8.896,-0.027
8.897,-0.022
8.898,-0.018
8.899,-0.019
8.900,-0.023
8.901,-0.025
8.902,-0.023
8.903,-0.025
8.904,-0.025
8.905,-0.025
8.906,-0.022
8.907,-0.016
8.908,-0.013
8.909,-0.013
8.910,-0.014
8.911,-0.013
8.912,-0.013
8.913,-0.013
8.914,-0.006
8.915,-0.003
8.916,-0.001
8.917,-0.003
8.918,-0.003
8.919,-0.003
8.920,-0.002
8.921,0.000
8.922,0.002
8.923,0.003
8.924,0.007
8.925,0.009
8.926,0.009
8.927,0.006
8.928,0.009
8.929,0.009
8.930,0.013
8.931,0.016
8.932,0.017
8.933,0.016
8.934,0.013
8.935,0.013
8.936,0.014
8.937,0.013
8.938,0.011
8.939,0.009
8.940,0.016
8.941,0.019
8.942,0.020
8.943,0.025
8.944,0.024
8.945,0.025
8.946,0.025
8.947,0.025
8.948,0.026
8.949,0.028
8.950,0.027
8.951,0.022
8.952,0.024
8.953,0.022
8.954,0.022
8.955,0.019
8.956,0.021
8.957,0.019
8.958,0.019
8.959,0.019
8.960,0.019
8.961,0.019
8.962,0.017
8.963,0.016
8.964,0.016
8.965,0.016
8.966,0.014
8.967,0.016
8.968,0.017
8.969,0.019
8.970,0.025
8.971,0.025
8.972,0.025
8.973,0.025
8.974,0.026
8.975,0.028
8.976,0.030
8.977,0.028
8.978,0.031
8.979,0.038
8.980,0.041
8.981,0.044
8.982,0.041
8.983,0.038
8.984,0.038
8.985,0.041
8.986,0.042
8.987,0.047
8.988,0.047
8.989,0.047
8.990,0.046
8.991,0.044
8.992,0.046
8.993,0.047
8.994,0.049
8.995,0.047
8.996,0.050
8.997,0.053
8.998,0.057
8.999,0.059
9.000,0.056
9.001,0.059
9.002,0.059
9.003,0.059
9.004,0.066
9.005,0.069
9.006,0.066
9.007,0.066
9.008,0.076
9.009,0.078
9.010,0.074
9.011,0.075
9.012,0.074
9.013,0.075
9.014,0.076
9.015,0.078
9.016,0.075
9.017,0.075
9.018,0.075
9.019,0.075
9.020,0.079
9.021,0.078
9.022,0.080
9.023,0.078
9.024,0.083
9.025,0.081
9.026,0.081
9.027,0.078
9.028,0.078
9.029,0.078
9.030,0.081
9.031,0.084
9.032,0.084
9.033,0.084
9.034,0.084
9.035,0.087
9.036,0.087
9.037,0.091
9.038,0.091
9.039,0.091
9.040,0.089
9.041,0.084
9.042,0.081
9.043,0.075
9.044,0.076
9.045,0.075
9.046,0.076
9.047,0.078
9.048,0.075
9.049,0.075
9.050,0.066
9.051,0.056
9.052,0.057
9.053,0.056
9.054,0.056
9.055,0.053
9.056,0.054
9.057,0.053
9.058,0.050
9.059,0.050
9.060,0.047
9.061,0.047
9.062,0.048
9.063,0.047
9.064,0.046
9.065,0.044
9.066,0.036
9.067,0.031
9.068,0.029
9.069,0.031
9.070,0.028
9.071,0.028
9.072,0.024
9.073,0.022
9.074,0.025
9.075,0.019
9.076,0.017
9.077,0.013
9.078,0.011
9.079,0.009
9.080,0.016
9.081,0.019
9.082,0.017
9.083,0.016
9.084,0.017
9.085,0.019
9.086,0.017
9.087,0.016
9.088,0.011
9.089,0.009
9.090,0.009
9.091,0.009
9.092,0.009
9.093,0.009
9.094,0.006
9.095,0.006
9.096,0.006
9.097,0.006
9.098,0.009
9.099,0.009
9.100,0.003
9.101,-0.003
9.102,-0.003
9.103,0.000
9.104,0.000
9.105,0.000
9.106,-0.003
9.107,-0.003
9.108,0.000
9.109,0.000
9.110,0.000
9.111,-0.003
9.112,-0.004
9.113,-0.006
9.114,-0.006
9.115,-0.006
9.116,-0.009
9.117,-0.013
9.118,-0.016
9.119,-0.016
9.120,-0.013
9.121,-0.016
9.122,-0.017
9.123,-0.016
9.124,-0.017
9.125,-0.019
9.126,-0.023
9.127,-0.028
9.128,-0.029
9.129,-0.031
9.130,-0.024
9.131,-0.022
9.132,-0.022
9.133,-0.019
9.134,-0.020
9.135,-0.022
9.136,-0.022
9.137,-0.025
9.138,-0.026
9.139,-0.028
9.140,-0.031
9.141,-0.034
9.142,-0.036
9.143,-0.034
9.144,-0.034
9.145,-0.034
9.146,-0.034
9.147,-0.038
9.148,-0.039
9.149,-0.041
9.150,-0.044
9.151,-0.047
9.152,-0.043
9.153,-0.047
9.154,-0.046
9.155,-0.044
9.156,-0.045
9.157,-0.044
9.158,-0.047
9.159,-0.047
9.160,-0.044
9.161,-0.044
9.162,-0.050
9.163,-0.050
9.164,-0.049
9.165,-0.050
9.166,-0.050
9.167,-0.050
9.168,-0.053
9.169,-0.053
9.170,-0.052
9.171,-0.053
9.172,-0.054
9.173,-0.056
9.174,-0.055
9.175,-0.053
9.176,-0.056
9.177,-0.056
9.178,-0.056
9.179,-0.056
9.180,-0.056
9.181,-0.056
9.182,-0.055
9.183,-0.053
9.184,-0.059
9.185,-0.063
9.186,-0.061
9.187,-0.063
9.188,-0.068
9.189,-0.066
9.190,-0.067
9.191,-0.069
9.192,-0.066
9.193,-0.069
9.194,-0.070
9.195,-0.072
9.196,-0.071
9.197,-0.069
9.198,-0.071
9.199,-0.069
9.200,-0.069
9.201,-0.069
9.202,-0.069
9.203,-0.069
9.204,-0.069
9.205,-0.069
9.206,-0.070
9.207,-0.069
9.208,-0.068
9.209,-0.069
9.210,-0.069
9.211,-0.069
9.212,-0.072
9.213,-0.072
9.214,-0.078
9.215,-0.081
9.216,-0.078
9.217,-0.078
9.218,-0.078
9.219,-0.078
9.220,-0.074
9.221,-0.072
9.222,-0.072
9.223,-0.072
9.224,-0.075
9.225,-0.075
9.226,-0.076
9.227,-0.081
9.228,-0.086
9.229,-0.084
9.230,-0.083
9.231,-0.081
9.232,-0.080
9.233,-0.078
9.234,-0.081
9.235,-0.081
9.236,-0.084
9.237,-0.084
9.238,-0.084
9.239,-0.084
9.240,-0.083
9.241,-0.081
9.242,-0.081
9.243,-0.078
9.244,-0.078
9.245,-0.075
9.246,-0.075
9.247,-0.075
9.248,-0.074
9.249,-0.075
9.250,-0.081
9.251,-0.081
9.252,-0.078
9.253,-0.078
9.254,-0.082
9.255,-0.084
9.256,-0.086
9.257,-0.084
9.258,-0.088
9.259,-0.088
9.260,-0.088
9.261,-0.088
9.262,-0.086
9.263,-0.091
9.264,-0.089
9.265,-0.088
9.266,-0.091
9.267,-0.091
9.268,-0.093
9.269,-0.091
9.270,-0.084
9.271,-0.084
9.272,-0.084
9.273,-0.088
9.274,-0.083
9.275,-0.081
9.276,-0.081
9.277,-0.081
9.278,-0.081
9.279,-0.084
9.280,-0.082
9.281,-0.084
9.282,-0.084
9.283,-0.088
9.284,-0.083
9.285,-0.081
9.286,-0.084
9.287,-0.084
9.288,-0.078
9.289,-0.078
9.290,-0.082
9.291,-0.081
9.292,-0.081
9.293,-0.081
9.294,-0.078
9.295,-0.078
9.296,-0.081
9.297,-0.081
9.298,-0.082
9.299,-0.084
9.300,-0.083
9.301,-0.084
9.302,-0.083
9.303,-0.078
9.304,-0.079
9.305,-0.081
9.306,-0.084
9.307,-0.084
9.308,-0.086
9.309,-0.088
9.310,-0.089
9.311,-0.088
9.312,-0.086
9.313,-0.084
9.314,-0.081
9.315,-0.075
9.316,-0.078
9.317,-0.078
9.318,-0.077
9.319,-0.075
9.320,-0.072
9.321,-0.066
9.322,-0.064
9.323,-0.056
9.324,-0.050
9.325,-0.044
9.326,-0.036
9.327,-0.028
9.328,-0.022
9.329,-0.016
9.330,-0.014
9.331,-0.013
9.332,-0.006
9.333,0.000
9.334,-0.001
9.335,0.003
9.336,0.006
9.337,0.009
9.338,0.014
9.339,0.016
9.340,0.016
9.341,0.013
9.342,0.003
9.343,0.000
9.344,0.000
9.345,0.000
9.346,0.000
9.347,0.000
9.348,0.001
9.349,0.003
9.350,0.019
9.351,0.025
9.352,0.030
9.353,0.038
9.354,0.042
9.355,0.047
9.356,0.050
9.357,0.056
9.358,0.059
9.359,0.069
9.360,0.086
9.361,0.100
9.362,0.108
9.363,0.119
9.364,0.131
9.365,0.147
9.366,0.157
9.367,0.169
9.368,0.181
9.369,0.191
9.370,0.189
9.371,0.187
9.372,0.182
9.373,0.181
9.374,0.169
9.375,0.166
9.376,0.161
9.377,0.162
9.378,0.164
9.379,0.162
9.380,0.162
9.381,0.162
9.382,0.150
9.383,0.137
9.384,0.134
9.385,0.128
9.386,0.123
9.387,0.122
9.388,0.119
9.389,0.109
9.390,0.097
9.391,0.084
9.392,0.075
9.393,0.062
9.394,0.053
9.395,0.041
9.396,0.028
9.397,0.019
9.398,0.006
9.399,-0.006
9.400,-0.019
9.401,-0.031
9.402,-0.038
9.403,-0.044
9.404,-0.047
9.405,-0.050
9.406,-0.059
9.407,-0.063
9.408,-0.064
9.409,-0.066
9.410,-0.067
9.411,-0.069
9.412,-0.069
9.413,-0.069
9.414,-0.068
9.415,-0.069
9.416,-0.069
9.417,-0.069
9.418,-0.070
9.419,-0.072
9.420,-0.074
9.421,-0.072
9.422,-0.073
9.423,-0.078
9.424,-0.082
9.425,-0.084
9.426,-0.084
9.427,-0.088
9.428,-0.092
9.429,-0.094
9.430,-0.096
9.431,-0.094
9.432,-0.093
9.433,-0.091
9.434,-0.094
9.435,-0.091
9.436,-0.093
9.437,-0.091
9.438,-0.088
9.439,-0.088
9.440,-0.089
9.441,-0.094
9.442,-0.091
9.443,-0.091
9.444,-0.091
9.445,-0.094
9.446,-0.097
9.447,-0.103
9.448,-0.101
9.449,-0.103
9.450,-0.102
9.451,-0.103
9.452,-0.100
9.453,-0.097
9.454,-0.101
9.455,-0.103
9.456,-0.104
9.457,-0.106
9.458,-0.114
9.459,-0.113
9.460,-0.109
9.461,-0.109
9.462,-0.114
9.463,-0.119
9.464,-0.116
9.465,-0.106
9.466,-0.099
9.467,-0.091
9.468,-0.089
9.469,-0.075
9.470,-0.056
9.471,-0.034
9.472,-0.022
9.473,-0.009
9.474,0.011
9.475,0.038
9.476,0.056
9.477,0.069
9.478,0.081
9.479,0.081
9.480,0.075
9.481,0.066
9.482,0.055
9.483,0.050
9.484,0.044
9.485,0.044
9.486,0.058
9.487,0.087
9.488,0.117
9.489,0.162
9.490,0.208
9.491,0.297
9.492,0.417
9.493,0.547
9.494,0.708
9.495,0.872
9.496,1.070
9.497,1.203
9.498,1.248
9.499,1.209
9.500,1.089
9.501,1.003
9.502,0.970
9.503,0.919
9.504,0.822
9.505,0.737
