'Elapsed time','II'
'seconds','mV'
0.000,0.550
0.001,0.413
0.002,0.275
0.003,0.138
0.004,0.041
0.005,-0.056
0.006,-0.097
0.007,-0.137
0.008,-0.139
0.009,-0.141
0.010,-0.141
0.011,-0.141
0.012,-0.142
0.013,-0.144
0.014,-0.144
0.015,-0.144
0.016,-0.144
0.017,-0.144
0.018,-0.137
0.019,-0.131
0.020,-0.128
0.021,-0.125
0.022,-0.125
0.023,-0.125
0.024,-0.122
0.025,-0.119
0.026,-0.119
0.027,-0.119
0.028,-0.122
0.029,-0.125
0.030,-0.125
0.031,-0.125
0.032,-0.125
0.033,-0.125
0.034,-0.132
0.035,-0.141
0.036,-0.139
0.037,-0.137
0.038,-0.134
0.039,-0.131
0.040,-0.131
0.041,-0.131
0.042,-0.131
0.043,-0.131
0.044,-0.131
0.045,-0.131
0.046,-0.132
0.047,-0.134
0.048,-0.136
0.049,-0.137
0.050,-0.137
0.051,-0.137
0.052,-0.139
0.053,-0.141
0.054,-0.136
0.055,-0.131
0.056,-0.134
0.057,-0.137
0.058,-0.141
0.059,-0.144
0.060,-0.142
0.061,-0.141
0.062,-0.141
0.063,-0.141
0.064,-0.134
0.065,-0.128
0.066,-0.129
0.067,-0.131
0.068,-0.134
0.069,-0.137
0.070,-0.133
0.071,-0.128
0.072,-0.128
0.073,-0.128
0.074,-0.127
0.075,-0.125
0.076,-0.125
0.077,-0.125
0.078,-0.126
0.079,-0.128
0.080,-0.125
0.081,-0.122
0.082,-0.122
0.083,-0.122
0.084,-0.119
0.085,-0.116
0.086,-0.116
0.087,-0.116
0.088,-0.116
0.089,-0.116
0.090,-0.116
0.091,-0.116
0.092,-0.114
0.093,-0.112
0.094,-0.109
0.095,-0.106
0.096,-0.106
0.097,-0.106
0.098,-0.107
0.099,-0.109
0.100,-0.108
0.101,-0.106
0.102,-0.105
0.103,-0.103
0.104,-0.103
0.105,-0.103
0.106,-0.099
0.107,-0.094
0.108,-0.094
0.109,-0.094
0.110,-0.094
0.111,-0.094
0.112,-0.094
0.113,-0.094
0.114,-0.097
0.115,-0.100
0.116,-0.100
0.117,-0.100
0.118,-0.100
0.119,-0.100
0.120,-0.100
0.121,-0.100
0.122,-0.097
0.123,-0.094
0.124,-0.092
0.125,-0.091
0.126,-0.092
0.127,-0.094
0.128,-0.095
0.129,-0.097
0.130,-0.096
0.131,-0.094
0.132,-0.092
0.133,-0.091
0.134,-0.087
0.135,-0.084
0.136,-0.086
0.137,-0.087
0.138,-0.089
0.139,-0.091
0.140,-0.091
0.141,-0.091
0.142,-0.091
0.143,-0.091
0.144,-0.092
0.145,-0.094
0.146,-0.092
0.147,-0.091
0.148,-0.089
0.149,-0.087
0.150,-0.084
0.151,-0.081
0.152,-0.081
0.153,-0.081
0.154,-0.079
0.155,-0.078
0.156,-0.077
0.157,-0.075
0.158,-0.072
0.159,-0.072
0.160,-0.071
0.161,-0.069
0.162,-0.061
0.163,-0.053
0.164,-0.057
0.165,-0.053
0.166,-0.049
0.167,-0.044
0.168,-0.044
0.169,-0.041
0.170,-0.039
0.171,-0.037
0.172,-0.036
0.173,-0.034
0.174,-0.028
0.175,-0.025
0.176,-0.023
0.177,-0.025
0.178,-0.019
0.179,-0.016
0.180,-0.011
0.181,-0.006
0.182,-0.009
0.183,-0.006
0.184,-0.002
0.185,0.003
0.186,0.002
0.187,0.003
0.188,0.006
0.189,0.006
0.190,0.008
0.191,0.009
0.192,0.016
0.193,0.019
0.194,0.019
0.195,0.022
0.196,0.028
0.197,0.034
0.198,0.033
0.199,0.034
0.200,0.034
0.201,0.031
0.202,0.041
0.203,0.044
0.204,0.047
0.205,0.053
0.206,0.052
0.207,0.050
0.208,0.056
0.209,0.056
0.210,0.061
0.211,0.063
0.212,0.063
0.213,0.066
0.214,0.063
0.215,0.063
0.216,0.059
0.217,0.059
0.218,0.061
0.219,0.063
0.220,0.061
0.221,0.063
0.222,0.061
0.223,0.063
0.224,0.059
0.225,0.056
0.226,0.056
0.227,0.059
0.228,0.061
0.229,0.066
0.230,0.068
0.231,0.066
0.232,0.064
0.233,0.063
0.234,0.063
0.235,0.063
0.236,0.059
0.237,0.059
0.238,0.064
0.239,0.063
0.240,0.061
0.241,0.063
0.242,0.066
0.243,0.069
0.244,0.069
0.245,0.069
0.246,0.069
0.247,0.069
0.248,0.068
0.249,0.069
0.250,0.068
0.251,0.069
0.252,0.070
0.253,0.075
0.254,0.083
0.255,0.084
0.256,0.086
0.257,0.088
0.258,0.088
0.259,0.091
0.260,0.089
0.261,0.091
0.262,0.089
0.263,0.091
0.264,0.094
0.265,0.097
0.266,0.097
0.267,0.097
0.268,0.097
0.269,0.097
0.270,0.097
0.271,0.094
0.272,0.093
0.273,0.091
0.274,0.091
0.275,0.088
0.276,0.091
0.277,0.094
0.278,0.092
0.279,0.094
0.280,0.088
0.281,0.084
0.282,0.086
0.283,0.084
0.284,0.081
0.285,0.075
0.286,0.074
0.287,0.072
0.288,0.074
0.289,0.072
0.290,0.071
0.291,0.069
0.292,0.066
0.293,0.063
0.294,0.059
0.295,0.056
0.296,0.053
0.297,0.050
0.298,0.049
0.299,0.044
0.300,0.045
0.301,0.047
0.302,0.044
0.303,0.041
0.304,0.036
0.305,0.031
0.306,0.031
0.307,0.028
0.308,0.024
0.309,0.019
0.310,0.014
0.311,0.012
0.312,0.007
0.313,0.009
0.314,0.006
0.315,0.006
0.316,0.004
0.317,0.003
0.318,0.001
0.319,0.003
0.320,-0.003
0.321,-0.009
0.322,-0.011
0.323,-0.016
0.324,-0.012
0.325,-0.012
0.326,-0.014
0.327,-0.016
0.328,-0.016
0.329,-0.019
0.330,-0.025
0.331,-0.028
0.332,-0.028
0.333,-0.028
0.334,-0.025
0.335,-0.025
0.336,-0.025
0.337,-0.025
0.338,-0.027
0.339,-0.028
0.340,-0.031
0.341,-0.031
0.342,-0.030
0.343,-0.031
0.344,-0.030
0.345,-0.031
0.346,-0.036
0.347,-0.044
0.348,-0.042
0.349,-0.041
0.350,-0.044
0.351,-0.041
0.352,-0.044
0.353,-0.047
0.354,-0.047
0.355,-0.044
0.356,-0.047
0.357,-0.047
0.358,-0.044
0.359,-0.041
0.360,-0.036
0.361,-0.034
0.362,-0.041
0.363,-0.044
0.364,-0.044
0.365,-0.041
0.366,-0.047
0.367,-0.047
0.368,-0.050
0.369,-0.047
0.370,-0.042
0.371,-0.041
0.372,-0.044
0.373,-0.041
0.374,-0.041
0.375,-0.041
0.376,-0.042
0.377,-0.044
0.378,-0.044
0.379,-0.047
0.380,-0.046
0.381,-0.047
0.382,-0.048
0.383,-0.050
0.384,-0.053
0.385,-0.056
0.386,-0.055
0.387,-0.056
0.388,-0.053
0.389,-0.056
0.390,-0.061
0.391,-0.062
0.392,-0.059
0.393,-0.059
0.394,-0.062
0.395,-0.062
0.396,-0.061
0.397,-0.062
0.398,-0.062
0.399,-0.066
0.400,-0.066
0.401,-0.066
0.402,-0.067
0.403,-0.069
0.404,-0.070
0.405,-0.072
0.406,-0.072
0.407,-0.072
0.408,-0.074
0.409,-0.072
0.410,-0.074
0.411,-0.072
0.412,-0.072
0.413,-0.072
0.414,-0.072
0.415,-0.072
0.416,-0.073
0.417,-0.078
0.418,-0.082
0.419,-0.084
0.420,-0.081
0.421,-0.075
0.422,-0.075
0.423,-0.072
0.424,-0.076
0.425,-0.078
0.426,-0.078
0.427,-0.081
0.428,-0.082
0.429,-0.084
0.430,-0.083
0.431,-0.081
0.432,-0.087
0.433,-0.087
0.434,-0.086
0.435,-0.087
0.436,-0.089
0.437,-0.084
0.438,-0.087
0.439,-0.087
0.440,-0.086
0.441,-0.084
0.442,-0.083
0.443,-0.084
0.444,-0.086
0.445,-0.087
0.446,-0.087
0.447,-0.087
0.448,-0.089
0.449,-0.087
0.450,-0.086
0.451,-0.087
0.452,-0.089
0.453,-0.087
0.454,-0.087
0.455,-0.091
0.456,-0.091
0.457,-0.091
0.458,-0.091
0.459,-0.091
0.460,-0.091
0.461,-0.091
0.462,-0.089
0.463,-0.091
0.464,-0.089
0.465,-0.091
0.466,-0.089
0.467,-0.087
0.468,-0.089
0.469,-0.084
0.470,-0.078
0.471,-0.072
0.472,-0.066
0.473,-0.056
0.474,-0.049
0.475,-0.037
0.476,-0.028
0.477,-0.019
0.478,-0.008
0.479,0.003
0.480,0.009
0.481,0.012
0.482,0.019
0.483,0.022
0.484,0.025
0.485,0.031
0.486,0.041
0.487,0.047
0.488,0.037
0.489,0.034
0.490,0.031
0.491,0.031
0.492,0.039
0.493,0.044
0.494,0.050
0.495,0.053
0.496,0.059
0.497,0.063
0.498,0.069
0.499,0.078
0.500,0.083
0.501,0.091
0.502,0.101
0.503,0.113
0.504,0.123
0.505,0.131
0.506,0.136
0.507,0.138
0.508,0.144
0.509,0.147
0.510,0.144
0.511,0.144
0.512,0.141
0.513,0.141
0.514,0.139
0.515,0.141
0.516,0.142
0.517,0.144
0.518,0.144
0.519,0.144
0.520,0.136
0.521,0.128
0.522,0.118
0.523,0.109
0.524,0.103
0.525,0.100
0.526,0.096
0.527,0.091
0.528,0.088
0.529,0.084
0.530,0.081
0.531,0.072
0.532,0.064
0.533,0.056
0.534,0.044
0.535,0.028
0.536,0.017
0.537,0.003
0.538,-0.006
0.539,-0.016
0.540,-0.025
0.541,-0.028
0.542,-0.037
0.543,-0.050
0.544,-0.058
0.545,-0.062
0.546,-0.071
0.547,-0.075
0.548,-0.082
0.549,-0.087
0.550,-0.095
0.551,-0.103
0.552,-0.109
0.553,-0.112
0.554,-0.116
0.555,-0.122
0.556,-0.129
0.557,-0.137
0.558,-0.142
0.559,-0.147
0.560,-0.146
0.561,-0.147
0.562,-0.150
0.563,-0.150
0.564,-0.151
0.565,-0.156
0.566,-0.156
0.567,-0.156
0.568,-0.159
0.569,-0.162
0.570,-0.166
0.571,-0.169
0.572,-0.169
0.573,-0.169
0.574,-0.167
0.575,-0.169
0.576,-0.167
0.577,-0.169
0.578,-0.173
0.579,-0.175
0.580,-0.174
0.581,-0.169
0.582,-0.167
0.583,-0.169
0.584,-0.169
0.585,-0.172
0.586,-0.175
0.587,-0.178
0.588,-0.177
0.589,-0.178
0.590,-0.175
0.591,-0.172
0.592,-0.169
0.593,-0.172
0.594,-0.172
0.595,-0.175
0.596,-0.174
0.597,-0.169
0.598,-0.169
0.599,-0.169
0.600,-0.167
0.601,-0.166
0.602,-0.167
0.603,-0.166
0.604,-0.169
0.605,-0.166
0.606,-0.167
0.607,-0.166
0.608,-0.162
0.609,-0.162
0.610,-0.159
0.611,-0.162
0.612,-0.164
0.613,-0.172
0.614,-0.175
0.615,-0.184
0.616,-0.194
0.617,-0.200
0.618,-0.203
0.619,-0.203
0.620,-0.211
0.621,-0.209
0.622,-0.197
0.623,-0.181
0.624,-0.169
0.625,-0.159
0.626,-0.147
0.627,-0.122
0.628,-0.092
0.629,-0.053
0.630,-0.011
0.631,0.034
0.632,0.086
0.633,0.147
0.634,0.213
0.635,0.291
0.636,0.372
0.637,0.466
0.638,0.559
0.639,0.666
0.640,0.769
0.641,0.869
0.642,0.971
0.643,1.066
0.644,1.166
0.645,1.256
0.646,1.336
0.647,1.400
0.648,1.461
0.649,1.513
0.650,1.548
0.651,1.541
0.652,1.480
0.653,1.394
0.654,1.299
0.655,1.181
0.656,1.063
0.657,0.931
0.658,0.781
0.659,0.622
0.660,0.472
0.661,0.334
0.662,0.203
0.663,0.081
0.664,-0.028
0.665,-0.094
0.666,-0.130
0.667,-0.144
0.668,-0.150
0.669,-0.150
0.670,-0.142
0.671,-0.144
0.672,-0.145
0.673,-0.147
0.674,-0.147
0.675,-0.150
0.676,-0.142
0.677,-0.137
0.678,-0.133
0.679,-0.125
0.680,-0.129
0.681,-0.128
0.682,-0.126
0.683,-0.128
0.684,-0.125
0.685,-0.125
0.686,-0.122
0.687,-0.122
0.688,-0.125
0.689,-0.125
0.690,-0.122
0.691,-0.125
0.692,-0.129
0.693,-0.134
0.694,-0.136
0.695,-0.137
0.696,-0.134
0.697,-0.131
0.698,-0.131
0.699,-0.134
0.700,-0.137
0.701,-0.141
0.702,-0.142
0.703,-0.144
0.704,-0.145
0.705,-0.147
0.706,-0.142
0.707,-0.141
0.708,-0.141
0.709,-0.141
0.710,-0.141
0.711,-0.144
0.712,-0.142
0.713,-0.141
0.714,-0.145
0.715,-0.147
0.716,-0.147
0.717,-0.147
0.718,-0.147
0.719,-0.147
0.720,-0.146
0.721,-0.144
0.722,-0.144
0.723,-0.141
0.724,-0.141
0.725,-0.141
0.726,-0.139
0.727,-0.137
0.728,-0.134
0.729,-0.134
0.730,-0.137
0.731,-0.141
0.732,-0.139
0.733,-0.137
0.734,-0.134
0.735,-0.134
0.736,-0.131
0.737,-0.131
0.738,-0.128
0.739,-0.125
0.740,-0.126
0.741,-0.128
0.742,-0.129
0.743,-0.128
0.744,-0.128
0.745,-0.125
0.746,-0.122
0.747,-0.119
0.748,-0.117
0.749,-0.119
0.750,-0.116
0.751,-0.116
0.752,-0.119
0.753,-0.116
0.754,-0.116
0.755,-0.112
0.756,-0.114
0.757,-0.112
0.758,-0.114
0.759,-0.116
0.760,-0.114
0.761,-0.112
0.762,-0.114
0.763,-0.112
0.764,-0.116
0.765,-0.116
0.766,-0.111
0.767,-0.109
0.768,-0.112
0.769,-0.109
0.770,-0.106
0.771,-0.109
0.772,-0.109
0.773,-0.109
0.774,-0.108
0.775,-0.106
0.776,-0.107
0.777,-0.106
0.778,-0.106
0.779,-0.106
0.780,-0.109
0.781,-0.109
0.782,-0.105
0.783,-0.103
0.784,-0.103
0.785,-0.103
0.786,-0.104
0.787,-0.106
0.788,-0.104
0.789,-0.106
0.790,-0.103
0.791,-0.100
0.792,-0.097
0.793,-0.100
0.794,-0.101
0.795,-0.100
0.796,-0.100
0.797,-0.100
0.798,-0.101
0.799,-0.100
0.800,-0.101
0.801,-0.103
0.802,-0.102
0.803,-0.097
0.804,-0.098
0.805,-0.100
0.806,-0.098
0.807,-0.094
0.808,-0.094
0.809,-0.094
0.810,-0.087
0.811,-0.084
0.812,-0.086
0.813,-0.084
0.814,-0.084
0.815,-0.081
0.816,-0.081
0.817,-0.078
0.818,-0.074
0.819,-0.069
0.820,-0.069
0.821,-0.066
0.822,-0.061
0.823,-0.059
0.824,-0.059
0.825,-0.059
0.826,-0.057
0.827,-0.056
0.828,-0.050
0.829,-0.047
0.830,-0.039
0.831,-0.034
0.832,-0.036
0.833,-0.034
0.834,-0.032
0.835,-0.031
0.836,-0.025
0.837,-0.022
0.838,-0.017
0.839,-0.019
0.840,-0.017
0.841,-0.019
0.842,-0.014
0.843,-0.009
0.844,-0.003
0.845,0.000
0.846,-0.001
0.847,0.003
0.848,0.003
0.849,0.003
0.850,0.006
0.851,0.012
0.852,0.020
0.853,0.025
0.854,0.026
0.855,0.031
0.856,0.034
0.857,0.031
0.858,0.031
0.859,0.031
0.860,0.032
0.861,0.034
0.862,0.039
0.863,0.041
0.864,0.044
0.865,0.047
0.866,0.049
0.867,0.050
0.868,0.049
0.869,0.050
0.870,0.049
0.871,0.047
0.872,0.050
0.873,0.047
0.874,0.047
0.875,0.047
0.876,0.051
0.877,0.053
0.878,0.054
0.879,0.059
0.880,0.058
0.881,0.063
0.882,0.066
0.883,0.066
0.884,0.064
0.885,0.063
0.886,0.066
0.887,0.063
0.888,0.063
0.889,0.063
0.890,0.066
0.891,0.066
0.892,0.067
0.893,0.069
0.894,0.068
0.895,0.069
0.896,0.069
0.897,0.069
0.898,0.068
0.899,0.069
0.900,0.072
0.901,0.075
0.902,0.078
0.903,0.081
0.904,0.079
0.905,0.081
0.906,0.078
0.907,0.078
0.908,0.080
0.909,0.078
0.910,0.078
0.911,0.078
0.912,0.083
0.913,0.084
0.914,0.083
0.915,0.081
0.916,0.089
0.917,0.091
0.918,0.091
0.919,0.094
0.920,0.094
0.921,0.094
0.922,0.095
0.923,0.097
0.924,0.100
0.925,0.103
0.926,0.103
0.927,0.103
0.928,0.102
0.929,0.100
0.930,0.097
0.931,0.097
0.932,0.098
0.933,0.100
0.934,0.097
0.935,0.100
0.936,0.098
0.937,0.100
0.938,0.098
0.939,0.100
0.940,0.098
0.941,0.100
0.942,0.100
0.943,0.094
0.944,0.091
0.945,0.091
0.946,0.088
0.947,0.084
0.948,0.081
0.949,0.078
0.950,0.078
0.951,0.078
0.952,0.078
0.953,0.072
0.954,0.066
0.955,0.059
0.956,0.058
0.957,0.056
0.958,0.056
0.959,0.053
0.960,0.053
0.961,0.050
0.962,0.048
0.963,0.047
0.964,0.044
0.965,0.041
0.966,0.033
0.967,0.031
0.968,0.028
0.969,0.025
0.970,0.023
0.971,0.022
0.972,0.025
0.973,0.025
0.974,0.014
0.975,0.009
0.976,0.007
0.977,0.006
0.978,0.003
0.979,0.003
0.980,0.006
0.981,0.006
0.982,-0.001
0.983,-0.009
0.984,-0.009
0.985,-0.009
0.986,-0.011
0.987,-0.009
0.988,-0.014
0.989,-0.016
0.990,-0.016
0.991,-0.019
0.992,-0.017
0.993,-0.016
0.994,-0.023
0.995,-0.025
0.996,-0.021
0.997,-0.022
0.998,-0.026
0.999,-0.028
1.000,-0.028
1.001,-0.031
1.002,-0.030
1.003,-0.031
1.004,-0.030
1.005,-0.031
1.006,-0.027
1.007,-0.028
1.008,-0.028
1.009,-0.028
1.010,-0.028
1.011,-0.031
1.012,-0.032
1.013,-0.034
1.014,-0.034
1.015,-0.034
1.016,-0.037
1.017,-0.037
1.018,-0.037
1.019,-0.037
1.020,-0.037
1.021,-0.037
1.022,-0.037
1.023,-0.041
1.024,-0.037
1.025,-0.034
1.026,-0.037
1.027,-0.037
1.028,-0.041
1.029,-0.044
1.030,-0.047
1.031,-0.050
1.032,-0.053
1.033,-0.050
1.034,-0.050
1.035,-0.047
1.036,-0.047
1.037,-0.047
1.038,-0.050
1.039,-0.050
1.040,-0.050
1.041,-0.050
1.042,-0.049
1.043,-0.047
1.044,-0.053
1.045,-0.056
1.046,-0.061
1.047,-0.062
1.048,-0.058
1.049,-0.056
1.050,-0.058
1.051,-0.059
1.052,-0.059
1.053,-0.059
1.054,-0.057
1.055,-0.062
1.056,-0.061
1.057,-0.059
1.058,-0.064
1.059,-0.066
1.060,-0.066
1.061,-0.066
1.062,-0.067
1.063,-0.066
1.064,-0.069
1.065,-0.069
1.066,-0.069
1.067,-0.069
1.068,-0.069
1.069,-0.069
1.070,-0.067
1.071,-0.069
1.072,-0.070
1.073,-0.072
1.074,-0.073
1.075,-0.075
1.076,-0.075
1.077,-0.072
1.078,-0.076
1.079,-0.075
1.080,-0.075
1.081,-0.075
1.082,-0.074
1.083,-0.072
1.084,-0.074
1.085,-0.075
1.086,-0.078
1.087,-0.081
1.088,-0.079
1.089,-0.084
1.090,-0.084
1.091,-0.087
1.092,-0.084
1.093,-0.081
1.094,-0.083
1.095,-0.081
1.096,-0.086
1.097,-0.091
1.098,-0.091
1.099,-0.094
1.100,-0.089
1.101,-0.087
1.102,-0.094
1.103,-0.100
1.104,-0.094
1.105,-0.094
1.106,-0.094
1.107,-0.094
1.108,-0.091
1.109,-0.087
1.110,-0.091
1.111,-0.091
1.112,-0.087
1.113,-0.084
1.114,-0.084
1.115,-0.087
1.116,-0.086
1.117,-0.084
1.118,-0.089
1.119,-0.091
1.120,-0.086
1.121,-0.084
1.122,-0.087
1.123,-0.087
1.124,-0.087
1.125,-0.087
1.126,-0.089
1.127,-0.091
1.128,-0.092
1.129,-0.094
1.130,-0.098
1.131,-0.097
1.132,-0.096
1.133,-0.091
1.134,-0.087
1.135,-0.087
1.136,-0.082
1.137,-0.078
1.138,-0.072
1.139,-0.066
1.140,-0.056
1.141,-0.050
1.142,-0.041
1.143,-0.031
1.144,-0.017
1.145,-0.003
1.146,0.007
1.147,0.016
1.148,0.017
1.149,0.022
1.150,0.024
1.151,0.025
1.152,0.036
1.153,0.041
1.154,0.039
1.155,0.034
1.156,0.031
1.157,0.028
1.158,0.027
1.159,0.028
1.160,0.034
1.161,0.044
1.162,0.047
1.163,0.053
1.164,0.056
1.165,0.063
1.166,0.072
1.167,0.078
1.168,0.091
1.169,0.103
1.170,0.114
1.171,0.125
1.172,0.131
1.173,0.138
1.174,0.141
1.175,0.144
1.176,0.143
1.177,0.138
1.178,0.139
1.179,0.138
1.180,0.138
1.181,0.138
1.182,0.141
1.183,0.141
1.184,0.141
1.185,0.138
1.186,0.134
1.187,0.128
1.188,0.123
1.189,0.116
1.190,0.109
1.191,0.103
1.192,0.100
1.193,0.097
1.194,0.095
1.195,0.094
1.196,0.092
1.197,0.091
1.198,0.077
1.199,0.063
1.200,0.052
1.201,0.037
1.202,0.023
1.203,0.016
1.204,0.003
1.205,-0.003
1.206,-0.009
1.207,-0.019
1.208,-0.021
1.209,-0.028
1.210,-0.042
1.211,-0.053
1.212,-0.056
1.213,-0.062
1.214,-0.070
1.215,-0.078
1.216,-0.080
1.217,-0.084
1.218,-0.092
1.219,-0.100
1.220,-0.104
1.221,-0.112
1.222,-0.121
1.223,-0.122
1.224,-0.126
1.225,-0.131
1.226,-0.131
1.227,-0.131
1.228,-0.137
1.229,-0.141
1.230,-0.145
1.231,-0.150
1.232,-0.154
1.233,-0.156
1.234,-0.157
1.235,-0.159
1.236,-0.159
1.237,-0.159
1.238,-0.158
1.239,-0.156
1.240,-0.156
1.241,-0.156
1.242,-0.159
1.243,-0.159
1.244,-0.162
1.245,-0.166
1.246,-0.167
1.247,-0.169
1.248,-0.164
1.249,-0.162
1.250,-0.167
1.251,-0.166
1.252,-0.166
1.253,-0.166
1.254,-0.164
1.255,-0.162
1.256,-0.166
1.257,-0.166
1.258,-0.162
1.259,-0.156
1.260,-0.161
1.261,-0.159
1.262,-0.159
1.263,-0.159
1.264,-0.157
1.265,-0.159
1.266,-0.159
1.267,-0.159
1.268,-0.158
1.269,-0.156
1.270,-0.152
1.271,-0.153
1.272,-0.149
1.273,-0.150
1.274,-0.150
1.275,-0.147
1.276,-0.148
1.277,-0.147
1.278,-0.150
1.279,-0.150
1.280,-0.156
1.281,-0.156
1.282,-0.159
1.283,-0.166
1.284,-0.173
1.285,-0.181
1.286,-0.189
1.287,-0.197
1.288,-0.192
1.289,-0.188
1.290,-0.178
1.291,-0.159
1.292,-0.141
1.293,-0.125
1.294,-0.094
1.295,-0.059
1.296,-0.023
1.297,0.016
1.298,0.070
1.299,0.125
1.300,0.186
1.301,0.253
1.302,0.333
1.303,0.419
1.304,0.511
1.305,0.603
1.306,0.702
1.307,0.800
1.308,0.897
1.309,1.003
1.310,1.106
1.311,1.209
1.312,1.299
1.313,1.375
1.314,1.439
1.315,1.494
1.316,1.530
1.317,1.550
1.318,1.530
1.319,1.466
1.320,1.372
1.321,1.269
1.322,1.149
1.323,1.019
1.324,0.883
1.325,0.737
1.326,0.581
1.327,0.428
1.328,0.286
1.329,0.150
1.330,0.045
1.331,-0.047
1.332,-0.100
1.333,-0.128
1.334,-0.141
1.335,-0.137
1.336,-0.139
1.337,-0.131
1.338,-0.129
1.339,-0.131
1.340,-0.134
1.341,-0.134
1.342,-0.137
1.343,-0.134
1.344,-0.128
1.345,-0.122
1.346,-0.114
1.347,-0.112
1.348,-0.106
1.349,-0.103
1.350,-0.100
1.351,-0.094
1.352,-0.094
1.353,-0.094
1.354,-0.098
1.355,-0.103
1.356,-0.106
1.357,-0.109
1.358,-0.116
1.359,-0.119
1.360,-0.123
1.361,-0.125
1.362,-0.126
1.363,-0.128
1.364,-0.128
1.365,-0.128
1.366,-0.130
1.367,-0.128
1.368,-0.129
1.369,-0.131
1.370,-0.128
1.371,-0.125
1.372,-0.128
1.373,-0.128
1.374,-0.131
1.375,-0.134
1.376,-0.133
1.377,-0.131
1.378,-0.134
1.379,-0.131
1.380,-0.127
1.381,-0.128
1.382,-0.128
1.383,-0.128
1.384,-0.129
1.385,-0.131
1.386,-0.130
1.387,-0.128
1.388,-0.127
1.389,-0.125
1.390,-0.123
1.391,-0.125
1.392,-0.125
1.393,-0.125
1.394,-0.125
1.395,-0.122
1.396,-0.122
1.397,-0.122
1.398,-0.123
1.399,-0.125
1.400,-0.126
1.401,-0.125
1.402,-0.125
1.403,-0.122
1.404,-0.122
1.405,-0.122
1.406,-0.119
1.407,-0.116
1.408,-0.114
1.409,-0.112
1.410,-0.109
1.411,-0.109
1.412,-0.107
1.413,-0.109
1.414,-0.111
1.415,-0.109
1.416,-0.109
1.417,-0.106
1.418,-0.105
1.419,-0.106
1.420,-0.103
1.421,-0.103
1.422,-0.100
1.423,-0.100
1.424,-0.096
1.425,-0.094
1.426,-0.097
1.427,-0.100
1.428,-0.101
1.429,-0.103
1.430,-0.100
1.431,-0.103
1.432,-0.102
1.433,-0.097
1.434,-0.096
1.435,-0.097
1.436,-0.094
1.437,-0.091
1.438,-0.094
1.439,-0.094
1.440,-0.095
1.441,-0.097
1.442,-0.097
1.443,-0.097
1.444,-0.095
1.445,-0.097
1.446,-0.096
1.447,-0.097
1.448,-0.097
1.449,-0.094
1.450,-0.094
1.451,-0.094
1.452,-0.095
1.453,-0.097
1.454,-0.097
1.455,-0.094
1.456,-0.094
1.457,-0.094
1.458,-0.092
1.459,-0.087
1.460,-0.091
1.461,-0.091
1.462,-0.089
1.463,-0.091
1.464,-0.091
1.465,-0.091
1.466,-0.087
1.467,-0.087
1.468,-0.083
1.469,-0.078
1.470,-0.075
1.471,-0.075
1.472,-0.076
1.473,-0.075
1.474,-0.072
1.475,-0.075
1.476,-0.074
1.477,-0.069
1.478,-0.070
1.479,-0.072
1.480,-0.070
1.481,-0.072
1.482,-0.069
1.483,-0.069
1.484,-0.064
1.485,-0.059
1.486,-0.055
1.487,-0.053
1.488,-0.053
1.489,-0.053
1.490,-0.053
1.491,-0.050
1.492,-0.046
1.493,-0.041
1.494,-0.037
1.495,-0.034
1.496,-0.036
1.497,-0.031
1.498,-0.025
1.499,-0.022
1.500,-0.020
1.501,-0.019
1.502,-0.017
1.503,-0.016
1.504,-0.017
1.505,-0.012
1.506,-0.014
1.507,-0.009
1.508,-0.005
1.509,0.000
1.510,0.004
1.511,0.009
1.512,0.008
1.513,0.006
1.514,0.009
1.515,0.009
1.516,0.012
1.517,0.012
1.518,0.017
1.519,0.022
1.520,0.026
1.521,0.031
1.522,0.033
1.523,0.037
1.524,0.037
1.525,0.041
1.526,0.044
1.527,0.044
1.528,0.044
1.529,0.047
1.530,0.047
1.531,0.047
1.532,0.046
1.533,0.047
1.534,0.049
1.535,0.047
1.536,0.053
1.537,0.056
1.538,0.056
1.539,0.059
1.540,0.055
1.541,0.053
1.542,0.052
1.543,0.053
1.544,0.054
1.545,0.056
1.546,0.061
1.547,0.059
1.548,0.061
1.549,0.063
1.550,0.064
1.551,0.066
1.552,0.064
1.553,0.066
1.554,0.063
1.555,0.063
1.556,0.061
1.557,0.063
1.558,0.064
1.559,0.066
1.560,0.070
1.561,0.075
1.562,0.075
1.563,0.072
1.564,0.072
1.565,0.072
1.566,0.074
1.567,0.072
1.568,0.072
1.569,0.075
1.570,0.078
1.571,0.075
1.572,0.074
1.573,0.072
1.574,0.076
1.575,0.081
1.576,0.081
1.577,0.081
1.578,0.083
1.579,0.088
1.580,0.088
1.581,0.088
1.582,0.086
1.583,0.091
1.584,0.092
1.585,0.094
1.586,0.096
1.587,0.094
1.588,0.095
1.589,0.097
1.590,0.097
1.591,0.097
1.592,0.098
1.593,0.100
1.594,0.100
1.595,0.100
1.596,0.096
1.597,0.088
1.598,0.089
1.599,0.091
1.600,0.094
1.601,0.094
1.602,0.097
1.603,0.094
1.604,0.095
1.605,0.094
1.606,0.095
1.607,0.094
1.608,0.094
1.609,0.094
1.610,0.089
1.611,0.088
1.612,0.088
1.613,0.084
1.614,0.081
1.615,0.078
1.616,0.074
1.617,0.069
1.618,0.063
1.619,0.059
1.620,0.054
1.621,0.053
1.622,0.053
1.623,0.053
1.624,0.049
1.625,0.044
1.626,0.036
1.627,0.034
1.628,0.032
1.629,0.031
1.630,0.031
1.631,0.031
1.632,0.029
1.633,0.028
1.634,0.027
1.635,0.019
1.636,0.017
1.637,0.016
1.638,0.011
1.639,0.009
1.640,0.007
1.641,0.003
1.642,0.002
1.643,-0.003
1.644,-0.007
1.645,-0.012
1.646,-0.012
1.647,-0.012
1.648,-0.012
1.649,-0.012
1.650,-0.016
1.651,-0.016
1.652,-0.019
1.653,-0.025
1.654,-0.025
1.655,-0.028
1.656,-0.027
1.657,-0.025
1.658,-0.028
1.659,-0.028
1.660,-0.029
1.661,-0.034
1.662,-0.034
1.663,-0.037
1.664,-0.041
1.665,-0.041
1.666,-0.039
1.667,-0.037
1.668,-0.041
1.669,-0.041
1.670,-0.044
1.671,-0.044
1.672,-0.046
1.673,-0.041
1.674,-0.044
1.675,-0.044
1.676,-0.045
1.677,-0.047
1.678,-0.049
1.679,-0.047
1.680,-0.047
1.681,-0.047
1.682,-0.047
1.683,-0.050
1.684,-0.050
1.685,-0.050
1.686,-0.051
1.687,-0.053
1.688,-0.054
1.689,-0.056
1.690,-0.062
1.691,-0.066
1.692,-0.062
1.693,-0.062
1.694,-0.061
1.695,-0.059
1.696,-0.062
1.697,-0.066
1.698,-0.066
1.699,-0.069
1.700,-0.066
1.701,-0.069
1.702,-0.069
1.703,-0.069
1.704,-0.069
1.705,-0.072
1.706,-0.073
1.707,-0.075
1.708,-0.075
1.709,-0.075
1.710,-0.074
1.711,-0.075
1.712,-0.074
1.713,-0.075
1.714,-0.075
1.715,-0.072
1.716,-0.072
1.717,-0.075
1.718,-0.078
1.719,-0.078
1.720,-0.078
1.721,-0.075
1.722,-0.079
1.723,-0.081
1.724,-0.081
1.725,-0.084
1.726,-0.084
1.727,-0.084
1.728,-0.083
1.729,-0.084
1.730,-0.086
1.731,-0.091
1.732,-0.091
1.733,-0.091
1.734,-0.094
1.735,-0.097
1.736,-0.096
1.737,-0.094
1.738,-0.097
1.739,-0.097
1.740,-0.096
1.741,-0.094
1.742,-0.095
1.743,-0.097
1.744,-0.094
1.745,-0.100
1.746,-0.100
1.747,-0.100
1.748,-0.101
1.749,-0.103
1.750,-0.102
1.751,-0.103
1.752,-0.105
1.753,-0.103
1.754,-0.104
1.755,-0.103
1.756,-0.107
1.757,-0.109
1.758,-0.112
1.759,-0.112
1.760,-0.111
1.761,-0.112
1.762,-0.111
1.763,-0.109
1.764,-0.108
1.765,-0.106
1.766,-0.111
1.767,-0.109
1.768,-0.106
1.769,-0.106
1.770,-0.109
1.771,-0.106
1.772,-0.109
1.773,-0.109
1.774,-0.109
1.775,-0.109
1.776,-0.108
1.777,-0.109
1.778,-0.109
1.779,-0.109
1.780,-0.108
1.781,-0.106
1.782,-0.112
1.783,-0.116
1.784,-0.112
1.785,-0.112
1.786,-0.116
1.787,-0.116
1.788,-0.116
1.789,-0.119
1.790,-0.119
1.791,-0.119
1.792,-0.116
1.793,-0.112
1.794,-0.114
1.795,-0.116
1.796,-0.116
1.797,-0.119
1.798,-0.117
1.799,-0.119
1.800,-0.117
1.801,-0.116
1.802,-0.117
1.803,-0.112
1.804,-0.106
1.805,-0.100
1.806,-0.094
1.807,-0.084
1.808,-0.077
1.809,-0.066
1.810,-0.055
1.811,-0.044
1.812,-0.031
1.813,-0.019
1.814,-0.012
1.815,-0.009
1.816,-0.003
1.817,0.000
1.818,0.004
1.819,0.012
1.820,0.017
1.821,0.019
1.822,0.014
1.823,0.016
1.824,0.012
1.825,0.012
1.826,0.019
1.827,0.022
1.828,0.027
1.829,0.028
1.830,0.034
1.831,0.037
1.832,0.044
1.833,0.053
1.834,0.059
1.835,0.069
1.836,0.077
1.837,0.084
1.838,0.094
1.839,0.100
1.840,0.113
1.841,0.122
1.842,0.126
1.843,0.128
1.844,0.125
1.845,0.125
1.846,0.121
1.847,0.119
1.848,0.118
1.849,0.119
1.850,0.120
1.851,0.122
1.852,0.119
1.853,0.116
1.854,0.113
1.855,0.109
1.856,0.101
1.857,0.097
1.858,0.089
1.859,0.084
1.860,0.083
1.861,0.081
1.862,0.074
1.863,0.066
1.864,0.064
1.865,0.056
1.866,0.046
1.867,0.034
1.868,0.022
1.869,0.006
1.870,-0.003
1.871,-0.016
1.872,-0.022
1.873,-0.028
1.874,-0.033
1.875,-0.031
1.876,-0.037
1.877,-0.047
1.878,-0.061
1.879,-0.072
1.880,-0.080
1.881,-0.084
1.882,-0.095
1.883,-0.103
1.884,-0.108
1.885,-0.112
1.886,-0.119
1.887,-0.122
1.888,-0.125
1.889,-0.131
1.890,-0.131
1.891,-0.131
1.892,-0.134
1.893,-0.137
1.894,-0.142
1.895,-0.150
1.896,-0.156
1.897,-0.159
1.898,-0.161
1.899,-0.166
1.900,-0.166
1.901,-0.166
1.902,-0.166
1.903,-0.166
1.904,-0.164
1.905,-0.162
1.906,-0.162
1.907,-0.162
1.908,-0.162
1.909,-0.166
1.910,-0.166
1.911,-0.169
1.912,-0.173
1.913,-0.175
1.914,-0.176
1.915,-0.175
1.916,-0.175
1.917,-0.178
1.918,-0.176
1.919,-0.178
1.920,-0.178
1.921,-0.178
1.922,-0.178
1.923,-0.181
1.924,-0.178
1.925,-0.175
1.926,-0.169
1.927,-0.169
1.928,-0.167
1.929,-0.169
1.930,-0.170
1.931,-0.169
1.932,-0.170
1.933,-0.172
1.934,-0.169
1.935,-0.166
1.936,-0.166
1.937,-0.162
1.938,-0.166
1.939,-0.162
1.940,-0.166
1.941,-0.166
1.942,-0.162
1.943,-0.162
1.944,-0.158
1.945,-0.159
1.946,-0.158
1.947,-0.162
1.948,-0.161
1.949,-0.166
1.950,-0.178
1.951,-0.188
1.952,-0.195
1.953,-0.200
1.954,-0.204
1.955,-0.200
1.956,-0.191
1.957,-0.178
1.958,-0.166
1.959,-0.156
1.960,-0.142
1.961,-0.116
1.962,-0.087
1.963,-0.050
1.964,-0.005
1.965,0.044
1.966,0.091
1.967,0.147
1.968,0.209
1.969,0.284
1.970,0.367
1.971,0.463
1.972,0.554
1.973,0.659
1.974,0.764
1.975,0.866
1.976,0.972
1.977,1.072
1.978,1.171
1.979,1.259
1.980,1.334
1.981,1.394
1.982,1.454
1.983,1.506
1.984,1.542
1.985,1.534
1.986,1.477
1.987,1.394
1.988,1.299
1.989,1.181
1.990,1.061
1.991,0.928
1.992,0.778
1.993,0.619
1.994,0.468
1.995,0.328
1.996,0.194
1.997,0.069
1.998,-0.036
1.999,-0.097
2.000,-0.130
2.001,-0.141
2.002,-0.145
2.003,-0.144
2.004,-0.132
2.005,-0.131
2.006,-0.132
2.007,-0.134
2.008,-0.132
2.009,-0.134
2.010,-0.125
2.011,-0.119
2.012,-0.120
2.013,-0.119
2.014,-0.123
2.015,-0.122
2.016,-0.116
2.017,-0.112
2.018,-0.109
2.019,-0.109
2.020,-0.108
2.021,-0.109
2.022,-0.112
2.023,-0.112
2.024,-0.111
2.025,-0.116
2.026,-0.119
2.027,-0.122
2.028,-0.122
2.029,-0.122
2.030,-0.123
2.031,-0.125
2.032,-0.124
2.033,-0.125
2.034,-0.125
2.035,-0.125
2.036,-0.125
2.037,-0.125
2.038,-0.128
2.039,-0.131
2.040,-0.128
2.041,-0.128
2.042,-0.127
2.043,-0.125
2.044,-0.124
2.045,-0.125
2.046,-0.126
2.047,-0.128
2.048,-0.131
2.049,-0.131
2.050,-0.132
2.051,-0.134
2.052,-0.134
2.053,-0.134
2.054,-0.131
2.055,-0.128
2.056,-0.128
2.057,-0.125
2.058,-0.126
2.059,-0.128
2.060,-0.129
2.061,-0.131
2.062,-0.128
2.063,-0.128
2.064,-0.125
2.065,-0.122
2.066,-0.123
2.067,-0.125
2.068,-0.123
2.069,-0.125
2.070,-0.122
2.071,-0.122
2.072,-0.117
2.073,-0.112
2.074,-0.109
2.075,-0.106
2.076,-0.107
2.077,-0.106
2.078,-0.109
2.079,-0.109
2.080,-0.109
2.081,-0.109
2.082,-0.106
2.083,-0.106
2.084,-0.103
2.085,-0.103
2.086,-0.107
2.087,-0.106
2.088,-0.109
2.089,-0.109
2.090,-0.108
2.091,-0.103
2.092,-0.100
2.093,-0.097
2.094,-0.097
2.095,-0.097
2.096,-0.098
2.097,-0.097
2.098,-0.099
2.099,-0.097
2.100,-0.094
2.101,-0.094
2.102,-0.096
2.103,-0.091
2.104,-0.087
2.105,-0.091
2.106,-0.092
2.107,-0.094
2.108,-0.095
2.109,-0.097
2.110,-0.098
2.111,-0.097
2.112,-0.092
2.113,-0.087
2.114,-0.091
2.115,-0.091
2.116,-0.087
2.117,-0.087
2.118,-0.087
2.119,-0.087
2.120,-0.089
2.121,-0.091
2.122,-0.087
2.123,-0.087
2.124,-0.086
2.125,-0.084
2.126,-0.081
2.127,-0.084
2.128,-0.086
2.129,-0.084
2.130,-0.084
2.131,-0.084
2.132,-0.084
2.133,-0.081
2.134,-0.080
2.135,-0.078
2.136,-0.079
2.137,-0.078
2.138,-0.078
2.139,-0.078
2.140,-0.072
2.141,-0.062
2.142,-0.062
2.143,-0.062
2.144,-0.061
2.145,-0.062
2.146,-0.064
2.147,-0.062
2.148,-0.064
2.149,-0.062
2.150,-0.059
2.151,-0.053
2.152,-0.053
2.153,-0.053
2.154,-0.056
2.155,-0.056
2.156,-0.050
2.157,-0.047
2.158,-0.042
2.159,-0.037
2.160,-0.037
2.161,-0.037
2.162,-0.034
2.163,-0.034
2.164,-0.025
2.165,-0.019
2.166,-0.019
2.167,-0.016
2.168,-0.016
2.169,-0.016
2.170,-0.012
2.171,-0.012
2.172,-0.005
2.173,-0.003
2.174,0.003
2.175,0.006
2.176,0.011
2.177,0.016
2.178,0.019
2.179,0.019
2.180,0.017
2.181,0.022
2.182,0.026
2.183,0.031
2.184,0.032
2.185,0.037
2.186,0.039
2.187,0.037
2.188,0.037
2.189,0.041
2.190,0.050
2.191,0.053
2.192,0.055
2.193,0.056
2.194,0.056
2.195,0.056
2.196,0.059
2.197,0.059
2.198,0.058
2.199,0.056
2.200,0.058
2.201,0.059
2.202,0.061
2.203,0.066
2.204,0.066
2.205,0.066
2.206,0.069
2.207,0.066
2.208,0.069
2.209,0.072
2.210,0.078
2.211,0.081
2.212,0.080
2.213,0.081
2.214,0.077
2.215,0.078
2.216,0.083
2.217,0.084
2.218,0.084
2.219,0.084
2.220,0.088
2.221,0.084
2.222,0.084
2.223,0.084
2.224,0.088
2.225,0.088
2.226,0.088
2.227,0.088
2.228,0.086
2.229,0.088
2.230,0.088
2.231,0.088
2.232,0.089
2.233,0.094
2.234,0.097
2.235,0.100
2.236,0.102
2.237,0.103
2.238,0.100
2.239,0.100
2.240,0.096
2.241,0.094
2.242,0.098
2.243,0.100
2.244,0.101
2.245,0.103
2.246,0.105
2.247,0.103
2.248,0.102
2.249,0.100
2.250,0.113
2.251,0.119
2.252,0.118
2.253,0.119
2.254,0.119
2.255,0.119
2.256,0.119
2.257,0.119
2.258,0.119
2.259,0.119
2.260,0.119
2.261,0.119
2.262,0.122
2.263,0.125
2.264,0.122
2.265,0.122
2.266,0.119
2.267,0.116
2.268,0.111
2.269,0.113
2.270,0.113
2.271,0.116
2.272,0.114
2.273,0.116
2.274,0.109
2.275,0.106
2.276,0.106
2.277,0.100
2.278,0.098
2.279,0.100
2.280,0.098
2.281,0.097
2.282,0.094
2.283,0.091
2.284,0.089
2.285,0.088
2.286,0.089
2.287,0.084
2.288,0.084
2.289,0.084
2.290,0.080
2.291,0.075
2.292,0.073
2.293,0.069
2.294,0.069
2.295,0.066
2.296,0.061
2.297,0.056
2.298,0.054
2.299,0.053
2.300,0.047
2.301,0.047
2.302,0.041
2.303,0.034
2.304,0.030
2.305,0.025
2.306,0.026
2.307,0.025
2.308,0.020
2.309,0.022
2.310,0.019
2.311,0.016
2.312,0.012
2.313,0.012
2.314,0.012
2.315,0.009
2.316,0.007
2.317,0.006
2.318,0.005
2.319,0.003
2.320,0.001
2.321,0.003
2.322,-0.003
2.323,-0.006
2.324,-0.006
2.325,-0.009
2.326,-0.011
2.327,-0.012
2.328,-0.017
2.329,-0.016
2.330,-0.012
2.331,-0.016
2.332,-0.025
2.333,-0.031
2.334,-0.027
2.335,-0.025
2.336,-0.025
2.337,-0.028
2.338,-0.028
2.339,-0.031
2.340,-0.028
2.341,-0.031
2.342,-0.032
2.343,-0.034
2.344,-0.034
2.345,-0.037
2.346,-0.037
2.347,-0.037
2.348,-0.039
2.349,-0.041
2.350,-0.045
2.351,-0.047
2.352,-0.047
2.353,-0.047
2.354,-0.048
2.355,-0.050
2.356,-0.047
2.357,-0.047
2.358,-0.047
2.359,-0.047
2.360,-0.050
2.361,-0.050
2.362,-0.050
2.363,-0.050
2.364,-0.050
2.365,-0.050
2.366,-0.053
2.367,-0.050
2.368,-0.053
2.369,-0.053
2.370,-0.052
2.371,-0.050
2.372,-0.052
2.373,-0.050
2.374,-0.051
2.375,-0.053
2.376,-0.057
2.377,-0.062
2.378,-0.064
2.379,-0.062
2.380,-0.064
2.381,-0.062
2.382,-0.061
2.383,-0.062
2.384,-0.066
2.385,-0.069
2.386,-0.070
2.387,-0.072
2.388,-0.067
2.389,-0.069
2.390,-0.069
2.391,-0.069
2.392,-0.072
2.393,-0.072
2.394,-0.072
2.395,-0.072
2.396,-0.074
2.397,-0.072
2.398,-0.078
2.399,-0.081
2.400,-0.081
2.401,-0.081
2.402,-0.081
2.403,-0.081
2.404,-0.082
2.405,-0.084
2.406,-0.084
2.407,-0.084
2.408,-0.083
2.409,-0.081
2.410,-0.083
2.411,-0.084
2.412,-0.086
2.413,-0.087
2.414,-0.084
2.415,-0.087
2.416,-0.086
2.417,-0.087
2.418,-0.089
2.419,-0.091
2.420,-0.094
2.421,-0.094
2.422,-0.094
2.423,-0.094
2.424,-0.094
2.425,-0.097
2.426,-0.089
2.427,-0.084
2.428,-0.087
2.429,-0.091
2.430,-0.086
2.431,-0.087
2.432,-0.089
2.433,-0.091
2.434,-0.091
2.435,-0.091
2.436,-0.097
2.437,-0.100
2.438,-0.101
2.439,-0.103
2.440,-0.103
2.441,-0.106
2.442,-0.105
2.443,-0.103
2.444,-0.106
2.445,-0.106
2.446,-0.103
2.447,-0.103
2.448,-0.106
2.449,-0.106
2.450,-0.103
2.451,-0.100
2.452,-0.100
2.453,-0.100
2.454,-0.101
2.455,-0.103
2.456,-0.106
2.457,-0.103
2.458,-0.102
2.459,-0.097
2.460,-0.095
2.461,-0.097
2.462,-0.091
2.463,-0.084
2.464,-0.078
2.465,-0.072
2.466,-0.062
2.467,-0.056
2.468,-0.047
2.469,-0.037
2.470,-0.025
2.471,-0.012
2.472,-0.002
2.473,0.006
2.474,0.012
2.475,0.022
2.476,0.022
2.477,0.022
2.478,0.032
2.479,0.037
2.480,0.037
2.481,0.034
2.482,0.033
2.483,0.031
2.484,0.030
2.485,0.031
2.486,0.036
2.487,0.044
2.488,0.047
2.489,0.053
2.490,0.056
2.491,0.063
2.492,0.072
2.493,0.078
2.494,0.086
2.495,0.094
2.496,0.103
2.497,0.113
2.498,0.123
2.499,0.134
2.500,0.138
2.501,0.141
2.502,0.141
2.503,0.138
2.504,0.134
2.505,0.128
2.506,0.127
2.507,0.125
2.508,0.131
2.509,0.134
2.510,0.134
2.511,0.131
2.512,0.129
2.513,0.125
2.514,0.119
2.515,0.109
2.516,0.104
2.517,0.100
2.518,0.094
2.519,0.088
2.520,0.083
2.521,0.078
2.522,0.075
2.523,0.072
2.524,0.069
2.525,0.066
2.526,0.055
2.527,0.041
2.528,0.022
2.529,0.009
2.530,-0.003
2.531,-0.009
2.532,-0.016
2.533,-0.025
2.534,-0.024
2.535,-0.028
2.536,-0.042
2.537,-0.053
2.538,-0.059
2.539,-0.069
2.540,-0.075
2.541,-0.081
2.542,-0.084
2.543,-0.091
2.544,-0.097
2.545,-0.103
2.546,-0.111
2.547,-0.122
2.548,-0.131
2.549,-0.134
2.550,-0.137
2.551,-0.141
2.552,-0.142
2.553,-0.144
2.554,-0.149
2.555,-0.150
2.556,-0.149
2.557,-0.147
2.558,-0.153
2.559,-0.156
2.560,-0.159
2.561,-0.162
2.562,-0.162
2.563,-0.162
2.564,-0.162
2.565,-0.162
2.566,-0.162
2.567,-0.162
2.568,-0.166
2.569,-0.166
2.570,-0.166
2.571,-0.166
2.572,-0.167
2.573,-0.169
2.574,-0.166
2.575,-0.166
2.576,-0.170
2.577,-0.169
2.578,-0.169
2.579,-0.169
2.580,-0.166
2.581,-0.162
2.582,-0.164
2.583,-0.162
2.584,-0.167
2.585,-0.169
2.586,-0.172
2.587,-0.169
2.588,-0.169
2.589,-0.169
2.590,-0.164
2.591,-0.162
2.592,-0.162
2.593,-0.162
2.594,-0.162
2.595,-0.162
2.596,-0.158
2.597,-0.159
2.598,-0.155
2.599,-0.156
2.600,-0.159
2.601,-0.159
2.602,-0.159
2.603,-0.156
2.604,-0.158
2.605,-0.156
2.606,-0.161
2.607,-0.159
2.608,-0.170
2.609,-0.184
2.610,-0.191
2.611,-0.197
2.612,-0.201
2.613,-0.206
2.614,-0.200
2.615,-0.194
2.616,-0.183
2.617,-0.162
2.618,-0.147
2.619,-0.134
2.620,-0.105
2.621,-0.072
2.622,-0.037
2.623,0.000
2.624,0.047
2.625,0.094
2.626,0.151
2.627,0.216
2.628,0.294
2.629,0.378
2.630,0.470
2.631,0.563
2.632,0.664
2.633,0.766
2.634,0.859
2.635,0.962
2.636,1.059
2.637,1.156
2.638,1.251
2.639,1.334
2.640,1.396
2.641,1.447
2.642,1.495
2.643,1.528
2.644,1.519
2.645,1.466
2.646,1.374
2.647,1.272
2.648,1.156
2.649,1.031
2.650,0.896
2.651,0.750
2.652,0.593
2.653,0.438
2.654,0.299
2.655,0.166
2.656,0.053
2.657,-0.047
2.658,-0.106
2.659,-0.141
2.660,-0.155
2.661,-0.153
2.662,-0.153
2.663,-0.144
2.664,-0.141
2.665,-0.141
2.666,-0.141
2.667,-0.137
2.668,-0.141
2.669,-0.137
2.670,-0.133
2.671,-0.128
2.672,-0.117
2.673,-0.112
2.674,-0.107
2.675,-0.106
2.676,-0.107
2.677,-0.106
2.678,-0.106
2.679,-0.106
2.680,-0.108
2.681,-0.109
2.682,-0.108
2.683,-0.106
2.684,-0.114
2.685,-0.119
2.686,-0.122
2.687,-0.122
2.688,-0.122
2.689,-0.122
2.690,-0.125
2.691,-0.128
2.692,-0.131
2.693,-0.131
2.694,-0.130
2.695,-0.128
2.696,-0.128
2.697,-0.128
2.698,-0.128
2.699,-0.125
2.700,-0.122
2.701,-0.119
2.702,-0.120
2.703,-0.122
2.704,-0.126
2.705,-0.125
2.706,-0.121
2.707,-0.122
2.708,-0.123
2.709,-0.125
2.710,-0.124
2.711,-0.122
2.712,-0.122
2.713,-0.122
2.714,-0.123
2.715,-0.125
2.716,-0.123
2.717,-0.125
2.718,-0.125
2.719,-0.125
2.720,-0.124
2.721,-0.119
2.722,-0.117
2.723,-0.116
2.724,-0.116
2.725,-0.116
2.726,-0.116
2.727,-0.112
2.728,-0.114
2.729,-0.112
2.730,-0.112
2.731,-0.112
2.732,-0.112
2.733,-0.112
2.734,-0.112
2.735,-0.112
2.736,-0.109
2.737,-0.109
2.738,-0.107
2.739,-0.109
2.740,-0.111
2.741,-0.109
2.742,-0.106
2.743,-0.100
2.744,-0.097
2.745,-0.097
2.746,-0.095
2.747,-0.097
2.748,-0.095
2.749,-0.097
2.750,-0.094
2.751,-0.094
2.752,-0.095
2.753,-0.097
2.754,-0.097
2.755,-0.097
2.756,-0.092
2.757,-0.094
2.758,-0.095
2.759,-0.094
2.760,-0.091
2.761,-0.091
2.762,-0.089
2.763,-0.087
2.764,-0.087
2.765,-0.084
2.766,-0.086
2.767,-0.087
2.768,-0.089
2.769,-0.091
2.770,-0.087
2.771,-0.087
2.772,-0.086
2.773,-0.087
2.774,-0.089
2.775,-0.087
2.776,-0.087
2.777,-0.087
2.778,-0.087
2.779,-0.087
2.780,-0.087
2.781,-0.084
2.782,-0.080
2.783,-0.075
2.784,-0.076
2.785,-0.075
2.786,-0.078
2.787,-0.078
2.788,-0.076
2.789,-0.078
2.790,-0.078
2.791,-0.078
2.792,-0.075
2.793,-0.075
2.794,-0.075
2.795,-0.075
2.796,-0.073
2.797,-0.075
2.798,-0.075
2.799,-0.072
2.800,-0.066
2.801,-0.066
2.802,-0.067
2.803,-0.066
2.804,-0.062
2.805,-0.059
2.806,-0.053
2.807,-0.050
2.808,-0.046
2.809,-0.044
2.810,-0.044
2.811,-0.044
2.812,-0.044
2.813,-0.047
2.814,-0.045
2.815,-0.044
2.816,-0.042
2.817,-0.037
2.818,-0.036
2.819,-0.034
2.820,-0.025
2.821,-0.016
2.822,-0.017
2.823,-0.012
2.824,-0.011
2.825,-0.012
2.826,-0.006
2.827,0.000
2.828,0.003
2.829,0.006
2.830,0.006
2.831,0.012
2.832,0.009
2.833,0.012
2.834,0.016
2.835,0.019
2.836,0.021
2.837,0.022
2.838,0.022
2.839,0.022
2.840,0.027
2.841,0.028
2.842,0.031
2.843,0.031
2.844,0.036
2.845,0.041
2.846,0.041
2.847,0.041
2.848,0.041
2.849,0.044
2.850,0.047
2.851,0.053
2.852,0.059
2.853,0.063
2.854,0.064
2.855,0.069
2.856,0.069
2.857,0.069
2.858,0.066
2.859,0.066
2.860,0.070
2.861,0.072
2.862,0.078
2.863,0.081
2.864,0.081
2.865,0.084
2.866,0.078
2.867,0.075
2.868,0.072
2.869,0.072
2.870,0.073
2.871,0.075
2.872,0.078
2.873,0.075
2.874,0.078
2.875,0.081
2.876,0.081
2.877,0.081
2.878,0.081
2.879,0.084
2.880,0.083
2.881,0.084
2.882,0.083
2.883,0.084
2.884,0.088
2.885,0.091
2.886,0.089
2.887,0.088
2.888,0.091
2.889,0.091
2.890,0.094
2.891,0.097
2.892,0.099
2.893,0.097
2.894,0.096
2.895,0.097
2.896,0.100
2.897,0.097
2.898,0.097
2.899,0.097
2.900,0.099
2.901,0.100
2.902,0.100
2.903,0.100
2.904,0.101
2.905,0.106
2.906,0.106
2.907,0.106
2.908,0.109
2.909,0.119
2.910,0.118
2.911,0.116
2.912,0.118
2.913,0.116
2.914,0.117
2.915,0.119
2.916,0.125
2.917,0.131
2.918,0.133
2.919,0.134
2.920,0.133
2.921,0.131
2.922,0.128
2.923,0.122
2.924,0.122
2.925,0.122
2.926,0.123
2.927,0.122
2.928,0.125
2.929,0.122
2.930,0.122
2.931,0.119
2.932,0.120
2.933,0.119
2.934,0.116
2.935,0.113
2.936,0.108
2.937,0.106
2.938,0.105
2.939,0.100
2.940,0.094
2.941,0.088
2.942,0.086
2.943,0.084
2.944,0.084
2.945,0.088
2.946,0.081
2.947,0.078
2.948,0.072
2.949,0.066
2.950,0.066
2.951,0.066
2.952,0.061
2.953,0.063
2.954,0.058
2.955,0.053
2.956,0.053
2.957,0.053
2.958,0.049
2.959,0.044
2.960,0.047
2.961,0.044
2.962,0.039
2.963,0.034
2.964,0.030
2.965,0.028
2.966,0.025
2.967,0.019
2.968,0.017
2.969,0.012
2.970,0.009
2.971,0.006
2.972,0.002
2.973,-0.003
2.974,-0.003
2.975,-0.003
2.976,-0.006
2.977,-0.006
2.978,-0.006
2.979,-0.009
2.980,-0.009
2.981,-0.012
2.982,-0.014
2.983,-0.016
2.984,-0.019
2.985,-0.019
2.986,-0.017
2.987,-0.019
2.988,-0.019
2.989,-0.022
2.990,-0.025
2.991,-0.025
2.992,-0.025
2.993,-0.025
2.994,-0.028
2.995,-0.028
2.996,-0.030
2.997,-0.028
2.998,-0.031
2.999,-0.028
3.000,-0.031
3.001,-0.031
3.002,-0.032
3.003,-0.034
3.004,-0.037
3.005,-0.037
3.006,-0.037
3.007,-0.037
3.008,-0.036
3.009,-0.037
3.010,-0.036
3.011,-0.034
3.012,-0.037
3.013,-0.041
3.014,-0.041
3.015,-0.041
3.016,-0.044
3.017,-0.044
3.018,-0.042
3.019,-0.044
3.020,-0.047
3.021,-0.050
3.022,-0.050
3.023,-0.050
3.024,-0.050
3.025,-0.053
3.026,-0.053
3.027,-0.059
3.028,-0.059
3.029,-0.059
3.030,-0.052
3.031,-0.047
3.032,-0.047
3.033,-0.047
3.034,-0.051
3.035,-0.056
3.036,-0.057
3.037,-0.062
3.038,-0.061
3.039,-0.062
3.040,-0.066
3.041,-0.066
3.042,-0.064
3.043,-0.066
3.044,-0.069
3.045,-0.069
3.046,-0.069
3.047,-0.066
3.048,-0.069
3.049,-0.069
3.050,-0.069
3.051,-0.072
3.052,-0.072
3.053,-0.072
3.054,-0.071
3.055,-0.072
3.056,-0.072
3.057,-0.075
3.058,-0.075
3.059,-0.075
3.060,-0.075
3.061,-0.075
3.062,-0.075
3.063,-0.075
3.064,-0.076
3.065,-0.078
3.066,-0.079
3.067,-0.081
3.068,-0.084
3.069,-0.087
3.070,-0.089
3.071,-0.091
3.072,-0.087
3.073,-0.091
3.074,-0.089
3.075,-0.091
3.076,-0.092
3.077,-0.094
3.078,-0.096
3.079,-0.094
3.080,-0.094
3.081,-0.094
3.082,-0.092
3.083,-0.094
3.084,-0.091
3.085,-0.091
3.086,-0.091
3.087,-0.091
3.088,-0.087
3.089,-0.091
3.090,-0.091
3.091,-0.091
3.092,-0.092
3.093,-0.094
3.094,-0.096
3.095,-0.094
3.096,-0.098
3.097,-0.103
3.098,-0.102
3.099,-0.103
3.100,-0.102
3.101,-0.100
3.102,-0.100
3.103,-0.097
3.104,-0.097
3.105,-0.100
3.106,-0.103
3.107,-0.103
3.108,-0.103
3.109,-0.103
3.110,-0.102
3.111,-0.100
3.112,-0.097
3.113,-0.094
3.114,-0.097
3.115,-0.094
3.116,-0.097
3.117,-0.097
3.118,-0.094
3.119,-0.094
3.120,-0.086
3.121,-0.078
3.122,-0.066
3.123,-0.053
3.124,-0.050
3.125,-0.050
3.126,-0.039
3.127,-0.028
3.128,-0.020
3.129,-0.012
3.130,-0.002
3.131,0.006
3.132,0.014
3.133,0.025
3.134,0.027
3.135,0.028
3.136,0.034
3.137,0.034
3.138,0.034
3.139,0.031
3.140,0.030
3.141,0.028
3.142,0.030
3.143,0.034
3.144,0.037
3.145,0.044
3.146,0.050
3.147,0.059
3.148,0.059
3.149,0.063
3.150,0.072
3.151,0.078
3.152,0.091
3.153,0.103
3.154,0.111
3.155,0.119
3.156,0.126
3.157,0.134
3.158,0.136
3.159,0.138
3.160,0.136
3.161,0.131
3.162,0.131
3.163,0.128
3.164,0.129
3.165,0.131
3.166,0.134
3.167,0.134
3.168,0.136
3.169,0.134
3.170,0.130
3.171,0.122
3.172,0.117
3.173,0.109
3.174,0.104
3.175,0.100
3.176,0.096
3.177,0.091
3.178,0.086
3.179,0.081
3.180,0.078
3.181,0.075
3.182,0.064
3.183,0.053
3.184,0.044
3.185,0.031
3.186,0.019
3.187,0.012
3.188,0.003
3.189,0.000
3.190,-0.006
3.191,-0.016
3.192,-0.022
3.193,-0.034
3.194,-0.050
3.195,-0.062
3.196,-0.067
3.197,-0.075
3.198,-0.081
3.199,-0.087
3.200,-0.089
3.201,-0.094
3.202,-0.101
3.203,-0.109
3.204,-0.112
3.205,-0.119
3.206,-0.128
3.207,-0.131
3.208,-0.136
3.209,-0.141
3.210,-0.142
3.211,-0.144
3.212,-0.151
3.213,-0.156
3.214,-0.156
3.215,-0.156
3.216,-0.161
3.217,-0.162
3.218,-0.162
3.219,-0.162
3.220,-0.161
3.221,-0.159
3.222,-0.155
3.223,-0.150
3.224,-0.150
3.225,-0.150
3.226,-0.154
3.227,-0.156
3.228,-0.156
3.229,-0.156
3.230,-0.161
3.231,-0.166
3.232,-0.162
3.233,-0.162
3.234,-0.162
3.235,-0.156
3.236,-0.156
3.237,-0.156
3.238,-0.156
3.239,-0.156
3.240,-0.161
3.241,-0.162
3.242,-0.164
3.243,-0.162
3.244,-0.166
3.245,-0.162
3.246,-0.164
3.247,-0.166
3.248,-0.162
3.249,-0.162
3.250,-0.164
3.251,-0.166
3.252,-0.166
3.253,-0.166
3.254,-0.159
3.255,-0.159
3.256,-0.155
3.257,-0.156
3.258,-0.157
3.259,-0.156
3.260,-0.157
3.261,-0.156
3.262,-0.159
3.263,-0.159
3.264,-0.167
3.265,-0.169
3.266,-0.174
3.267,-0.181
3.268,-0.188
3.269,-0.194
3.270,-0.196
3.271,-0.197
3.272,-0.188
3.273,-0.178
3.274,-0.173
3.275,-0.159
3.276,-0.139
3.277,-0.122
3.278,-0.092
3.279,-0.059
3.280,-0.021
3.281,0.022
3.282,0.073
3.283,0.125
3.284,0.181
3.285,0.244
3.286,0.325
3.287,0.413
3.288,0.506
3.289,0.600
3.290,0.697
3.291,0.794
3.292,0.891
3.293,0.997
3.294,1.094
3.295,1.191
3.296,1.271
3.297,1.338
3.298,1.399
3.299,1.450
3.300,1.477
3.301,1.488
3.302,1.459
3.303,1.388
3.304,1.289
3.305,1.181
3.306,1.063
3.307,0.934
3.308,0.791
3.309,0.638
3.310,0.492
3.311,0.350
3.312,0.216
3.313,0.088
3.314,-0.006
3.315,-0.087
3.316,-0.133
3.317,-0.153
3.318,-0.162
3.319,-0.156
3.320,-0.156
3.321,-0.147
3.322,-0.145
3.323,-0.147
3.324,-0.146
3.325,-0.141
3.326,-0.141
3.327,-0.134
3.328,-0.134
3.329,-0.134
3.330,-0.124
3.331,-0.119
3.332,-0.117
3.333,-0.119
3.334,-0.119
3.335,-0.116
3.336,-0.114
3.337,-0.112
3.338,-0.116
3.339,-0.119
3.340,-0.119
3.341,-0.119
3.342,-0.121
3.343,-0.119
3.344,-0.122
3.345,-0.122
3.346,-0.123
3.347,-0.125
3.348,-0.125
3.349,-0.125
3.350,-0.128
3.351,-0.128
3.352,-0.128
3.353,-0.128
3.354,-0.128
3.355,-0.128
3.356,-0.132
3.357,-0.134
3.358,-0.131
3.359,-0.128
3.360,-0.127
3.361,-0.125
3.362,-0.129
3.363,-0.128
3.364,-0.125
3.365,-0.128
3.366,-0.129
3.367,-0.131
3.368,-0.131
3.369,-0.131
3.370,-0.131
3.371,-0.131
3.372,-0.130
3.373,-0.128
3.374,-0.126
3.375,-0.128
3.376,-0.129
3.377,-0.131
3.378,-0.128
3.379,-0.122
3.380,-0.122
3.381,-0.122
3.382,-0.121
3.383,-0.119
3.384,-0.119
3.385,-0.116
3.386,-0.117
3.387,-0.116
3.388,-0.116
3.389,-0.116
3.390,-0.111
3.391,-0.106
3.392,-0.106
3.393,-0.106
3.394,-0.104
3.395,-0.106
3.396,-0.104
3.397,-0.106
3.398,-0.107
3.399,-0.106
3.400,-0.107
3.401,-0.106
3.402,-0.105
3.403,-0.106
3.404,-0.102
3.405,-0.100
3.406,-0.096
3.407,-0.094
3.408,-0.091
3.409,-0.091
3.410,-0.092
3.411,-0.094
3.412,-0.095
3.413,-0.097
3.414,-0.092
3.415,-0.094
3.416,-0.095
3.417,-0.094
3.418,-0.092
3.419,-0.094
3.420,-0.092
3.421,-0.091
3.422,-0.097
3.423,-0.100
3.424,-0.101
3.425,-0.103
3.426,-0.102
3.427,-0.100
3.428,-0.096
3.429,-0.094
3.430,-0.092
3.431,-0.094
3.432,-0.095
3.433,-0.094
3.434,-0.092
3.435,-0.091
3.436,-0.091
3.437,-0.091
3.438,-0.092
3.439,-0.091
3.440,-0.087
3.441,-0.084
3.442,-0.086
3.443,-0.084
3.444,-0.087
3.445,-0.087
3.446,-0.084
3.447,-0.084
3.448,-0.084
3.449,-0.084
3.450,-0.082
3.451,-0.084
3.452,-0.084
3.453,-0.084
3.454,-0.078
3.455,-0.075
3.456,-0.074
3.457,-0.069
3.458,-0.064
3.459,-0.066
3.460,-0.067
3.461,-0.066
3.462,-0.066
3.463,-0.066
3.464,-0.061
3.465,-0.059
3.466,-0.057
3.467,-0.059
3.468,-0.055
3.469,-0.050
3.470,-0.046
3.471,-0.044
3.472,-0.042
3.473,-0.041
3.474,-0.041
3.475,-0.037
3.476,-0.036
3.477,-0.034
3.478,-0.028
3.479,-0.022
3.480,-0.022
3.481,-0.016
3.482,-0.014
3.483,-0.016
3.484,-0.014
3.485,-0.012
3.486,-0.006
3.487,0.000
3.488,-0.003
3.489,0.000
3.490,0.000
3.491,0.006
3.492,0.011
3.493,0.016
3.494,0.017
3.495,0.019
3.496,0.019
3.497,0.019
3.498,0.022
3.499,0.022
3.500,0.025
3.501,0.025
3.502,0.034
3.503,0.044
3.504,0.042
3.505,0.041
3.506,0.042
3.507,0.047
3.508,0.048
3.509,0.053
3.510,0.056
3.511,0.056
3.512,0.055
3.513,0.056
3.514,0.059
3.515,0.063
3.516,0.066
3.517,0.072
3.518,0.074
3.519,0.072
3.520,0.074
3.521,0.072
3.522,0.073
3.523,0.078
3.524,0.075
3.525,0.075
3.526,0.076
3.527,0.081
3.528,0.083
3.529,0.084
3.530,0.086
3.531,0.081
3.532,0.081
3.533,0.081
3.534,0.083
3.535,0.084
3.536,0.086
3.537,0.091
3.538,0.088
3.539,0.088
3.540,0.088
3.541,0.091
3.542,0.091
3.543,0.091
3.544,0.091
3.545,0.091
3.546,0.094
3.547,0.094
3.548,0.094
3.549,0.094
3.550,0.096
3.551,0.094
3.552,0.094
3.553,0.097
3.554,0.101
3.555,0.100
3.556,0.101
3.557,0.103
3.558,0.103
3.559,0.103
3.560,0.104
3.561,0.106
3.562,0.106
3.563,0.109
3.564,0.113
3.565,0.116
3.566,0.113
3.567,0.116
3.568,0.116
3.569,0.116
3.570,0.118
3.571,0.116
3.572,0.119
3.573,0.122
3.574,0.122
3.575,0.122
3.576,0.122
3.577,0.122
3.578,0.122
3.579,0.122
3.580,0.123
3.581,0.122
3.582,0.121
3.583,0.119
3.584,0.119
3.585,0.116
3.586,0.119
3.587,0.116
3.588,0.116
3.589,0.113
3.590,0.111
3.591,0.106
3.592,0.106
3.593,0.106
3.594,0.101
3.595,0.100
3.596,0.100
3.597,0.097
3.598,0.095
3.599,0.094
3.600,0.088
3.601,0.081
3.602,0.079
3.603,0.081
3.604,0.076
3.605,0.075
3.606,0.072
3.607,0.069
3.608,0.069
3.609,0.069
3.610,0.061
3.611,0.059
3.612,0.055
3.613,0.050
3.614,0.047
3.615,0.044
3.616,0.042
3.617,0.041
3.618,0.044
3.619,0.041
3.620,0.034
3.621,0.028
3.622,0.025
3.623,0.025
3.624,0.022
3.625,0.016
3.626,0.014
3.627,0.009
3.628,0.007
3.629,0.006
3.630,0.005
3.631,0.003
3.632,-0.001
3.633,-0.006
3.634,-0.008
3.635,-0.006
3.636,-0.005
3.637,-0.006
3.638,-0.007
3.639,-0.012
3.640,-0.012
3.641,-0.012
3.642,-0.014
3.643,-0.012
3.644,-0.012
3.645,-0.016
3.646,-0.016
3.647,-0.019
3.648,-0.024
3.649,-0.025
3.650,-0.026
3.651,-0.028
3.652,-0.030
3.653,-0.028
3.654,-0.032
3.655,-0.034
3.656,-0.037
3.657,-0.034
3.658,-0.037
3.659,-0.037
3.660,-0.036
3.661,-0.034
3.662,-0.037
3.663,-0.037
3.664,-0.037
3.665,-0.037
3.666,-0.039
3.667,-0.044
3.668,-0.045
3.669,-0.047
3.670,-0.046
3.671,-0.044
3.672,-0.042
3.673,-0.041
3.674,-0.047
3.675,-0.050
3.676,-0.049
3.677,-0.050
3.678,-0.050
3.679,-0.050
3.680,-0.050
3.681,-0.050
3.682,-0.050
3.683,-0.053
3.684,-0.050
3.685,-0.053
3.686,-0.053
3.687,-0.053
3.688,-0.053
3.689,-0.056
3.690,-0.061
3.691,-0.066
3.692,-0.067
3.693,-0.069
3.694,-0.066
3.695,-0.066
3.696,-0.064
3.697,-0.066
3.698,-0.069
3.699,-0.069
3.700,-0.066
3.701,-0.066
3.702,-0.069
3.703,-0.069
3.704,-0.072
3.705,-0.072
3.706,-0.075
3.707,-0.075
3.708,-0.074
3.709,-0.075
3.710,-0.075
3.711,-0.075
3.712,-0.076
3.713,-0.078
3.714,-0.077
3.715,-0.075
3.716,-0.077
3.717,-0.078
3.718,-0.077
3.719,-0.075
3.720,-0.071
3.721,-0.072
3.722,-0.078
3.723,-0.087
3.724,-0.087
3.725,-0.087
3.726,-0.091
3.727,-0.091
3.728,-0.091
3.729,-0.091
3.730,-0.089
3.731,-0.091
3.732,-0.087
3.733,-0.087
3.734,-0.089
3.735,-0.091
3.736,-0.087
3.737,-0.091
3.738,-0.092
3.739,-0.094
3.740,-0.094
3.741,-0.094
3.742,-0.098
3.743,-0.100
3.744,-0.100
3.745,-0.100
3.746,-0.100
3.747,-0.103
3.748,-0.102
3.749,-0.100
3.750,-0.104
3.751,-0.106
3.752,-0.103
3.753,-0.103
3.754,-0.105
3.755,-0.103
3.756,-0.103
3.757,-0.103
3.758,-0.103
3.759,-0.103
3.760,-0.100
3.761,-0.097
3.762,-0.099
3.763,-0.094
3.764,-0.095
3.765,-0.094
3.766,-0.091
3.767,-0.091
3.768,-0.084
3.769,-0.078
3.770,-0.072
3.771,-0.066
3.772,-0.055
3.773,-0.047
3.774,-0.039
3.775,-0.031
3.776,-0.023
3.777,-0.016
3.778,-0.005
3.779,0.003
3.780,0.005
3.781,0.009
3.782,0.017
3.783,0.025
3.784,0.030
3.785,0.028
3.786,0.025
3.787,0.019
3.788,0.019
3.789,0.019
3.790,0.022
3.791,0.028
3.792,0.030
3.793,0.034
3.794,0.039
3.795,0.047
3.796,0.051
3.797,0.059
3.798,0.073
3.799,0.084
3.800,0.095
3.801,0.106
3.802,0.116
3.803,0.125
3.804,0.130
3.805,0.134
3.806,0.134
3.807,0.134
3.808,0.134
3.809,0.131
3.810,0.130
3.811,0.125
3.812,0.125
3.813,0.125
3.814,0.127
3.815,0.125
3.816,0.128
3.817,0.128
3.818,0.122
3.819,0.113
3.820,0.106
3.821,0.097
3.822,0.092
3.823,0.088
3.824,0.088
3.825,0.088
3.826,0.084
3.827,0.081
3.828,0.078
3.829,0.075
3.830,0.064
3.831,0.053
3.832,0.044
3.833,0.031
3.834,0.014
3.835,0.003
3.836,-0.006
3.837,-0.009
3.838,-0.012
3.839,-0.019
3.840,-0.026
3.841,-0.041
3.842,-0.054
3.843,-0.066
3.844,-0.073
3.845,-0.084
3.846,-0.089
3.847,-0.094
3.848,-0.097
3.849,-0.103
3.850,-0.111
3.851,-0.119
3.852,-0.122
3.853,-0.128
3.854,-0.134
3.855,-0.134
3.856,-0.137
3.857,-0.141
3.858,-0.145
3.859,-0.150
3.860,-0.156
3.861,-0.159
3.862,-0.159
3.863,-0.159
3.864,-0.162
3.865,-0.162
3.866,-0.162
3.867,-0.162
3.868,-0.159
3.869,-0.156
3.870,-0.155
3.871,-0.153
3.872,-0.154
3.873,-0.156
3.874,-0.161
3.875,-0.162
3.876,-0.164
3.877,-0.166
3.878,-0.166
3.879,-0.166
3.880,-0.162
3.881,-0.162
3.882,-0.169
3.883,-0.169
3.884,-0.169
3.885,-0.169
3.886,-0.167
3.887,-0.166
3.888,-0.169
3.889,-0.169
3.890,-0.169
3.891,-0.166
3.892,-0.170
3.893,-0.169
3.894,-0.166
3.895,-0.162
3.896,-0.161
3.897,-0.162
3.898,-0.162
3.899,-0.162
3.900,-0.162
3.901,-0.162
3.902,-0.159
3.903,-0.162
3.904,-0.159
3.905,-0.162
3.906,-0.164
3.907,-0.162
3.908,-0.164
3.909,-0.162
3.910,-0.162
3.911,-0.159
3.912,-0.167
3.913,-0.169
3.914,-0.172
3.915,-0.178
3.916,-0.183
3.917,-0.188
3.918,-0.189
3.919,-0.191
3.920,-0.188
3.921,-0.184
3.922,-0.172
3.923,-0.150
3.924,-0.133
3.925,-0.119
3.926,-0.087
3.927,-0.053
3.928,-0.014
3.929,0.028
3.930,0.076
3.931,0.125
3.932,0.186
3.933,0.253
3.934,0.331
3.935,0.416
3.936,0.506
3.937,0.597
3.938,0.694
3.939,0.791
3.940,0.884
3.941,0.987
3.942,1.083
3.943,1.178
3.944,1.261
3.945,1.331
3.946,1.393
3.947,1.444
3.948,1.466
3.949,1.472
3.950,1.442
3.951,1.369
3.952,1.275
3.953,1.172
3.954,1.047
3.955,0.913
3.956,0.774
3.957,0.625
3.958,0.482
3.959,0.344
3.960,0.208
3.961,0.078
3.962,-0.019
3.963,-0.103
3.964,-0.142
3.965,-0.156
3.966,-0.169
3.967,-0.166
3.968,-0.162
3.969,-0.150
3.970,-0.147
3.971,-0.147
3.972,-0.148
3.973,-0.147
3.974,-0.142
3.975,-0.131
3.976,-0.129
3.977,-0.128
3.978,-0.123
3.979,-0.125
3.980,-0.120
3.981,-0.119
3.982,-0.116
3.983,-0.109
3.984,-0.108
3.985,-0.106
3.986,-0.114
3.987,-0.122
3.988,-0.122
3.989,-0.122
3.990,-0.125
3.991,-0.125
3.992,-0.128
3.993,-0.128
3.994,-0.128
3.995,-0.128
3.996,-0.127
3.997,-0.125
3.998,-0.125
3.999,-0.122
4.000,-0.123
4.001,-0.125
4.002,-0.126
4.003,-0.128
4.004,-0.129
4.005,-0.128
4.006,-0.127
4.007,-0.125
4.008,-0.125
4.009,-0.125
4.010,-0.128
4.011,-0.125
4.012,-0.122
4.013,-0.125
4.014,-0.126
4.015,-0.128
4.016,-0.128
4.017,-0.128
4.018,-0.128
4.019,-0.128
4.020,-0.129
4.021,-0.131
4.022,-0.127
4.023,-0.125
4.024,-0.125
4.025,-0.125
4.026,-0.126
4.027,-0.125
4.028,-0.124
4.029,-0.122
4.030,-0.121
4.031,-0.119
4.032,-0.116
4.033,-0.109
4.034,-0.111
4.035,-0.109
4.036,-0.109
4.037,-0.109
4.038,-0.111
4.039,-0.112
4.040,-0.112
4.041,-0.112
4.042,-0.112
4.043,-0.116
4.044,-0.112
4.045,-0.112
4.046,-0.108
4.047,-0.100
4.048,-0.099
4.049,-0.094
4.050,-0.097
4.051,-0.103
4.052,-0.101
4.053,-0.103
4.054,-0.100
4.055,-0.100
4.056,-0.094
4.057,-0.091
4.058,-0.089
4.059,-0.087
4.060,-0.087
4.061,-0.087
4.062,-0.084
4.063,-0.087
4.064,-0.089
4.065,-0.087
4.066,-0.087
4.067,-0.091
4.068,-0.089
4.069,-0.087
4.070,-0.089
4.071,-0.087
4.072,-0.087
4.073,-0.087
4.074,-0.087
4.075,-0.087
4.076,-0.086
4.077,-0.087
4.078,-0.086
4.079,-0.087
4.080,-0.089
4.081,-0.087
4.082,-0.087
4.083,-0.087
4.084,-0.087
4.085,-0.087
4.086,-0.089
4.087,-0.087
4.088,-0.087
4.089,-0.087
4.090,-0.084
4.091,-0.078
4.092,-0.080
4.093,-0.078
4.094,-0.076
4.095,-0.078
4.096,-0.078
4.097,-0.078
4.098,-0.075
4.099,-0.075
4.100,-0.074
4.101,-0.072
4.102,-0.070
4.103,-0.072
4.104,-0.073
4.105,-0.072
4.106,-0.066
4.107,-0.066
4.108,-0.067
4.109,-0.066
4.110,-0.066
4.111,-0.066
4.112,-0.061
4.113,-0.059
4.114,-0.056
4.115,-0.056
4.116,-0.053
4.117,-0.050
4.118,-0.046
4.119,-0.044
4.120,-0.039
4.121,-0.034
4.122,-0.036
4.123,-0.034
4.124,-0.031
4.125,-0.028
4.126,-0.024
4.127,-0.019
4.128,-0.020
4.129,-0.016
4.130,-0.009
4.131,-0.006
4.132,-0.006
4.133,-0.006
4.134,-0.004
4.135,-0.003
4.136,-0.003
4.137,0.003
4.138,0.006
4.139,0.016
4.140,0.016
4.141,0.016
4.142,0.019
4.143,0.022
4.144,0.025
4.145,0.028
4.146,0.034
4.147,0.037
4.148,0.042
4.149,0.044
4.150,0.044
4.151,0.044
4.152,0.044
4.153,0.044
4.154,0.047
4.155,0.053
4.156,0.054
4.157,0.059
4.158,0.063
4.159,0.063
4.160,0.061
4.161,0.063
4.162,0.063
4.163,0.063
4.164,0.063
4.165,0.066
4.166,0.069
4.167,0.069
4.168,0.075
4.169,0.078
4.170,0.078
4.171,0.081
4.172,0.077
4.173,0.075
4.174,0.071
4.175,0.069
4.176,0.072
4.177,0.075
4.178,0.083
4.179,0.084
4.180,0.086
4.181,0.088
4.182,0.086
4.183,0.084
4.184,0.083
4.185,0.084
4.186,0.081
4.187,0.081
4.188,0.083
4.189,0.088
4.190,0.088
4.191,0.088
4.192,0.089
4.193,0.091
4.194,0.093
4.195,0.091
4.196,0.089
4.197,0.088
4.198,0.094
4.199,0.097
4.200,0.097
4.201,0.100
4.202,0.104
4.203,0.103
4.204,0.102
4.205,0.100
4.206,0.102
4.207,0.103
4.208,0.103
4.209,0.103
4.210,0.103
4.211,0.106
4.212,0.108
4.213,0.109
4.214,0.108
4.215,0.113
4.216,0.114
4.217,0.116
4.218,0.118
4.219,0.116
4.220,0.117
4.221,0.119
4.222,0.119
4.223,0.119
4.224,0.120
4.225,0.122
4.226,0.121
4.227,0.119
4.228,0.120
4.229,0.119
4.230,0.118
4.231,0.116
4.232,0.117
4.233,0.116
4.234,0.118
4.235,0.113
4.236,0.113
4.237,0.109
4.238,0.111
4.239,0.109
4.240,0.106
4.241,0.103
4.242,0.100
4.243,0.100
4.244,0.100
4.245,0.097
4.246,0.093
4.247,0.088
4.248,0.084
4.249,0.081
4.250,0.078
4.251,0.078
4.252,0.073
4.253,0.072
4.254,0.069
4.255,0.066
4.256,0.063
4.257,0.059
4.258,0.053
4.259,0.053
4.260,0.050
4.261,0.047
4.262,0.045
4.263,0.044
4.264,0.036
4.265,0.028
4.266,0.030
4.267,0.025
4.268,0.025
4.269,0.025
4.270,0.023
4.271,0.025
4.272,0.023
4.273,0.019
4.274,0.014
4.275,0.006
4.276,0.002
4.277,-0.003
4.278,-0.003
4.279,-0.003
4.280,-0.005
4.281,-0.006
4.282,-0.009
4.283,-0.009
4.284,-0.008
4.285,-0.009
4.286,-0.011
4.287,-0.016
4.288,-0.014
4.289,-0.012
4.290,-0.014
4.291,-0.012
4.292,-0.014
4.293,-0.019
4.294,-0.017
4.295,-0.019
4.296,-0.025
4.297,-0.028
4.298,-0.028
4.299,-0.028
4.300,-0.030
4.301,-0.028
4.302,-0.030
4.303,-0.028
4.304,-0.031
4.305,-0.028
4.306,-0.036
4.307,-0.041
4.308,-0.039
4.309,-0.037
4.310,-0.039
4.311,-0.037
4.312,-0.037
4.313,-0.037
4.314,-0.034
4.315,-0.034
4.316,-0.034
4.317,-0.034
4.318,-0.037
4.319,-0.041
4.320,-0.042
4.321,-0.044
4.322,-0.046
4.323,-0.044
4.324,-0.044
4.325,-0.047
4.326,-0.047
4.327,-0.047
4.328,-0.048
4.329,-0.050
4.330,-0.050
4.331,-0.053
4.332,-0.050
4.333,-0.053
4.334,-0.050
4.335,-0.047
4.336,-0.046
4.337,-0.047
4.338,-0.053
4.339,-0.059
4.340,-0.059
4.341,-0.059
4.342,-0.055
4.343,-0.053
4.344,-0.052
4.345,-0.053
4.346,-0.054
4.347,-0.053
4.348,-0.052
4.349,-0.053
4.350,-0.055
4.351,-0.053
4.352,-0.055
4.353,-0.056
4.354,-0.057
4.355,-0.059
4.356,-0.061
4.357,-0.066
4.358,-0.067
4.359,-0.066
4.360,-0.067
4.361,-0.066
4.362,-0.067
4.363,-0.066
4.364,-0.069
4.365,-0.069
4.366,-0.067
4.367,-0.069
4.368,-0.070
4.369,-0.072
4.370,-0.072
4.371,-0.072
4.372,-0.079
4.373,-0.081
4.374,-0.080
4.375,-0.081
4.376,-0.084
4.377,-0.081
4.378,-0.084
4.379,-0.084
4.380,-0.084
4.381,-0.084
4.382,-0.083
4.383,-0.084
4.384,-0.086
4.385,-0.087
4.386,-0.086
4.387,-0.084
4.388,-0.087
4.389,-0.087
4.390,-0.087
4.391,-0.091
4.392,-0.095
4.393,-0.097
4.394,-0.092
4.395,-0.091
4.396,-0.092
4.397,-0.094
4.398,-0.094
4.399,-0.094
4.400,-0.094
4.401,-0.094
4.402,-0.092
4.403,-0.094
4.404,-0.091
4.405,-0.091
4.406,-0.089
4.407,-0.087
4.408,-0.087
4.409,-0.081
4.410,-0.075
4.411,-0.069
4.412,-0.062
4.413,-0.053
4.414,-0.047
4.415,-0.037
4.416,-0.025
4.417,-0.012
4.418,-0.009
4.419,-0.006
4.420,0.000
4.421,0.003
4.422,0.014
4.423,0.022
4.424,0.022
4.425,0.025
4.426,0.025
4.427,0.022
4.428,0.016
4.429,0.016
4.430,0.017
4.431,0.022
4.432,0.031
4.433,0.037
4.434,0.044
4.435,0.047
4.436,0.052
4.437,0.053
4.438,0.059
4.439,0.069
4.440,0.075
4.441,0.084
4.442,0.093
4.443,0.100
4.444,0.109
4.445,0.116
4.446,0.123
4.447,0.128
4.448,0.130
4.449,0.128
4.450,0.126
4.451,0.128
4.452,0.125
4.453,0.125
4.454,0.125
4.455,0.128
4.456,0.127
4.457,0.125
4.458,0.121
4.459,0.116
4.460,0.108
4.461,0.100
4.462,0.091
4.463,0.084
4.464,0.081
4.465,0.081
4.466,0.079
4.467,0.078
4.468,0.072
4.469,0.066
4.470,0.061
4.471,0.050
4.472,0.039
4.473,0.028
4.474,0.014
4.475,-0.003
4.476,-0.009
4.477,-0.019
4.478,-0.025
4.479,-0.031
4.480,-0.041
4.481,-0.044
4.482,-0.050
4.483,-0.059
4.484,-0.069
4.485,-0.075
4.486,-0.084
4.487,-0.091
4.488,-0.097
4.489,-0.100
4.490,-0.106
4.491,-0.112
4.492,-0.122
4.493,-0.128
4.494,-0.133
4.495,-0.141
4.496,-0.141
4.497,-0.141
4.498,-0.144
4.499,-0.147
4.500,-0.150
4.501,-0.156
4.502,-0.161
4.503,-0.162
4.504,-0.162
4.505,-0.166
4.506,-0.169
4.507,-0.172
4.508,-0.173
4.509,-0.175
4.510,-0.175
4.511,-0.175
4.512,-0.175
4.513,-0.175
4.514,-0.174
4.515,-0.175
4.516,-0.172
4.517,-0.172
4.518,-0.174
4.519,-0.172
4.520,-0.175
4.521,-0.175
4.522,-0.175
4.523,-0.178
4.524,-0.176
4.525,-0.178
4.526,-0.178
4.527,-0.178
4.528,-0.178
4.529,-0.181
4.530,-0.181
4.531,-0.181
4.532,-0.178
4.533,-0.181
4.534,-0.181
4.535,-0.184
4.536,-0.184
4.537,-0.181
4.538,-0.175
4.539,-0.169
4.540,-0.170
4.541,-0.172
4.542,-0.172
4.543,-0.169
4.544,-0.173
4.545,-0.172
4.546,-0.174
4.547,-0.172
4.548,-0.170
4.549,-0.172
4.550,-0.169
4.551,-0.172
4.552,-0.171
4.553,-0.175
4.554,-0.176
4.555,-0.184
4.556,-0.194
4.557,-0.200
4.558,-0.209
4.559,-0.216
4.560,-0.218
4.561,-0.209
4.562,-0.200
4.563,-0.188
4.564,-0.173
4.565,-0.162
4.566,-0.147
4.567,-0.119
4.568,-0.083
4.569,-0.037
4.570,0.003
4.571,0.047
4.572,0.092
4.573,0.147
4.574,0.209
4.575,0.284
4.576,0.363
4.577,0.453
4.578,0.543
4.579,0.644
4.580,0.746
4.581,0.844
4.582,0.947
4.583,1.044
4.584,1.143
4.585,1.231
4.586,1.305
4.587,1.363
4.588,1.414
4.589,1.456
4.590,1.475
4.591,1.450
4.592,1.388
4.593,1.300
4.594,1.208
4.595,1.094
4.596,0.967
4.597,0.828
4.598,0.681
4.599,0.525
4.600,0.381
4.601,0.250
4.602,0.125
4.603,0.009
4.604,-0.091
4.605,-0.147
4.606,-0.180
4.607,-0.191
4.608,-0.191
4.609,-0.184
4.610,-0.172
4.611,-0.169
4.612,-0.167
4.613,-0.166
4.614,-0.161
4.615,-0.159
4.616,-0.153
4.617,-0.150
4.618,-0.146
4.619,-0.137
4.620,-0.137
4.621,-0.131
4.622,-0.128
4.623,-0.128
4.624,-0.126
4.625,-0.128
4.626,-0.127
4.627,-0.128
4.628,-0.128
4.629,-0.125
4.630,-0.124
4.631,-0.128
4.632,-0.132
4.633,-0.137
4.634,-0.136
4.635,-0.134
4.636,-0.136
4.637,-0.137
4.638,-0.139
4.639,-0.144
4.640,-0.141
4.641,-0.137
4.642,-0.137
4.643,-0.137
4.644,-0.139
4.645,-0.141
4.646,-0.139
4.647,-0.141
4.648,-0.142
4.649,-0.144
4.650,-0.142
4.651,-0.144
4.652,-0.142
4.653,-0.141
4.654,-0.142
4.655,-0.141
4.656,-0.142
4.657,-0.144
4.658,-0.144
4.659,-0.144
4.660,-0.144
4.661,-0.144
4.662,-0.139
4.663,-0.131
4.664,-0.130
4.665,-0.128
4.666,-0.128
4.667,-0.128
4.668,-0.126
4.669,-0.128
4.670,-0.127
4.671,-0.125
4.672,-0.128
4.673,-0.131
4.674,-0.129
4.675,-0.131
4.676,-0.129
4.677,-0.131
4.678,-0.131
4.679,-0.131
4.680,-0.125
4.681,-0.119
4.682,-0.120
4.683,-0.119
4.684,-0.120
4.685,-0.119
4.686,-0.117
4.687,-0.116
4.688,-0.114
4.689,-0.116
4.690,-0.116
4.691,-0.119
4.692,-0.119
4.693,-0.112
4.694,-0.111
4.695,-0.106
4.696,-0.107
4.697,-0.106
4.698,-0.107
4.699,-0.109
4.700,-0.109
4.701,-0.109
4.702,-0.109
4.703,-0.106
4.704,-0.111
4.705,-0.112
4.706,-0.109
4.707,-0.109
4.708,-0.111
4.709,-0.106
4.710,-0.103
4.711,-0.106
4.712,-0.106
4.713,-0.106
4.714,-0.106
4.715,-0.106
4.716,-0.107
4.717,-0.106
4.718,-0.106
4.719,-0.106
4.720,-0.111
4.721,-0.112
4.722,-0.109
4.723,-0.109
4.724,-0.103
4.725,-0.097
4.726,-0.098
4.727,-0.100
4.728,-0.098
4.729,-0.100
4.730,-0.099
4.731,-0.097
4.732,-0.094
4.733,-0.097
4.734,-0.098
4.735,-0.097
4.736,-0.098
4.737,-0.100
4.738,-0.097
4.739,-0.091
4.740,-0.089
4.741,-0.087
4.742,-0.089
4.743,-0.087
4.744,-0.087
4.745,-0.087
4.746,-0.089
4.747,-0.087
4.748,-0.084
4.749,-0.081
4.750,-0.079
4.751,-0.081
4.752,-0.084
4.753,-0.084
4.754,-0.086
4.755,-0.084
4.756,-0.081
4.757,-0.075
4.758,-0.069
4.759,-0.062
4.760,-0.061
4.761,-0.056
4.762,-0.054
4.763,-0.056
4.764,-0.054
4.765,-0.053
4.766,-0.049
4.767,-0.044
4.768,-0.044
4.769,-0.047
4.770,-0.041
4.771,-0.037
4.772,-0.039
4.773,-0.037
4.774,-0.034
4.775,-0.031
4.776,-0.029
4.777,-0.031
4.778,-0.019
4.779,-0.012
4.780,-0.005
4.781,0.000
4.782,0.000
4.783,0.000
4.784,0.003
4.785,0.003
4.786,0.003
4.787,0.009
4.788,0.012
4.789,0.016
4.790,0.014
4.791,0.016
4.792,0.017
4.793,0.016
4.794,0.014
4.795,0.016
4.796,0.022
4.797,0.022
4.798,0.024
4.799,0.025
4.800,0.026
4.801,0.028
4.802,0.031
4.803,0.031
4.804,0.034
4.805,0.037
4.806,0.039
4.807,0.041
4.808,0.042
4.809,0.047
4.810,0.046
4.811,0.044
4.812,0.047
4.813,0.044
4.814,0.047
4.815,0.050
4.816,0.052
4.817,0.050
4.818,0.049
4.819,0.050
4.820,0.046
4.821,0.047
4.822,0.050
4.823,0.050
4.824,0.054
4.825,0.059
4.826,0.064
4.827,0.063
4.828,0.058
4.829,0.053
4.830,0.056
4.831,0.056
4.832,0.056
4.833,0.056
4.834,0.056
4.835,0.059
4.836,0.063
4.837,0.066
4.838,0.064
4.839,0.066
4.840,0.066
4.841,0.066
4.842,0.070
4.843,0.075
4.844,0.073
4.845,0.075
4.846,0.075
4.847,0.078
4.848,0.081
4.849,0.081
4.850,0.081
4.851,0.081
4.852,0.088
4.853,0.091
4.854,0.091
4.855,0.091
4.856,0.094
4.857,0.091
4.858,0.089
4.859,0.091
4.860,0.094
4.861,0.097
4.862,0.097
4.863,0.097
4.864,0.097
4.865,0.097
4.866,0.096
4.867,0.094
4.868,0.097
4.869,0.100
4.870,0.098
4.871,0.100
4.872,0.100
4.873,0.100
4.874,0.097
4.875,0.100
4.876,0.098
4.877,0.100
4.878,0.094
4.879,0.091
4.880,0.086
4.881,0.084
4.882,0.088
4.883,0.084
4.884,0.080
4.885,0.078
4.886,0.074
4.887,0.069
4.888,0.063
4.889,0.056
4.890,0.053
4.891,0.050
4.892,0.051
4.893,0.047
4.894,0.047
4.895,0.047
4.896,0.045
4.897,0.044
4.898,0.041
4.899,0.034
4.900,0.030
4.901,0.022
4.902,0.017
4.903,0.012
4.904,0.012
4.905,0.012
4.906,0.009
4.907,0.012
4.908,0.009
4.909,0.006
4.910,-0.003
4.911,-0.012
4.912,-0.016
4.913,-0.022
4.914,-0.027
4.915,-0.025
4.916,-0.024
4.917,-0.022
4.918,-0.025
4.919,-0.025
4.920,-0.024
4.921,-0.025
4.922,-0.028
4.923,-0.031
4.924,-0.036
4.925,-0.041
4.926,-0.044
4.927,-0.044
4.928,-0.047
4.929,-0.047
4.930,-0.047
4.931,-0.050
4.932,-0.050
4.933,-0.050
4.934,-0.054
4.935,-0.053
4.936,-0.050
4.937,-0.053
4.938,-0.059
4.939,-0.062
4.940,-0.062
4.941,-0.066
4.942,-0.067
4.943,-0.072
4.944,-0.072
4.945,-0.075
4.946,-0.071
4.947,-0.072
4.948,-0.071
4.949,-0.069
4.950,-0.067
4.951,-0.069
4.952,-0.066
4.953,-0.062
4.954,-0.062
4.955,-0.062
4.956,-0.069
4.957,-0.072
4.958,-0.072
4.959,-0.072
4.960,-0.072
4.961,-0.072
4.962,-0.071
4.963,-0.072
4.964,-0.073
4.965,-0.075
4.966,-0.077
4.967,-0.075
4.968,-0.076
4.969,-0.078
4.970,-0.078
4.971,-0.078
4.972,-0.081
4.973,-0.078
4.974,-0.081
4.975,-0.081
4.976,-0.082
4.977,-0.084
4.978,-0.086
4.979,-0.084
4.980,-0.084
4.981,-0.084
4.982,-0.084
4.983,-0.084
4.984,-0.089
4.985,-0.091
4.986,-0.091
4.987,-0.091
4.988,-0.087
4.989,-0.087
4.990,-0.089
4.991,-0.087
4.992,-0.091
4.993,-0.091
4.994,-0.097
4.995,-0.100
4.996,-0.102
4.997,-0.100
4.998,-0.100
4.999,-0.103
5.000,-0.104
5.001,-0.106
5.002,-0.105
5.003,-0.103
5.004,-0.107
5.005,-0.106
5.006,-0.107
5.007,-0.112
5.008,-0.116
5.009,-0.112
5.010,-0.116
5.011,-0.116
5.012,-0.112
5.013,-0.109
5.014,-0.108
5.015,-0.109
5.016,-0.111
5.017,-0.112
5.018,-0.116
5.019,-0.119
5.020,-0.121
5.021,-0.119
5.022,-0.117
5.023,-0.119
5.024,-0.120
5.025,-0.119
5.026,-0.119
5.027,-0.122
5.028,-0.122
5.029,-0.122
5.030,-0.123
5.031,-0.125
5.032,-0.125
5.033,-0.125
5.034,-0.121
5.035,-0.119
5.036,-0.116
5.037,-0.116
5.038,-0.117
5.039,-0.119
5.040,-0.119
5.041,-0.112
5.042,-0.103
5.043,-0.094
5.044,-0.087
5.045,-0.078
5.046,-0.071
5.047,-0.059
5.048,-0.050
5.049,-0.041
5.050,-0.036
5.051,-0.031
5.052,-0.025
5.053,-0.022
5.054,-0.017
5.055,-0.016
5.056,-0.009
5.057,0.000
5.058,0.001
5.059,0.000
5.060,-0.007
5.061,-0.009
5.062,-0.011
5.063,-0.009
5.064,-0.003
5.065,0.000
5.066,0.007
5.067,0.012
5.068,0.019
5.069,0.022
5.070,0.024
5.071,0.028
5.072,0.037
5.073,0.050
5.074,0.063
5.075,0.075
5.076,0.081
5.077,0.084
5.078,0.091
5.079,0.094
5.080,0.100
5.081,0.103
5.082,0.100
5.083,0.100
5.084,0.097
5.085,0.097
5.086,0.096
5.087,0.097
5.088,0.098
5.089,0.100
5.090,0.096
5.091,0.091
5.092,0.083
5.093,0.075
5.094,0.069
5.095,0.066
5.096,0.058
5.097,0.053
5.098,0.049
5.099,0.044
5.100,0.039
5.101,0.034
5.102,0.032
5.103,0.025
5.104,0.012
5.105,0.000
5.106,-0.012
5.107,-0.028
5.108,-0.034
5.109,-0.044
5.110,-0.047
5.111,-0.050
5.112,-0.062
5.113,-0.069
5.114,-0.077
5.115,-0.087
5.116,-0.097
5.117,-0.103
5.118,-0.114
5.119,-0.122
5.120,-0.128
5.121,-0.131
5.122,-0.137
5.123,-0.144
5.124,-0.151
5.125,-0.156
5.126,-0.159
5.127,-0.166
5.128,-0.172
5.129,-0.178
5.130,-0.183
5.131,-0.188
5.132,-0.188
5.133,-0.191
5.134,-0.191
5.135,-0.188
5.136,-0.186
5.137,-0.188
5.138,-0.189
5.139,-0.191
5.140,-0.192
5.141,-0.194
5.142,-0.194
5.143,-0.194
5.144,-0.193
5.145,-0.191
5.146,-0.189
5.147,-0.191
5.148,-0.192
5.149,-0.197
5.150,-0.199
5.151,-0.197
5.152,-0.200
5.153,-0.200
5.154,-0.199
5.155,-0.200
5.156,-0.197
5.157,-0.197
5.158,-0.198
5.159,-0.200
5.160,-0.199
5.161,-0.200
5.162,-0.201
5.163,-0.203
5.164,-0.199
5.165,-0.200
5.166,-0.197
5.167,-0.197
5.168,-0.198
5.169,-0.197
5.170,-0.197
5.171,-0.197
5.172,-0.196
5.173,-0.194
5.174,-0.194
5.175,-0.191
5.176,-0.197
5.177,-0.197
5.178,-0.200
5.179,-0.200
5.180,-0.193
5.181,-0.188
5.182,-0.184
5.183,-0.188
5.184,-0.189
5.185,-0.197
5.186,-0.201
5.187,-0.213
5.188,-0.223
5.189,-0.231
5.190,-0.234
5.191,-0.234
5.192,-0.236
5.193,-0.228
5.194,-0.218
5.195,-0.203
5.196,-0.189
5.197,-0.178
5.198,-0.162
5.199,-0.134
5.200,-0.106
5.201,-0.069
5.202,-0.027
5.203,0.019
5.204,0.066
5.205,0.122
5.206,0.181
5.207,0.253
5.208,0.331
5.209,0.422
5.210,0.514
5.211,0.619
5.212,0.725
5.213,0.828
5.214,0.934
5.215,1.034
5.216,1.138
5.217,1.231
5.218,1.313
5.219,1.378
5.220,1.431
5.221,1.475
5.222,1.497
5.223,1.475
5.224,1.418
5.225,1.334
5.226,1.241
5.227,1.125
5.228,1.000
5.229,0.863
5.230,0.714
5.231,0.556
5.232,0.408
5.233,0.272
5.234,0.142
5.235,0.022
5.236,-0.083
5.237,-0.144
5.238,-0.180
5.239,-0.194
5.240,-0.191
5.241,-0.181
5.242,-0.170
5.243,-0.169
5.244,-0.167
5.245,-0.166
5.246,-0.166
5.247,-0.169
5.248,-0.162
5.249,-0.159
5.250,-0.155
5.251,-0.147
5.252,-0.148
5.253,-0.144
5.254,-0.141
5.255,-0.141
5.256,-0.139
5.257,-0.141
5.258,-0.139
5.259,-0.141
5.260,-0.142
5.261,-0.141
5.262,-0.139
5.263,-0.144
5.264,-0.147
5.265,-0.150
5.266,-0.150
5.267,-0.150
5.268,-0.153
5.269,-0.156
5.270,-0.157
5.271,-0.162
5.272,-0.162
5.273,-0.162
5.274,-0.162
5.275,-0.162
5.276,-0.159
5.277,-0.156
5.278,-0.150
5.279,-0.147
5.280,-0.150
5.281,-0.153
5.282,-0.153
5.283,-0.156
5.284,-0.153
5.285,-0.150
5.286,-0.153
5.287,-0.153
5.288,-0.153
5.289,-0.153
5.290,-0.153
5.291,-0.153
5.292,-0.153
5.293,-0.153
5.294,-0.156
5.295,-0.156
5.296,-0.156
5.297,-0.156
5.298,-0.155
5.299,-0.153
5.300,-0.151
5.301,-0.153
5.302,-0.153
5.303,-0.153
5.304,-0.153
5.305,-0.153
5.306,-0.150
5.307,-0.150
5.308,-0.144
5.309,-0.141
5.310,-0.141
5.311,-0.141
5.312,-0.141
5.313,-0.141
5.314,-0.142
5.315,-0.141
5.316,-0.137
5.317,-0.131
5.318,-0.131
5.319,-0.131
5.320,-0.128
5.321,-0.128
5.322,-0.124
5.323,-0.122
5.324,-0.126
5.325,-0.125
5.326,-0.126
5.327,-0.125
5.328,-0.126
5.329,-0.125
5.330,-0.125
5.331,-0.125
5.332,-0.125
5.333,-0.125
5.334,-0.125
5.335,-0.122
5.336,-0.125
5.337,-0.125
5.338,-0.122
5.339,-0.122
5.340,-0.124
5.341,-0.119
5.342,-0.116
5.343,-0.119
5.344,-0.119
5.345,-0.119
5.346,-0.117
5.347,-0.116
5.348,-0.117
5.349,-0.116
5.350,-0.114
5.351,-0.112
5.352,-0.114
5.353,-0.112
5.354,-0.109
5.355,-0.109
5.356,-0.109
5.357,-0.109
5.358,-0.111
5.359,-0.112
5.360,-0.109
5.361,-0.109
5.362,-0.109
5.363,-0.109
5.364,-0.106
5.365,-0.109
5.366,-0.111
5.367,-0.109
5.368,-0.106
5.369,-0.103
5.370,-0.104
5.371,-0.103
5.372,-0.103
5.373,-0.103
5.374,-0.103
5.375,-0.100
5.376,-0.099
5.377,-0.097
5.378,-0.097
5.379,-0.094
5.380,-0.094
5.381,-0.094
5.382,-0.087
5.383,-0.084
5.384,-0.086
5.385,-0.084
5.386,-0.084
5.387,-0.081
5.388,-0.082
5.389,-0.081
5.390,-0.078
5.391,-0.075
5.392,-0.074
5.393,-0.069
5.394,-0.066
5.395,-0.066
5.396,-0.059
5.397,-0.053
5.398,-0.049
5.399,-0.044
5.400,-0.042
5.401,-0.044
5.402,-0.037
5.403,-0.034
5.404,-0.034
5.405,-0.031
5.406,-0.027
5.407,-0.022
5.408,-0.020
5.409,-0.022
5.410,-0.012
5.411,-0.009
5.412,-0.003
5.413,0.000
5.414,0.002
5.415,0.003
5.416,0.005
5.417,0.003
5.418,0.004
5.419,0.012
5.420,0.014
5.421,0.016
5.422,0.014
5.423,0.016
5.424,0.019
5.425,0.019
5.426,0.020
5.427,0.025
5.428,0.031
5.429,0.031
5.430,0.031
5.431,0.031
5.432,0.034
5.433,0.037
5.434,0.041
5.435,0.041
5.436,0.041
5.437,0.041
5.438,0.044
5.439,0.047
5.440,0.046
5.441,0.047
5.442,0.047
5.443,0.047
5.444,0.053
5.445,0.053
5.446,0.054
5.447,0.056
5.448,0.058
5.449,0.056
5.450,0.056
5.451,0.059
5.452,0.056
5.453,0.059
5.454,0.063
5.455,0.063
5.456,0.063
5.457,0.063
5.458,0.066
5.459,0.063
5.460,0.063
5.461,0.063
5.462,0.066
5.463,0.066
5.464,0.066
5.465,0.066
5.466,0.064
5.467,0.066
5.468,0.070
5.469,0.075
5.470,0.072
5.471,0.072
5.472,0.072
5.473,0.072
5.474,0.074
5.475,0.075
5.476,0.076
5.477,0.081
5.478,0.078
5.479,0.078
5.480,0.080
5.481,0.078
5.482,0.079
5.483,0.081
5.484,0.088
5.485,0.091
5.486,0.091
5.487,0.091
5.488,0.096
5.489,0.094
5.490,0.094
5.491,0.097
5.492,0.096
5.493,0.094
5.494,0.093
5.495,0.091
5.496,0.091
5.497,0.091
5.498,0.091
5.499,0.091
5.500,0.094
5.501,0.097
5.502,0.095
5.503,0.097
5.504,0.096
5.505,0.094
5.506,0.091
5.507,0.094
5.508,0.091
5.509,0.091
5.510,0.086
5.511,0.084
5.512,0.081
5.513,0.081
5.514,0.083
5.515,0.078
5.516,0.074
5.517,0.072
5.518,0.069
5.519,0.066
5.520,0.066
5.521,0.066
5.522,0.058
5.523,0.050
5.524,0.051
5.525,0.047
5.526,0.044
5.527,0.041
5.528,0.036
5.529,0.031
5.530,0.029
5.531,0.025
5.532,0.024
5.533,0.019
5.534,0.014
5.535,0.009
5.536,0.006
5.537,0.003
5.538,0.000
5.539,0.003
5.540,-0.001
5.541,-0.006
5.542,-0.008
5.543,-0.009
5.544,-0.008
5.545,-0.009
5.546,-0.020
5.547,-0.025
5.548,-0.028
5.549,-0.031
5.550,-0.034
5.551,-0.034
5.552,-0.031
5.553,-0.031
5.554,-0.036
5.555,-0.041
5.556,-0.041
5.557,-0.041
5.558,-0.042
5.559,-0.041
5.560,-0.044
5.561,-0.044
5.562,-0.042
5.563,-0.044
5.564,-0.044
5.565,-0.044
5.566,-0.048
5.567,-0.047
5.568,-0.044
5.569,-0.047
5.570,-0.051
5.571,-0.053
5.572,-0.052
5.573,-0.053
5.574,-0.050
5.575,-0.050
5.576,-0.050
5.577,-0.053
5.578,-0.053
5.579,-0.059
5.580,-0.061
5.581,-0.062
5.582,-0.062
5.583,-0.066
5.584,-0.062
5.585,-0.059
5.586,-0.056
5.587,-0.053
5.588,-0.056
5.589,-0.056
5.590,-0.061
5.591,-0.066
5.592,-0.067
5.593,-0.069
5.594,-0.069
5.595,-0.072
5.596,-0.072
5.597,-0.072
5.598,-0.074
5.599,-0.072
5.600,-0.073
5.601,-0.075
5.602,-0.078
5.603,-0.081
5.604,-0.081
5.605,-0.075
5.606,-0.077
5.607,-0.075
5.608,-0.076
5.609,-0.078
5.610,-0.082
5.611,-0.084
5.612,-0.083
5.613,-0.081
5.614,-0.080
5.615,-0.078
5.616,-0.079
5.617,-0.084
5.618,-0.089
5.619,-0.091
5.620,-0.089
5.621,-0.084
5.622,-0.086
5.623,-0.084
5.624,-0.087
5.625,-0.087
5.626,-0.086
5.627,-0.087
5.628,-0.089
5.629,-0.091
5.630,-0.092
5.631,-0.094
5.632,-0.098
5.633,-0.097
5.634,-0.094
5.635,-0.094
5.636,-0.097
5.637,-0.094
5.638,-0.098
5.639,-0.100
5.640,-0.101
5.641,-0.103
5.642,-0.103
5.643,-0.106
5.644,-0.106
5.645,-0.106
5.646,-0.106
5.647,-0.106
5.648,-0.112
5.649,-0.116
5.650,-0.114
5.651,-0.116
5.652,-0.117
5.653,-0.116
5.654,-0.111
5.655,-0.109
5.656,-0.109
5.657,-0.109
5.658,-0.109
5.659,-0.109
5.660,-0.109
5.661,-0.109
5.662,-0.106
5.663,-0.106
5.664,-0.103
5.665,-0.103
5.666,-0.101
5.667,-0.100
5.668,-0.100
5.669,-0.094
5.670,-0.091
5.671,-0.087
5.672,-0.080
5.673,-0.069
5.674,-0.059
5.675,-0.047
5.676,-0.037
5.677,-0.028
5.678,-0.017
5.679,-0.006
5.680,-0.001
5.681,0.000
5.682,0.005
5.683,0.006
5.684,0.008
5.685,0.012
5.686,0.012
5.687,0.009
5.688,0.002
5.689,0.000
5.690,0.000
5.691,0.003
5.692,0.012
5.693,0.019
5.694,0.025
5.695,0.028
5.696,0.036
5.697,0.041
5.698,0.048
5.699,0.059
5.700,0.064
5.701,0.072
5.702,0.075
5.703,0.078
5.704,0.091
5.705,0.100
5.706,0.108
5.707,0.113
5.708,0.116
5.709,0.116
5.710,0.113
5.711,0.113
5.712,0.109
5.713,0.109
5.714,0.108
5.715,0.109
5.716,0.111
5.717,0.113
5.718,0.111
5.719,0.109
5.720,0.103
5.721,0.097
5.722,0.084
5.723,0.075
5.724,0.068
5.725,0.063
5.726,0.061
5.727,0.059
5.728,0.056
5.729,0.053
5.730,0.050
5.731,0.041
5.732,0.028
5.733,0.016
5.734,0.007
5.735,-0.003
5.736,-0.012
5.737,-0.025
5.738,-0.031
5.739,-0.037
5.740,-0.048
5.741,-0.053
5.742,-0.058
5.743,-0.066
5.744,-0.076
5.745,-0.084
5.746,-0.095
5.747,-0.103
5.748,-0.112
5.749,-0.119
5.750,-0.125
5.751,-0.131
5.752,-0.139
5.753,-0.144
5.754,-0.144
5.755,-0.147
5.756,-0.151
5.757,-0.156
5.758,-0.156
5.759,-0.156
5.760,-0.162
5.761,-0.172
5.762,-0.174
5.763,-0.172
5.764,-0.172
5.765,-0.175
5.766,-0.175
5.767,-0.175
5.768,-0.176
5.769,-0.178
5.770,-0.179
5.771,-0.181
5.772,-0.181
5.773,-0.181
5.774,-0.180
5.775,-0.181
5.776,-0.180
5.777,-0.181
5.778,-0.184
5.779,-0.184
5.780,-0.186
5.781,-0.184
5.782,-0.183
5.783,-0.184
5.784,-0.180
5.785,-0.178
5.786,-0.178
5.787,-0.178
5.788,-0.178
5.789,-0.181
5.790,-0.183
5.791,-0.184
5.792,-0.181
5.793,-0.184
5.794,-0.180
5.795,-0.178
5.796,-0.179
5.797,-0.178
5.798,-0.178
5.799,-0.178
5.800,-0.178
5.801,-0.178
5.802,-0.179
5.803,-0.178
5.804,-0.181
5.805,-0.178
5.806,-0.181
5.807,-0.181
5.808,-0.178
5.809,-0.178
5.810,-0.175
5.811,-0.178
5.812,-0.175
5.813,-0.178
5.814,-0.178
5.815,-0.184
5.816,-0.191
5.817,-0.194
5.818,-0.201
5.819,-0.206
5.820,-0.211
5.821,-0.206
5.822,-0.199
5.823,-0.188
5.824,-0.172
5.825,-0.159
5.826,-0.144
5.827,-0.116
5.828,-0.087
5.829,-0.050
5.830,-0.009
5.831,0.034
5.832,0.081
5.833,0.138
5.834,0.197
5.835,0.269
5.836,0.353
5.837,0.450
5.838,0.544
5.839,0.650
5.840,0.757
5.841,0.863
5.842,0.975
5.843,1.081
5.844,1.188
5.845,1.284
5.846,1.359
5.847,1.419
5.848,1.475
5.849,1.522
5.850,1.547
5.851,1.528
5.852,1.472
5.853,1.391
5.854,1.296
5.855,1.178
5.856,1.058
5.857,0.925
5.858,0.777
5.859,0.619
5.860,0.468
5.861,0.328
5.862,0.194
5.863,0.069
5.864,-0.034
5.865,-0.094
5.866,-0.130
5.867,-0.144
5.868,-0.150
5.869,-0.150
5.870,-0.142
5.871,-0.144
5.872,-0.144
5.873,-0.144
5.874,-0.137
5.875,-0.134
5.876,-0.129
5.877,-0.128
5.878,-0.126
5.879,-0.122
5.880,-0.119
5.881,-0.109
5.882,-0.105
5.883,-0.103
5.884,-0.101
5.885,-0.103
5.886,-0.103
5.887,-0.106
5.888,-0.109
5.889,-0.109
5.890,-0.111
5.891,-0.119
5.892,-0.122
5.893,-0.125
5.894,-0.122
5.895,-0.119
5.896,-0.119
5.897,-0.119
5.898,-0.122
5.899,-0.128
5.900,-0.128
5.901,-0.128
5.902,-0.128
5.903,-0.128
5.904,-0.128
5.905,-0.128
5.906,-0.126
5.907,-0.128
5.908,-0.128
5.909,-0.128
5.910,-0.127
5.911,-0.128
5.912,-0.125
5.913,-0.122
5.914,-0.125
5.915,-0.125
5.916,-0.125
5.917,-0.125
5.918,-0.125
5.919,-0.125
5.920,-0.124
5.921,-0.122
5.922,-0.123
5.923,-0.122
5.924,-0.122
5.925,-0.122
5.926,-0.123
5.927,-0.125
5.928,-0.121
5.929,-0.119
5.930,-0.117
5.931,-0.116
5.932,-0.116
5.933,-0.116
5.934,-0.112
5.935,-0.112
5.936,-0.111
5.937,-0.112
5.938,-0.112
5.939,-0.112
5.940,-0.112
5.941,-0.112
5.942,-0.112
5.943,-0.109
5.944,-0.108
5.945,-0.103
5.946,-0.102
5.947,-0.100
5.948,-0.098
5.949,-0.100
5.950,-0.100
5.951,-0.103
5.952,-0.105
5.953,-0.100
5.954,-0.097
5.955,-0.091
5.956,-0.091
5.957,-0.087
5.958,-0.087
5.959,-0.087
5.960,-0.087
5.961,-0.087
5.962,-0.089
5.963,-0.087
5.964,-0.089
5.965,-0.087
5.966,-0.084
5.967,-0.084
5.968,-0.091
5.969,-0.091
5.970,-0.086
5.971,-0.087
5.972,-0.087
5.973,-0.087
5.974,-0.089
5.975,-0.091
5.976,-0.089
5.977,-0.084
5.978,-0.083
5.979,-0.081
5.980,-0.086
5.981,-0.087
5.982,-0.086
5.983,-0.087
5.984,-0.087
5.985,-0.087
5.986,-0.087
5.987,-0.087
5.988,-0.086
5.989,-0.087
5.990,-0.084
5.991,-0.081
5.992,-0.078
5.993,-0.081
5.994,-0.084
5.995,-0.084
5.996,-0.083
5.997,-0.081
5.998,-0.080
5.999,-0.075
6.000,-0.074
6.001,-0.072
6.002,-0.073
6.003,-0.072
6.004,-0.072
6.005,-0.072
6.006,-0.070
6.007,-0.066
6.008,-0.058
6.009,-0.050
6.010,-0.048
6.011,-0.050
6.012,-0.053
6.013,-0.053
6.014,-0.053
6.015,-0.050
6.016,-0.051
6.017,-0.050
6.018,-0.044
6.019,-0.037
6.020,-0.037
6.021,-0.034
6.022,-0.031
6.023,-0.031
6.024,-0.029
6.025,-0.028
6.026,-0.024
6.027,-0.019
6.028,-0.014
6.029,-0.012
6.030,-0.009
6.031,-0.009
6.032,-0.009
6.033,-0.006
6.034,0.000
6.035,0.006
6.036,0.008
6.037,0.006
6.038,0.012
6.039,0.012
6.040,0.019
6.041,0.022
6.042,0.025
6.043,0.028
6.044,0.030
6.045,0.028
6.046,0.025
6.047,0.028
6.048,0.037
6.049,0.047
6.050,0.046
6.051,0.047
6.052,0.049
6.053,0.047
6.054,0.047
6.055,0.050
6.056,0.056
6.057,0.056
6.058,0.058
6.059,0.059
6.060,0.061
6.061,0.063
6.062,0.066
6.063,0.066
6.064,0.067
6.065,0.069
6.066,0.073
6.067,0.078
6.068,0.075
6.069,0.075
6.070,0.075
6.071,0.075
6.072,0.079
6.073,0.078
6.074,0.079
6.075,0.081
6.076,0.086
6.077,0.088
6.078,0.086
6.079,0.088
6.080,0.083
6.081,0.084
6.082,0.086
6.083,0.084
6.084,0.083
6.085,0.081
6.086,0.088
6.087,0.088
6.088,0.088
6.089,0.088
6.090,0.089
6.091,0.088
6.092,0.086
6.093,0.084
6.094,0.083
6.095,0.084
6.096,0.088
6.097,0.091
6.098,0.091
6.099,0.094
6.100,0.094
6.101,0.094
6.102,0.096
6.103,0.097
6.104,0.095
6.105,0.097
6.106,0.097
6.107,0.100
6.108,0.103
6.109,0.103
6.110,0.103
6.111,0.103
6.112,0.106
6.113,0.106
6.114,0.105
6.115,0.103
6.116,0.113
6.117,0.116
6.118,0.116
6.119,0.119
6.120,0.119
6.121,0.119
6.122,0.119
6.123,0.119
6.124,0.119
6.125,0.119
6.126,0.118
6.127,0.116
6.128,0.116
6.129,0.116
6.130,0.116
6.131,0.119
6.132,0.116
6.133,0.113
6.134,0.106
6.135,0.106
6.136,0.104
6.137,0.106
6.138,0.104
6.139,0.106
6.140,0.103
6.141,0.103
6.142,0.104
6.143,0.100
6.144,0.097
6.145,0.097
6.146,0.094
6.147,0.091
6.148,0.088
6.149,0.084
6.150,0.080
6.151,0.075
6.152,0.071
6.153,0.059
6.154,0.055
6.155,0.050
6.156,0.048
6.157,0.047
6.158,0.044
6.159,0.037
6.160,0.039
6.161,0.037
6.162,0.034
6.163,0.031
6.164,0.028
6.165,0.025
6.166,0.021
6.167,0.022
6.168,0.022
6.169,0.022
6.170,0.019
6.171,0.016
6.172,0.016
6.173,0.012
6.174,0.007
6.175,0.009
6.176,0.006
6.177,0.003
6.178,0.000
6.179,0.000
6.180,-0.003
6.181,-0.009
6.182,-0.009
6.183,-0.009
6.184,-0.008
6.185,-0.006
6.186,-0.009
6.187,-0.009
6.188,-0.012
6.189,-0.012
6.190,-0.016
6.191,-0.022
6.192,-0.021
6.193,-0.019
6.194,-0.021
6.195,-0.016
6.196,-0.016
6.197,-0.022
6.198,-0.025
6.199,-0.025
6.200,-0.022
6.201,-0.022
6.202,-0.021
6.203,-0.022
6.204,-0.025
6.205,-0.031
6.206,-0.027
6.207,-0.028
6.208,-0.028
6.209,-0.028
6.210,-0.022
6.211,-0.019
6.212,-0.019
6.213,-0.019
6.214,-0.022
6.215,-0.025
6.216,-0.027
6.217,-0.025
6.218,-0.024
6.219,-0.022
6.220,-0.022
6.221,-0.022
6.222,-0.023
6.223,-0.028
6.224,-0.028
6.225,-0.028
6.226,-0.031
6.227,-0.031
6.228,-0.028
6.229,-0.025
6.230,-0.025
6.231,-0.025
6.232,-0.029
6.233,-0.028
6.234,-0.032
6.235,-0.034
6.236,-0.036
6.237,-0.037
6.238,-0.041
6.239,-0.044
6.240,-0.041
6.241,-0.037
6.242,-0.039
6.243,-0.041
6.244,-0.044
6.245,-0.047
6.246,-0.042
6.247,-0.044
6.248,-0.041
6.249,-0.041
6.250,-0.044
6.251,-0.047
6.252,-0.047
6.253,-0.044
6.254,-0.042
6.255,-0.041
6.256,-0.039
6.257,-0.041
6.258,-0.037
6.259,-0.037
6.260,-0.044
6.261,-0.050
6.262,-0.046
6.263,-0.047
6.264,-0.046
6.265,-0.044
6.266,-0.045
6.267,-0.047
6.268,-0.051
6.269,-0.053
6.270,-0.053
6.271,-0.053
6.272,-0.052
6.273,-0.053
6.274,-0.053
6.275,-0.053
6.276,-0.057
6.277,-0.059
6.278,-0.059
6.279,-0.062
6.280,-0.064
6.281,-0.062
6.282,-0.059
6.283,-0.056
6.284,-0.057
6.285,-0.059
6.286,-0.061
6.287,-0.062
6.288,-0.067
6.289,-0.066
6.290,-0.069
6.291,-0.069
6.292,-0.066
6.293,-0.066
6.294,-0.061
6.295,-0.056
6.296,-0.049
6.297,-0.041
6.298,-0.034
6.299,-0.031
6.300,-0.025
6.301,-0.019
6.302,-0.005
6.303,0.009
6.304,0.020
6.305,0.028
6.306,0.031
6.307,0.037
6.308,0.041
6.309,0.044
6.310,0.050
6.311,0.050
6.312,0.050
6.313,0.047
6.314,0.046
6.315,0.044
6.316,0.046
6.317,0.050
6.318,0.052
6.319,0.056
6.320,0.058
6.321,0.063
6.322,0.064
6.323,0.069
6.324,0.079
6.325,0.088
6.326,0.096
6.327,0.103
6.328,0.114
6.329,0.125
6.330,0.131
6.331,0.138
6.332,0.142
6.333,0.147
6.334,0.151
6.335,0.153
6.336,0.153
6.337,0.150
6.338,0.149
6.339,0.147
6.340,0.149
6.341,0.147
6.342,0.146
6.343,0.141
6.344,0.142
6.345,0.141
6.346,0.139
6.347,0.134
6.348,0.128
6.349,0.122
6.350,0.114
6.351,0.106
6.352,0.103
6.353,0.100
6.354,0.097
6.355,0.094
6.356,0.089
6.357,0.084
6.358,0.075
6.359,0.063
6.360,0.042
6.361,0.028
6.362,0.016
6.363,0.009
6.364,0.003
6.365,-0.006
6.366,-0.009
6.367,-0.019
6.368,-0.032
6.369,-0.044
6.370,-0.046
6.371,-0.050
6.372,-0.062
6.373,-0.075
6.374,-0.078
6.375,-0.084
6.376,-0.086
6.377,-0.087
6.378,-0.091
6.379,-0.097
6.380,-0.109
6.381,-0.116
6.382,-0.120
6.383,-0.125
6.384,-0.128
6.385,-0.131
6.386,-0.136
6.387,-0.137
6.388,-0.141
6.389,-0.144
6.390,-0.147
6.391,-0.147
6.392,-0.147
6.393,-0.147
6.394,-0.150
6.395,-0.153
6.396,-0.153
6.397,-0.153
6.398,-0.152
6.399,-0.150
6.400,-0.150
6.401,-0.147
6.402,-0.149
6.403,-0.150
6.404,-0.154
6.405,-0.159
6.406,-0.157
6.407,-0.159
6.408,-0.161
6.409,-0.156
6.410,-0.156
6.411,-0.156
6.412,-0.156
6.413,-0.156
6.414,-0.159
6.415,-0.159
6.416,-0.162
6.417,-0.162
6.418,-0.166
6.419,-0.162
6.420,-0.162
6.421,-0.162
6.422,-0.161
6.423,-0.162
6.424,-0.162
6.425,-0.162
6.426,-0.161
6.427,-0.159
6.428,-0.153
6.429,-0.153
6.430,-0.150
6.431,-0.153
6.432,-0.154
6.433,-0.153
6.434,-0.153
6.435,-0.150
6.436,-0.153
6.437,-0.153
6.438,-0.156
6.439,-0.153
6.440,-0.158
6.441,-0.166
6.442,-0.173
6.443,-0.181
6.444,-0.189
6.445,-0.197
6.446,-0.197
6.447,-0.197
6.448,-0.192
6.449,-0.178
6.450,-0.166
6.451,-0.156
6.452,-0.144
6.453,-0.128
6.454,-0.097
6.455,-0.062
6.456,-0.025
6.457,0.012
6.458,0.055
6.459,0.103
6.460,0.163
6.461,0.228
6.462,0.314
6.463,0.400
6.464,0.502
6.465,0.603
6.466,0.713
6.467,0.831
6.468,0.947
6.469,1.063
6.470,1.175
6.471,1.275
6.472,1.358
6.473,1.431
6.474,1.504
6.475,1.563
6.476,1.600
6.477,1.594
6.478,1.542
6.479,1.481
6.480,1.388
6.481,1.284
6.482,1.163
6.483,1.031
6.484,0.877
6.485,0.725
6.486,0.572
6.487,0.425
6.488,0.271
6.489,0.128
6.490,0.017
6.491,-0.069
6.492,-0.109
6.493,-0.134
6.494,-0.137
6.495,-0.131
6.496,-0.127
6.497,-0.125
6.498,-0.126
6.499,-0.125
6.500,-0.125
6.501,-0.119
6.502,-0.116
6.503,-0.112
6.504,-0.109
6.505,-0.112
6.506,-0.107
6.507,-0.106
6.508,-0.105
6.509,-0.100
6.510,-0.097
6.511,-0.094
6.512,-0.096
6.513,-0.097
6.514,-0.101
6.515,-0.106
6.516,-0.109
6.517,-0.109
6.518,-0.112
6.519,-0.112
6.520,-0.114
6.521,-0.116
6.522,-0.116
6.523,-0.116
6.524,-0.119
6.525,-0.119
6.526,-0.119
6.527,-0.119
6.528,-0.119
6.529,-0.119
6.530,-0.122
6.531,-0.122
6.532,-0.122
6.533,-0.122
6.534,-0.121
6.535,-0.119
6.536,-0.121
6.537,-0.116
6.538,-0.116
6.539,-0.122
6.540,-0.122
6.541,-0.122
6.542,-0.121
6.543,-0.119
6.544,-0.119
6.545,-0.119
6.546,-0.119
6.547,-0.119
6.548,-0.117
6.549,-0.119
6.550,-0.119
6.551,-0.119
6.552,-0.117
6.553,-0.112
6.554,-0.114
6.555,-0.116
6.556,-0.117
6.557,-0.119
6.558,-0.120
6.559,-0.119
6.560,-0.117
6.561,-0.112
6.562,-0.112
6.563,-0.112
6.564,-0.114
6.565,-0.116
6.566,-0.117
6.567,-0.119
6.568,-0.116
6.569,-0.116
6.570,-0.111
6.571,-0.109
6.572,-0.112
6.573,-0.112
6.574,-0.111
6.575,-0.106
6.576,-0.102
6.577,-0.100
6.578,-0.096
6.579,-0.094
6.580,-0.095
6.581,-0.100
6.582,-0.098
6.583,-0.100
6.584,-0.099
6.585,-0.097
6.586,-0.097
6.587,-0.097
6.588,-0.094
6.589,-0.097
6.590,-0.097
6.591,-0.094
6.592,-0.092
6.593,-0.094
6.594,-0.091
6.595,-0.087
6.596,-0.089
6.597,-0.087
6.598,-0.087
6.599,-0.087
6.600,-0.089
6.601,-0.091
6.602,-0.087
6.603,-0.087
6.604,-0.086
6.605,-0.087
6.606,-0.089
6.607,-0.087
6.608,-0.087
6.609,-0.087
6.610,-0.087
6.611,-0.087
6.612,-0.091
6.613,-0.091
6.614,-0.089
6.615,-0.087
6.616,-0.087
6.617,-0.084
6.618,-0.084
6.619,-0.081
6.620,-0.078
6.621,-0.078
6.622,-0.081
6.623,-0.084
6.624,-0.081
6.625,-0.081
6.626,-0.080
6.627,-0.078
6.628,-0.076
6.629,-0.078
6.630,-0.081
6.631,-0.081
6.632,-0.076
6.633,-0.078
6.634,-0.077
6.635,-0.072
6.636,-0.072
6.637,-0.072
6.638,-0.070
6.639,-0.072
6.640,-0.069
6.641,-0.069
6.642,-0.067
6.643,-0.066
6.644,-0.061
6.645,-0.059
6.646,-0.055
6.647,-0.050
6.648,-0.049
6.649,-0.044
6.650,-0.042
6.651,-0.041
6.652,-0.041
6.653,-0.041
6.654,-0.041
6.655,-0.034
6.656,-0.028
6.657,-0.025
6.658,-0.022
6.659,-0.019
6.660,-0.019
6.661,-0.019
6.662,-0.019
6.663,-0.012
6.664,-0.009
6.665,0.000
6.666,0.003
6.667,0.006
6.668,0.009
6.669,0.012
6.670,0.011
6.671,0.009
6.672,0.016
6.673,0.019
6.674,0.023
6.675,0.025
6.676,0.025
6.677,0.025
6.678,0.026
6.679,0.028
6.680,0.032
6.681,0.041
6.682,0.041
6.683,0.044
6.684,0.047
6.685,0.047
6.686,0.048
6.687,0.053
6.688,0.053
6.689,0.053
6.690,0.052
6.691,0.053
6.692,0.058
6.693,0.059
6.694,0.061
6.695,0.059
6.696,0.058
6.697,0.059
6.698,0.056
6.699,0.056
6.700,0.055
6.701,0.056
6.702,0.056
6.703,0.056
6.704,0.059
6.705,0.056
6.706,0.056
6.707,0.056
6.708,0.056
6.709,0.056
6.710,0.056
6.711,0.059
6.712,0.058
6.713,0.059
6.714,0.059
6.715,0.063
6.716,0.063
6.717,0.063
6.718,0.061
6.719,0.059
6.720,0.063
6.721,0.063
6.722,0.064
6.723,0.066
6.724,0.069
6.725,0.069
6.726,0.066
6.727,0.066
6.728,0.069
6.729,0.066
6.730,0.066
6.731,0.066
6.732,0.070
6.733,0.075
6.734,0.075
6.735,0.075
6.736,0.074
6.737,0.075
6.738,0.075
6.739,0.075
6.740,0.072
6.741,0.075
6.742,0.078
6.743,0.081
6.744,0.083
6.745,0.081
6.746,0.081
6.747,0.081
6.748,0.081
6.749,0.081
6.750,0.081
6.751,0.081
6.752,0.081
6.753,0.081
6.754,0.083
6.755,0.081
6.756,0.083
6.757,0.084
6.758,0.083
6.759,0.078
6.760,0.080
6.761,0.075
6.762,0.075
6.763,0.072
6.764,0.073
6.765,0.072
6.766,0.073
6.767,0.075
6.768,0.069
6.769,0.066
6.770,0.066
6.771,0.063
6.772,0.058
6.773,0.053
6.774,0.053
6.775,0.053
6.776,0.049
6.777,0.047
6.778,0.039
6.779,0.034
6.780,0.030
6.781,0.025
6.782,0.022
6.783,0.019
6.784,0.012
6.785,0.012
6.786,0.012
6.787,0.012
6.788,0.006
6.789,0.000
6.790,0.000
6.791,0.000
6.792,0.003
6.793,0.000
6.794,0.000
6.795,0.000
6.796,-0.009
6.797,-0.016
6.798,-0.019
6.799,-0.025
6.800,-0.025
6.801,-0.028
6.802,-0.028
6.803,-0.028
6.804,-0.029
6.805,-0.031
6.806,-0.033
6.807,-0.034
6.808,-0.041
6.809,-0.044
6.810,-0.044
6.811,-0.047
6.812,-0.046
6.813,-0.047
6.814,-0.046
6.815,-0.044
6.816,-0.051
6.817,-0.056
6.818,-0.053
6.819,-0.053
6.820,-0.051
6.821,-0.053
6.822,-0.056
6.823,-0.056
6.824,-0.056
6.825,-0.056
6.826,-0.059
6.827,-0.059
6.828,-0.059
6.829,-0.056
6.830,-0.059
6.831,-0.056
6.832,-0.062
6.833,-0.066
6.834,-0.066
6.835,-0.066
6.836,-0.067
6.837,-0.066
6.838,-0.067
6.839,-0.069
6.840,-0.067
6.841,-0.069
6.842,-0.069
6.843,-0.069
6.844,-0.070
6.845,-0.072
6.846,-0.072
6.847,-0.072
6.848,-0.075
6.849,-0.075
6.850,-0.076
6.851,-0.081
6.852,-0.082
6.853,-0.084
6.854,-0.084
6.855,-0.084
6.856,-0.081
6.857,-0.081
6.858,-0.079
6.859,-0.084
6.860,-0.084
6.861,-0.084
6.862,-0.086
6.863,-0.087
6.864,-0.086
6.865,-0.084
6.866,-0.084
6.867,-0.084
6.868,-0.086
6.869,-0.087
6.870,-0.087
6.871,-0.087
6.872,-0.084
6.873,-0.087
6.874,-0.091
6.875,-0.097
6.876,-0.100
6.877,-0.103
6.878,-0.105
6.879,-0.103
6.880,-0.100
6.881,-0.097
6.882,-0.096
6.883,-0.097
6.884,-0.094
6.885,-0.094
6.886,-0.100
6.887,-0.106
6.888,-0.104
6.889,-0.109
6.890,-0.111
6.891,-0.112
6.892,-0.112
6.893,-0.112
6.894,-0.116
6.895,-0.116
6.896,-0.112
6.897,-0.109
6.898,-0.111
6.899,-0.116
6.900,-0.117
6.901,-0.119
6.902,-0.121
6.903,-0.119
6.904,-0.114
6.905,-0.112
6.906,-0.117
6.907,-0.119
6.908,-0.119
6.909,-0.119
6.910,-0.119
6.911,-0.119
6.912,-0.119
6.913,-0.119
6.914,-0.123
6.915,-0.122
6.916,-0.123
6.917,-0.122
6.918,-0.114
6.919,-0.109
6.920,-0.103
6.921,-0.097
6.922,-0.094
6.923,-0.091
6.924,-0.082
6.925,-0.078
6.926,-0.069
6.927,-0.059
6.928,-0.050
6.929,-0.041
6.930,-0.034
6.931,-0.031
6.932,-0.025
6.933,-0.016
6.934,-0.012
6.935,-0.009
6.936,-0.002
6.937,0.000
6.938,-0.002
6.939,-0.006
6.940,-0.009
6.941,-0.012
6.942,-0.011
6.943,-0.006
6.944,-0.004
6.945,0.000
6.946,0.002
6.947,0.006
6.948,0.008
6.949,0.012
6.950,0.025
6.951,0.034
6.952,0.045
6.953,0.056
6.954,0.067
6.955,0.078
6.956,0.084
6.957,0.091
6.958,0.094
6.959,0.097
6.960,0.097
6.961,0.094
6.962,0.095
6.963,0.094
6.964,0.095
6.965,0.097
6.966,0.099
6.967,0.097
6.968,0.098
6.969,0.097
6.970,0.095
6.971,0.091
6.972,0.081
6.973,0.069
6.974,0.061
6.975,0.053
6.976,0.051
6.977,0.050
6.978,0.048
6.979,0.047
6.980,0.045
6.981,0.044
6.982,0.033
6.983,0.022
6.984,0.014
6.985,0.003
6.986,-0.012
6.987,-0.022
6.988,-0.036
6.989,-0.044
6.990,-0.051
6.991,-0.062
6.992,-0.067
6.993,-0.078
6.994,-0.089
6.995,-0.097
6.996,-0.103
6.997,-0.112
6.998,-0.122
6.999,-0.131
7.000,-0.134
7.001,-0.141
7.002,-0.144
7.003,-0.147
7.004,-0.150
7.005,-0.156
7.006,-0.169
7.007,-0.175
7.008,-0.178
7.009,-0.181
7.010,-0.184
7.011,-0.188
7.012,-0.195
7.013,-0.200
7.014,-0.200
7.015,-0.200
7.016,-0.203
7.017,-0.203
7.018,-0.202
7.019,-0.200
7.020,-0.200
7.021,-0.200
7.022,-0.200
7.023,-0.200
7.024,-0.199
7.025,-0.197
7.026,-0.200
7.027,-0.200
7.028,-0.204
7.029,-0.209
7.030,-0.211
7.031,-0.213
7.032,-0.209
7.033,-0.209
7.034,-0.211
7.035,-0.206
7.036,-0.208
7.037,-0.209
7.038,-0.208
7.039,-0.206
7.040,-0.209
7.041,-0.209
7.042,-0.208
7.043,-0.203
7.044,-0.206
7.045,-0.203
7.046,-0.202
7.047,-0.200
7.048,-0.198
7.049,-0.200
7.050,-0.203
7.051,-0.206
7.052,-0.206
7.053,-0.206
7.054,-0.200
7.055,-0.200
7.056,-0.194
7.057,-0.194
7.058,-0.195
7.059,-0.194
7.060,-0.195
7.061,-0.194
7.062,-0.196
7.063,-0.194
7.064,-0.199
7.065,-0.197
7.066,-0.200
7.067,-0.206
7.068,-0.216
7.069,-0.225
7.070,-0.233
7.071,-0.241
7.072,-0.239
7.073,-0.238
7.074,-0.231
7.075,-0.216
7.076,-0.199
7.077,-0.184
7.078,-0.161
7.079,-0.134
7.080,-0.104
7.081,-0.072
7.082,-0.034
7.083,0.003
7.084,0.049
7.085,0.100
7.086,0.168
7.087,0.241
7.088,0.330
7.089,0.419
7.090,0.526
7.091,0.634
7.092,0.741
7.093,0.856
7.094,0.973
7.095,1.091
7.096,1.198
7.097,1.294
7.098,1.367
7.099,1.431
7.100,1.492
7.101,1.538
7.102,1.554
7.103,1.528
7.104,1.459
7.105,1.381
7.106,1.275
7.107,1.159
7.108,1.031
7.109,0.894
7.110,0.736
7.111,0.581
7.112,0.431
7.113,0.287
7.114,0.149
7.115,0.022
7.116,-0.070
7.117,-0.137
7.118,-0.164
7.119,-0.175
7.120,-0.178
7.121,-0.172
7.122,-0.167
7.123,-0.166
7.124,-0.167
7.125,-0.166
7.126,-0.169
7.127,-0.166
7.128,-0.159
7.129,-0.153
7.130,-0.147
7.131,-0.147
7.132,-0.144
7.133,-0.144
7.134,-0.147
7.135,-0.147
7.136,-0.146
7.137,-0.144
7.138,-0.146
7.139,-0.147
7.140,-0.147
7.141,-0.147
7.142,-0.150
7.143,-0.150
7.144,-0.153
7.145,-0.153
7.146,-0.154
7.147,-0.156
7.148,-0.159
7.149,-0.162
7.150,-0.166
7.151,-0.166
7.152,-0.166
7.153,-0.166
7.154,-0.164
7.155,-0.162
7.156,-0.162
7.157,-0.159
7.158,-0.159
7.159,-0.159
7.160,-0.159
7.161,-0.159
7.162,-0.164
7.163,-0.162
7.164,-0.158
7.165,-0.159
7.166,-0.159
7.167,-0.159
7.168,-0.161
7.169,-0.162
7.170,-0.162
7.171,-0.162
7.172,-0.162
7.173,-0.162
7.174,-0.161
7.175,-0.162
7.176,-0.162
7.177,-0.162
7.178,-0.164
7.179,-0.162
7.180,-0.162
7.181,-0.162
7.182,-0.158
7.183,-0.153
7.184,-0.153
7.185,-0.150
7.186,-0.151
7.187,-0.150
7.188,-0.151
7.189,-0.153
7.190,-0.154
7.191,-0.156
7.192,-0.153
7.193,-0.150
7.194,-0.142
7.195,-0.137
7.196,-0.136
7.197,-0.137
7.198,-0.139
7.199,-0.137
7.200,-0.141
7.201,-0.141
7.202,-0.141
7.203,-0.144
7.204,-0.137
7.205,-0.134
7.206,-0.131
7.207,-0.131
7.208,-0.127
7.209,-0.125
7.210,-0.125
7.211,-0.125
7.212,-0.125
7.213,-0.125
7.214,-0.121
7.215,-0.122
7.216,-0.123
7.217,-0.122
7.218,-0.121
7.219,-0.122
7.220,-0.122
7.221,-0.122
7.222,-0.125
7.223,-0.125
7.224,-0.125
7.225,-0.125
7.226,-0.126
7.227,-0.128
7.228,-0.122
7.229,-0.119
7.230,-0.117
7.231,-0.119
7.232,-0.122
7.233,-0.122
7.234,-0.122
7.235,-0.122
7.236,-0.122
7.237,-0.122
7.238,-0.123
7.239,-0.122
7.240,-0.122
7.241,-0.122
7.242,-0.121
7.243,-0.116
7.244,-0.116
7.245,-0.112
7.246,-0.109
7.247,-0.109
7.248,-0.111
7.249,-0.112
7.250,-0.108
7.251,-0.106
7.252,-0.106
7.253,-0.106
7.254,-0.102
7.255,-0.100
7.256,-0.100
7.257,-0.097
7.258,-0.094
7.259,-0.097
7.260,-0.100
7.261,-0.100
7.262,-0.099
7.263,-0.097
7.264,-0.091
7.265,-0.087
7.266,-0.086
7.267,-0.087
7.268,-0.084
7.269,-0.081
7.270,-0.077
7.271,-0.075
7.272,-0.073
7.273,-0.072
7.274,-0.072
7.275,-0.069
7.276,-0.064
7.277,-0.059
7.278,-0.059
7.279,-0.059
7.280,-0.055
7.281,-0.044
7.282,-0.041
7.283,-0.041
7.284,-0.041
7.285,-0.041
7.286,-0.037
7.287,-0.034
7.288,-0.034
7.289,-0.028
7.290,-0.027
7.291,-0.019
7.292,-0.016
7.293,-0.012
7.294,-0.012
7.295,-0.012
7.296,-0.011
7.297,-0.009
7.298,-0.003
7.299,0.000
7.300,0.004
7.301,0.006
7.302,0.008
7.303,0.009
7.304,0.012
7.305,0.016
7.306,0.020
7.307,0.028
7.308,0.027
7.309,0.028
7.310,0.030
7.311,0.028
7.312,0.028
7.313,0.031
7.314,0.031
7.315,0.031
7.316,0.028
7.317,0.028
7.318,0.031
7.319,0.031
7.320,0.039
7.321,0.044
7.322,0.042
7.323,0.044
7.324,0.044
7.325,0.047
7.326,0.046
7.327,0.047
7.328,0.046
7.329,0.044
7.330,0.047
7.331,0.044
7.332,0.050
7.333,0.056
7.334,0.058
7.335,0.059
7.336,0.058
7.337,0.059
7.338,0.055
7.339,0.053
7.340,0.052
7.341,0.053
7.342,0.054
7.343,0.056
7.344,0.056
7.345,0.056
7.346,0.058
7.347,0.056
7.348,0.056
7.349,0.056
7.350,0.058
7.351,0.056
7.352,0.055
7.353,0.056
7.354,0.059
7.355,0.056
7.356,0.061
7.357,0.066
7.358,0.068
7.359,0.069
7.360,0.069
7.361,0.069
7.362,0.068
7.363,0.069
7.364,0.073
7.365,0.078
7.366,0.075
7.367,0.078
7.368,0.078
7.369,0.078
7.370,0.080
7.371,0.078
7.372,0.078
7.373,0.078
7.374,0.078
7.375,0.078
7.376,0.081
7.377,0.084
7.378,0.081
7.379,0.078
7.380,0.079
7.381,0.078
7.382,0.078
7.383,0.078
7.384,0.079
7.385,0.078
7.386,0.081
7.387,0.078
7.388,0.078
7.389,0.075
7.390,0.074
7.391,0.069
7.392,0.068
7.393,0.066
7.394,0.061
7.395,0.059
7.396,0.058
7.397,0.053
7.398,0.050
7.399,0.047
7.400,0.044
7.401,0.041
7.402,0.037
7.403,0.037
7.404,0.032
7.405,0.031
7.406,0.028
7.407,0.025
7.408,0.022
7.409,0.019
7.410,0.011
7.411,0.009
7.412,0.009
7.413,0.009
7.414,0.006
7.415,0.003
7.416,-0.004
7.417,-0.012
7.418,-0.011
7.419,-0.016
7.420,-0.014
7.421,-0.012
7.422,-0.017
7.423,-0.019
7.424,-0.017
7.425,-0.019
7.426,-0.017
7.427,-0.019
7.428,-0.023
7.429,-0.028
7.430,-0.028
7.431,-0.028
7.432,-0.031
7.433,-0.034
7.434,-0.037
7.435,-0.037
7.436,-0.036
7.437,-0.037
7.438,-0.036
7.439,-0.037
7.440,-0.041
7.441,-0.044
7.442,-0.047
7.443,-0.047
7.444,-0.048
7.445,-0.053
7.446,-0.050
7.447,-0.050
7.448,-0.053
7.449,-0.053
7.450,-0.053
7.451,-0.053
7.452,-0.056
7.453,-0.056
7.454,-0.058
7.455,-0.056
7.456,-0.059
7.457,-0.056
7.458,-0.058
7.459,-0.056
7.460,-0.056
7.461,-0.056
7.462,-0.059
7.463,-0.059
7.464,-0.059
7.465,-0.059
7.466,-0.061
7.467,-0.066
7.468,-0.069
7.469,-0.072
7.470,-0.071
7.471,-0.069
7.472,-0.067
7.473,-0.066
7.474,-0.069
7.475,-0.069
7.476,-0.067
7.477,-0.069
7.478,-0.070
7.479,-0.072
7.480,-0.069
7.481,-0.066
7.482,-0.067
7.483,-0.072
7.484,-0.069
7.485,-0.072
7.486,-0.072
7.487,-0.072
7.488,-0.073
7.489,-0.078
7.490,-0.077
7.491,-0.075
7.492,-0.074
7.493,-0.072
7.494,-0.072
7.495,-0.072
7.496,-0.069
7.497,-0.069
7.498,-0.078
7.499,-0.084
7.500,-0.086
7.501,-0.084
7.502,-0.087
7.503,-0.087
7.504,-0.086
7.505,-0.081
7.506,-0.081
7.507,-0.084
7.508,-0.086
7.509,-0.087
7.510,-0.086
7.511,-0.084
7.512,-0.089
7.513,-0.087
7.514,-0.087
7.515,-0.091
7.516,-0.094
7.517,-0.091
7.518,-0.097
7.519,-0.100
7.520,-0.100
7.521,-0.100
7.522,-0.099
7.523,-0.100
7.524,-0.100
7.525,-0.100
7.526,-0.099
7.527,-0.097
7.528,-0.101
7.529,-0.103
7.530,-0.103
7.531,-0.106
7.532,-0.106
7.533,-0.103
7.534,-0.102
7.535,-0.103
7.536,-0.103
7.537,-0.103
7.538,-0.103
7.539,-0.103
7.540,-0.103
7.541,-0.103
7.542,-0.106
7.543,-0.112
7.544,-0.106
7.545,-0.103
7.546,-0.103
7.547,-0.103
7.548,-0.102
7.549,-0.094
7.550,-0.087
7.551,-0.081
7.552,-0.074
7.553,-0.062
7.554,-0.061
7.555,-0.056
7.556,-0.047
7.557,-0.037
7.558,-0.027
7.559,-0.016
7.560,-0.005
7.561,0.003
7.562,0.011
7.563,0.016
7.564,0.016
7.565,0.019
7.566,0.022
7.567,0.022
7.568,0.016
7.569,0.016
7.570,0.011
7.571,0.009
7.572,0.012
7.573,0.012
7.574,0.019
7.575,0.022
7.576,0.029
7.577,0.034
7.578,0.041
7.579,0.050
7.580,0.058
7.581,0.069
7.582,0.077
7.583,0.084
7.584,0.093
7.585,0.097
7.586,0.104
7.587,0.109
7.588,0.117
7.589,0.122
7.590,0.122
7.591,0.125
7.592,0.122
7.593,0.122
7.594,0.119
7.595,0.119
7.596,0.118
7.597,0.116
7.598,0.114
7.599,0.113
7.600,0.109
7.601,0.106
7.602,0.093
7.603,0.081
7.604,0.079
7.605,0.081
7.606,0.078
7.607,0.075
7.608,0.071
7.609,0.066
7.610,0.066
7.611,0.059
7.612,0.050
7.613,0.041
7.614,0.025
7.615,0.006
7.616,-0.003
7.617,-0.016
7.618,-0.022
7.619,-0.028
7.620,-0.037
7.621,-0.041
7.622,-0.047
7.623,-0.056
7.624,-0.070
7.625,-0.081
7.626,-0.092
7.627,-0.100
7.628,-0.106
7.629,-0.109
7.630,-0.114
7.631,-0.119
7.632,-0.125
7.633,-0.128
7.634,-0.134
7.635,-0.144
7.636,-0.150
7.637,-0.156
7.638,-0.156
7.639,-0.156
7.640,-0.158
7.641,-0.162
7.642,-0.167
7.643,-0.169
7.644,-0.170
7.645,-0.175
7.646,-0.174
7.647,-0.172
7.648,-0.171
7.649,-0.169
7.650,-0.170
7.651,-0.172
7.652,-0.173
7.653,-0.175
7.654,-0.174
7.655,-0.175
7.656,-0.172
7.657,-0.172
7.658,-0.176
7.659,-0.178
7.660,-0.179
7.661,-0.178
7.662,-0.177
7.663,-0.178
7.664,-0.176
7.665,-0.178
7.666,-0.178
7.667,-0.178
7.668,-0.177
7.669,-0.178
7.670,-0.178
7.671,-0.178
7.672,-0.176
7.673,-0.181
7.674,-0.179
7.675,-0.181
7.676,-0.178
7.677,-0.172
7.678,-0.173
7.679,-0.175
7.680,-0.176
7.681,-0.178
7.682,-0.178
7.683,-0.175
7.684,-0.179
7.685,-0.178
7.686,-0.180
7.687,-0.178
7.688,-0.176
7.689,-0.178
7.690,-0.175
7.691,-0.178
7.692,-0.175
7.693,-0.178
7.694,-0.172
7.695,-0.172
7.696,-0.180
7.697,-0.184
7.698,-0.197
7.699,-0.206
7.700,-0.214
7.701,-0.213
7.702,-0.208
7.703,-0.200
7.704,-0.184
7.705,-0.172
7.706,-0.166
7.707,-0.147
7.708,-0.125
7.709,-0.094
7.710,-0.056
7.711,-0.016
7.712,0.022
7.713,0.069
7.714,0.118
7.715,0.178
7.716,0.253
7.717,0.341
7.718,0.427
7.719,0.525
7.720,0.633
7.721,0.737
7.722,0.858
7.723,0.972
7.724,1.091
7.725,1.200
7.726,1.297
7.727,1.378
7.728,1.442
7.729,1.497
7.730,1.554
7.731,1.569
7.732,1.542
7.733,1.491
7.734,1.411
7.735,1.309
7.736,1.201
7.737,1.081
7.738,0.945
7.739,0.800
7.740,0.634
7.741,0.481
7.742,0.333
7.743,0.194
7.744,0.058
7.745,-0.034
7.746,-0.094
7.747,-0.131
7.748,-0.142
7.749,-0.147
7.750,-0.137
7.751,-0.137
7.752,-0.137
7.753,-0.137
7.754,-0.136
7.755,-0.137
7.756,-0.132
7.757,-0.131
7.758,-0.127
7.759,-0.119
7.760,-0.119
7.761,-0.112
7.762,-0.108
7.763,-0.106
7.764,-0.103
7.765,-0.103
7.766,-0.102
7.767,-0.103
7.768,-0.111
7.769,-0.116
7.770,-0.114
7.771,-0.119
7.772,-0.121
7.773,-0.122
7.774,-0.123
7.775,-0.125
7.776,-0.129
7.777,-0.134
7.778,-0.131
7.779,-0.131
7.780,-0.127
7.781,-0.122
7.782,-0.122
7.783,-0.122
7.784,-0.122
7.785,-0.122
7.786,-0.120
7.787,-0.122
7.788,-0.123
7.789,-0.125
7.790,-0.125
7.791,-0.128
7.792,-0.126
7.793,-0.125
7.794,-0.125
7.795,-0.122
7.796,-0.123
7.797,-0.125
7.798,-0.125
7.799,-0.125
7.800,-0.125
7.801,-0.125
7.802,-0.124
7.803,-0.119
7.804,-0.119
7.805,-0.119
7.806,-0.120
7.807,-0.122
7.808,-0.120
7.809,-0.122
7.810,-0.122
7.811,-0.122
7.812,-0.122
7.813,-0.122
7.814,-0.119
7.815,-0.119
7.816,-0.117
7.817,-0.119
7.818,-0.119
7.819,-0.119
7.820,-0.119
7.821,-0.119
7.822,-0.116
7.823,-0.109
7.824,-0.111
7.825,-0.109
7.826,-0.109
7.827,-0.109
7.828,-0.107
7.829,-0.109
7.830,-0.106
7.831,-0.106
7.832,-0.109
7.833,-0.106
7.834,-0.107
7.835,-0.106
7.836,-0.106
7.837,-0.103
7.838,-0.103
7.839,-0.103
7.840,-0.099
7.841,-0.094
7.842,-0.094
7.843,-0.091
7.844,-0.094
7.845,-0.094
7.846,-0.089
7.847,-0.087
7.848,-0.094
7.849,-0.094
7.850,-0.089
7.851,-0.091
7.852,-0.092
7.853,-0.094
7.854,-0.094
7.855,-0.094
7.856,-0.095
7.857,-0.094
7.858,-0.092
7.859,-0.091
7.860,-0.095
7.861,-0.097
7.862,-0.094
7.863,-0.094
7.864,-0.089
7.865,-0.084
7.866,-0.086
7.867,-0.087
7.868,-0.083
7.869,-0.081
7.870,-0.080
7.871,-0.078
7.872,-0.076
7.873,-0.081
7.874,-0.086
7.875,-0.087
7.876,-0.086
7.877,-0.084
7.878,-0.086
7.879,-0.084
7.880,-0.080
7.881,-0.075
7.882,-0.076
7.883,-0.075
7.884,-0.074
7.885,-0.072
7.886,-0.070
7.887,-0.066
7.888,-0.064
7.889,-0.062
7.890,-0.061
7.891,-0.062
7.892,-0.064
7.893,-0.062
7.894,-0.059
7.895,-0.053
7.896,-0.052
7.897,-0.047
7.898,-0.047
7.899,-0.047
7.900,-0.048
7.901,-0.047
7.902,-0.041
7.903,-0.037
7.904,-0.036
7.905,-0.034
7.906,-0.034
7.907,-0.034
7.908,-0.034
7.909,-0.037
7.910,-0.031
7.911,-0.028
7.912,-0.022
7.913,-0.012
7.914,-0.008
7.915,-0.003
7.916,-0.003
7.917,-0.006
7.918,-0.003
7.919,-0.006
7.920,-0.001
7.921,0.000
7.922,0.004
7.923,0.009
7.924,0.012
7.925,0.012
7.926,0.011
7.927,0.016
7.928,0.020
7.929,0.025
7.930,0.024
7.931,0.025
7.932,0.032
7.933,0.037
7.934,0.033
7.935,0.031
7.936,0.037
7.937,0.037
7.938,0.039
7.939,0.041
7.940,0.042
7.941,0.044
7.942,0.047
7.943,0.047
7.944,0.050
7.945,0.053
7.946,0.055
7.947,0.056
7.948,0.055
7.949,0.056
7.950,0.058
7.951,0.059
7.952,0.063
7.953,0.059
7.954,0.061
7.955,0.063
7.956,0.064
7.957,0.063
7.958,0.063
7.959,0.066
7.960,0.061
7.961,0.063
7.962,0.066
7.963,0.066
7.964,0.066
7.965,0.066
7.966,0.070
7.967,0.069
7.968,0.072
7.969,0.075
7.970,0.079
7.971,0.081
7.972,0.078
7.973,0.075
7.974,0.074
7.975,0.075
7.976,0.072
7.977,0.069
7.978,0.068
7.979,0.069
7.980,0.070
7.981,0.072
7.982,0.078
7.983,0.084
7.984,0.083
7.985,0.084
7.986,0.083
7.987,0.084
7.988,0.088
7.989,0.088
7.990,0.084
7.991,0.081
7.992,0.084
7.993,0.084
7.994,0.084
7.995,0.084
7.996,0.088
7.997,0.084
7.998,0.086
7.999,0.091
8.000,0.092
8.001,0.094
8.002,0.094
8.003,0.094
8.004,0.093
8.005,0.091
8.006,0.092
8.007,0.094
8.008,0.094
8.009,0.094
8.010,0.089
8.011,0.088
8.012,0.088
8.013,0.088
8.014,0.086
8.015,0.091
8.016,0.089
8.017,0.091
8.018,0.086
8.019,0.084
8.020,0.080
8.021,0.078
8.022,0.081
8.023,0.078
8.024,0.071
8.025,0.066
8.026,0.066
8.027,0.066
8.028,0.064
8.029,0.063
8.030,0.063
8.031,0.063
8.032,0.059
8.033,0.050
8.034,0.042
8.035,0.034
8.036,0.032
8.037,0.031
8.038,0.029
8.039,0.025
8.040,0.025
8.041,0.022
8.042,0.017
8.043,0.012
8.044,0.012
8.045,0.012
8.046,0.006
8.047,0.006
8.048,0.002
8.049,-0.003
8.050,-0.009
8.051,-0.016
8.052,-0.012
8.053,-0.012
8.054,-0.017
8.055,-0.016
8.056,-0.016
8.057,-0.016
8.058,-0.023
8.059,-0.028
8.060,-0.025
8.061,-0.025
8.062,-0.027
8.063,-0.028
8.064,-0.028
8.065,-0.028
8.066,-0.034
8.067,-0.037
8.068,-0.039
8.069,-0.037
8.070,-0.036
8.071,-0.037
8.072,-0.036
8.073,-0.034
8.074,-0.042
8.075,-0.044
8.076,-0.042
8.077,-0.047
8.078,-0.049
8.079,-0.047
8.080,-0.044
8.081,-0.044
8.082,-0.044
8.083,-0.047
8.084,-0.048
8.085,-0.053
8.086,-0.054
8.087,-0.062
8.088,-0.062
8.089,-0.062
8.090,-0.058
8.091,-0.056
8.092,-0.056
8.093,-0.056
8.094,-0.056
8.095,-0.056
8.096,-0.058
8.097,-0.056
8.098,-0.057
8.099,-0.059
8.100,-0.059
8.101,-0.059
8.102,-0.061
8.103,-0.066
8.104,-0.066
8.105,-0.066
8.106,-0.069
8.107,-0.069
8.108,-0.069
8.109,-0.069
8.110,-0.067
8.111,-0.066
8.112,-0.070
8.113,-0.069
8.114,-0.072
8.115,-0.072
8.116,-0.071
8.117,-0.069
8.118,-0.072
8.119,-0.072
8.120,-0.072
8.121,-0.072
8.122,-0.071
8.123,-0.069
8.124,-0.072
8.125,-0.072
8.126,-0.071
8.127,-0.069
8.128,-0.070
8.129,-0.075
8.130,-0.077
8.131,-0.075
8.132,-0.078
8.133,-0.078
8.134,-0.081
8.135,-0.081
8.136,-0.083
8.137,-0.081
8.138,-0.080
8.139,-0.081
8.140,-0.084
8.141,-0.087
8.142,-0.087
8.143,-0.087
8.144,-0.092
8.145,-0.091
8.146,-0.087
8.147,-0.087
8.148,-0.092
8.149,-0.091
8.150,-0.094
8.151,-0.094
8.152,-0.095
8.153,-0.097
8.154,-0.094
8.155,-0.094
8.156,-0.092
8.157,-0.091
8.158,-0.091
8.159,-0.091
8.160,-0.094
8.161,-0.094
8.162,-0.094
8.163,-0.097
8.164,-0.097
8.165,-0.094
8.166,-0.091
8.167,-0.091
8.168,-0.094
8.169,-0.097
8.170,-0.098
8.171,-0.100
8.172,-0.100
8.173,-0.100
8.174,-0.097
8.175,-0.097
8.176,-0.094
8.177,-0.094
8.178,-0.091
8.179,-0.087
8.180,-0.086
8.181,-0.078
8.182,-0.072
8.183,-0.066
8.184,-0.059
8.185,-0.050
8.186,-0.041
8.187,-0.028
8.188,-0.017
8.189,-0.006
8.190,-0.003
8.191,0.000
8.192,0.007
8.193,0.012
8.194,0.017
8.195,0.019
8.196,0.017
8.197,0.019
8.198,0.022
8.199,0.022
8.200,0.016
8.201,0.016
8.202,0.016
8.203,0.019
8.204,0.025
8.205,0.028
8.206,0.037
8.207,0.044
8.208,0.047
8.209,0.047
8.210,0.052
8.211,0.059
8.212,0.066
8.213,0.075
8.214,0.086
8.215,0.097
8.216,0.108
8.217,0.116
8.218,0.123
8.219,0.128
8.220,0.130
8.221,0.128
8.222,0.124
8.223,0.122
8.224,0.120
8.225,0.122
8.226,0.121
8.227,0.122
8.228,0.122
8.229,0.122
8.230,0.122
8.231,0.122
8.232,0.114
8.233,0.106
8.234,0.098
8.235,0.094
8.236,0.084
8.237,0.078
8.238,0.076
8.239,0.075
8.240,0.075
8.241,0.075
8.242,0.072
8.243,0.063
8.244,0.052
8.245,0.041
8.246,0.031
8.247,0.019
8.248,0.009
8.249,-0.003
8.250,-0.008
8.251,-0.012
8.252,-0.023
8.253,-0.028
8.254,-0.037
8.255,-0.050
8.256,-0.059
8.257,-0.066
8.258,-0.076
8.259,-0.084
8.260,-0.086
8.261,-0.084
8.262,-0.092
8.263,-0.100
8.264,-0.107
8.265,-0.112
8.266,-0.117
8.267,-0.125
8.268,-0.128
8.269,-0.131
8.270,-0.134
8.271,-0.137
8.272,-0.139
8.273,-0.144
8.274,-0.151
8.275,-0.156
8.276,-0.156
8.277,-0.159
8.278,-0.155
8.279,-0.150
8.280,-0.149
8.281,-0.147
8.282,-0.150
8.283,-0.153
8.284,-0.154
8.285,-0.156
8.286,-0.155
8.287,-0.156
8.288,-0.156
8.289,-0.159
8.290,-0.162
8.291,-0.162
8.292,-0.162
8.293,-0.159
8.294,-0.158
8.295,-0.159
8.296,-0.156
8.297,-0.156
8.298,-0.156
8.299,-0.156
8.300,-0.157
8.301,-0.162
8.302,-0.162
8.303,-0.162
8.304,-0.159
8.305,-0.162
8.306,-0.161
8.307,-0.162
8.308,-0.162
8.309,-0.159
8.310,-0.159
8.311,-0.159
8.312,-0.161
8.313,-0.162
8.314,-0.161
8.315,-0.156
8.316,-0.155
8.317,-0.147
8.318,-0.149
8.319,-0.147
8.320,-0.147
8.321,-0.150
8.322,-0.150
8.323,-0.156
8.324,-0.152
8.325,-0.153
8.326,-0.152
8.327,-0.156
8.328,-0.164
8.329,-0.169
8.330,-0.178
8.331,-0.184
8.332,-0.191
8.333,-0.188
8.334,-0.180
8.335,-0.169
8.336,-0.151
8.337,-0.137
8.338,-0.125
8.339,-0.100
8.340,-0.075
8.341,-0.041
8.342,-0.009
8.343,0.025
8.344,0.064
8.345,0.113
8.346,0.168
8.347,0.234
8.348,0.314
8.349,0.406
8.350,0.494
8.351,0.594
8.352,0.703
8.353,0.809
8.354,0.923
8.355,1.031
8.356,1.141
8.357,1.241
8.358,1.326
8.359,1.397
8.360,1.464
8.361,1.522
8.362,1.564
8.363,1.563
8.364,1.522
8.365,1.456
8.366,1.369
8.367,1.259
8.368,1.141
8.369,1.009
8.370,0.872
8.371,0.725
8.372,0.568
8.373,0.422
8.374,0.283
8.375,0.153
8.376,0.030
8.377,-0.050
8.378,-0.100
8.379,-0.128
8.380,-0.136
8.381,-0.137
8.382,-0.124
8.383,-0.119
8.384,-0.120
8.385,-0.122
8.386,-0.122
8.387,-0.125
8.388,-0.120
8.389,-0.119
8.390,-0.111
8.391,-0.100
8.392,-0.104
8.393,-0.103
8.394,-0.099
8.395,-0.097
8.396,-0.094
8.397,-0.094
8.398,-0.091
8.399,-0.091
8.400,-0.097
8.401,-0.100
8.402,-0.100
8.403,-0.106
8.404,-0.109
8.405,-0.112
8.406,-0.112
8.407,-0.112
8.408,-0.112
8.409,-0.112
8.410,-0.114
8.411,-0.119
8.412,-0.119
8.413,-0.119
8.414,-0.119
8.415,-0.119
8.416,-0.117
8.417,-0.116
8.418,-0.112
8.419,-0.112
8.420,-0.111
8.421,-0.109
8.422,-0.109
8.423,-0.112
8.424,-0.111
8.425,-0.109
8.426,-0.111
8.427,-0.109
8.428,-0.109
8.429,-0.109
8.430,-0.109
8.431,-0.109
8.432,-0.109
8.433,-0.109
8.434,-0.112
8.435,-0.112
8.436,-0.111
8.437,-0.109
8.438,-0.109
8.439,-0.109
8.440,-0.105
8.441,-0.103
8.442,-0.104
8.443,-0.106
8.444,-0.105
8.445,-0.103
8.446,-0.101
8.447,-0.103
8.448,-0.099
8.449,-0.097
8.450,-0.097
8.451,-0.097
8.452,-0.096
8.453,-0.094
8.454,-0.095
8.455,-0.094
8.456,-0.094
8.457,-0.091
8.458,-0.092
8.459,-0.094
8.460,-0.091
8.461,-0.091
8.462,-0.086
8.463,-0.084
8.464,-0.089
8.465,-0.087
8.466,-0.086
8.467,-0.081
8.468,-0.078
8.469,-0.072
8.470,-0.072
8.471,-0.072
8.472,-0.072
8.473,-0.072
8.474,-0.073
8.475,-0.072
8.476,-0.075
8.477,-0.075
8.478,-0.072
8.479,-0.072
8.480,-0.078
8.481,-0.078
8.482,-0.071
8.483,-0.069
8.484,-0.067
8.485,-0.066
8.486,-0.066
8.487,-0.066
8.488,-0.069
8.489,-0.069
8.490,-0.069
8.491,-0.069
8.492,-0.071
8.493,-0.069
8.494,-0.067
8.495,-0.069
8.496,-0.069
8.497,-0.069
8.498,-0.066
8.499,-0.062
8.500,-0.061
8.501,-0.062
8.502,-0.064
8.503,-0.066
8.504,-0.062
8.505,-0.066
8.506,-0.067
8.507,-0.066
8.508,-0.064
8.509,-0.062
8.510,-0.059
8.511,-0.053
8.512,-0.057
8.513,-0.062
8.514,-0.064
8.515,-0.062
8.516,-0.058
8.517,-0.053
8.518,-0.053
8.519,-0.050
8.520,-0.044
8.521,-0.037
8.522,-0.036
8.523,-0.037
8.524,-0.039
8.525,-0.037
8.526,-0.037
8.527,-0.034
8.528,-0.034
8.529,-0.031
8.530,-0.029
8.531,-0.028
8.532,-0.024
8.533,-0.016
8.534,-0.014
8.535,-0.016
8.536,-0.017
8.537,-0.019
8.538,-0.014
8.539,-0.009
8.540,-0.005
8.541,-0.003
8.542,0.000
8.543,0.000
8.544,0.001
8.545,0.006
8.546,0.011
8.547,0.016
8.548,0.020
8.549,0.022
8.550,0.027
8.551,0.025
8.552,0.030
8.553,0.031
8.554,0.034
8.555,0.037
8.556,0.041
8.557,0.041
8.558,0.042
8.559,0.050
8.560,0.053
8.561,0.056
8.562,0.056
8.563,0.059
8.564,0.064
8.565,0.066
8.566,0.063
8.567,0.063
8.568,0.068
8.569,0.066
8.570,0.070
8.571,0.075
8.572,0.076
8.573,0.078
8.574,0.083
8.575,0.084
8.576,0.083
8.577,0.081
8.578,0.084
8.579,0.088
8.580,0.086
8.581,0.088
8.582,0.086
8.583,0.084
8.584,0.088
8.585,0.084
8.586,0.088
8.587,0.091
8.588,0.093
8.589,0.091
8.590,0.092
8.591,0.097
8.592,0.089
8.593,0.088
8.594,0.089
8.595,0.088
8.596,0.091
8.597,0.094
8.598,0.097
8.599,0.094
8.600,0.091
8.601,0.088
8.602,0.091
8.603,0.091
8.604,0.092
8.605,0.094
8.606,0.093
8.607,0.094
8.608,0.094
8.609,0.094
8.610,0.097
8.611,0.103
8.612,0.102
8.613,0.100
8.614,0.102
8.615,0.103
8.616,0.103
8.617,0.106
8.618,0.103
8.619,0.103
8.620,0.105
8.621,0.103
8.622,0.103
8.623,0.103
8.624,0.106
8.625,0.106
8.626,0.106
8.627,0.106
8.628,0.114
8.629,0.116
8.630,0.117
8.631,0.122
8.632,0.122
8.633,0.122
8.634,0.119
8.635,0.116
8.636,0.116
8.637,0.116
8.638,0.117
8.639,0.119
8.640,0.120
8.641,0.122
8.642,0.119
8.643,0.119
8.644,0.119
8.645,0.119
8.646,0.113
8.647,0.113
8.648,0.111
8.649,0.113
8.650,0.108
8.651,0.106
8.652,0.099
8.653,0.094
8.654,0.095
8.655,0.091
8.656,0.086
8.657,0.084
8.658,0.083
8.659,0.081
8.660,0.077
8.661,0.072
8.662,0.069
8.663,0.066
8.664,0.070
8.665,0.069
8.666,0.064
8.667,0.059
8.668,0.055
8.669,0.050
8.670,0.048
8.671,0.044
8.672,0.041
8.673,0.034
8.674,0.034
8.675,0.034
8.676,0.032
8.677,0.031
8.678,0.025
8.679,0.025
8.680,0.025
8.681,0.025
8.682,0.019
8.683,0.012
8.684,0.014
8.685,0.012
8.686,0.006
8.687,0.006
8.688,0.003
8.689,0.000
8.690,-0.006
8.691,-0.009
8.692,-0.008
8.693,-0.009
8.694,-0.011
8.695,-0.012
8.696,-0.012
8.697,-0.012
8.698,-0.017
8.699,-0.019
8.700,-0.023
8.701,-0.025
8.702,-0.024
8.703,-0.025
8.704,-0.022
8.705,-0.019
8.706,-0.022
8.707,-0.019
8.708,-0.016
8.709,-0.019
8.710,-0.023
8.711,-0.025
8.712,-0.024
8.713,-0.025
8.714,-0.026
8.715,-0.031
8.716,-0.031
8.717,-0.034
8.718,-0.031
8.719,-0.034
8.720,-0.036
8.721,-0.037
8.722,-0.036
8.723,-0.037
8.724,-0.037
8.725,-0.037
8.726,-0.036
8.727,-0.034
8.728,-0.039
8.729,-0.041
8.730,-0.041
8.731,-0.041
8.732,-0.041
8.733,-0.041
8.734,-0.039
8.735,-0.041
8.736,-0.044
8.737,-0.047
8.738,-0.050
8.739,-0.050
8.740,-0.049
8.741,-0.047
8.742,-0.047
8.743,-0.047
8.744,-0.050
8.745,-0.047
8.746,-0.050
8.747,-0.050
8.748,-0.050
8.749,-0.050
8.750,-0.052
8.751,-0.050
8.752,-0.051
8.753,-0.053
8.754,-0.053
8.755,-0.053
8.756,-0.056
8.757,-0.056
8.758,-0.058
8.759,-0.056
8.760,-0.053
8.761,-0.053
8.762,-0.059
8.763,-0.062
8.764,-0.061
8.765,-0.059
8.766,-0.059
8.767,-0.062
8.768,-0.066
8.769,-0.066
8.770,-0.066
8.771,-0.062
8.772,-0.064
8.773,-0.062
8.774,-0.067
8.775,-0.069
8.776,-0.069
8.777,-0.072
8.778,-0.072
8.779,-0.072
8.780,-0.072
8.781,-0.072
8.782,-0.079
8.783,-0.081
8.784,-0.081
8.785,-0.084
8.786,-0.087
8.787,-0.084
8.788,-0.086
8.789,-0.084
8.790,-0.086
8.791,-0.087
8.792,-0.086
8.793,-0.087
8.794,-0.089
8.795,-0.091
8.796,-0.091
8.797,-0.091
8.798,-0.094
8.799,-0.094
8.800,-0.091
8.801,-0.091
8.802,-0.092
8.803,-0.091
8.804,-0.089
8.805,-0.091
8.806,-0.092
8.807,-0.094
8.808,-0.094
8.809,-0.094
8.810,-0.094
8.811,-0.094
8.812,-0.092
8.813,-0.094
8.814,-0.092
8.815,-0.094
8.816,-0.092
8.817,-0.091
8.818,-0.089
8.819,-0.081
8.820,-0.076
8.821,-0.072
8.822,-0.066
8.823,-0.056
8.824,-0.049
8.825,-0.037
8.826,-0.025
8.827,-0.012
8.828,-0.006
8.829,0.000
8.830,0.005
8.831,0.006
8.832,0.012
8.833,0.016
8.834,0.016
8.835,0.019
8.836,0.022
8.837,0.022
8.838,0.019
8.839,0.022
8.840,0.021
8.841,0.022
8.842,0.027
8.843,0.028
8.844,0.030
8.845,0.028
8.846,0.034
8.847,0.037
8.848,0.047
8.849,0.059
8.850,0.063
8.851,0.069
8.852,0.077
8.853,0.084
8.854,0.098
8.855,0.109
8.856,0.114
8.857,0.116
8.858,0.119
8.859,0.119
8.860,0.117
8.861,0.119
8.862,0.116
8.863,0.116
8.864,0.113
8.865,0.113
8.866,0.109
8.867,0.106
8.868,0.106
8.869,0.106
8.870,0.101
8.871,0.097
8.872,0.088
8.873,0.081
8.874,0.074
8.875,0.069
8.876,0.066
8.877,0.063
8.878,0.063
8.879,0.063
8.880,0.058
8.881,0.047
8.882,0.036
8.883,0.025
8.884,0.016
8.885,0.003
8.886,-0.003
8.887,-0.012
8.888,-0.023
8.889,-0.034
8.890,-0.044
8.891,-0.047
8.892,-0.056
8.893,-0.069
8.894,-0.079
8.895,-0.087
8.896,-0.094
8.897,-0.097
8.898,-0.103
8.899,-0.106
8.900,-0.112
8.901,-0.119
8.902,-0.125
8.903,-0.128
8.904,-0.133
8.905,-0.141
8.906,-0.144
8.907,-0.147
8.908,-0.153
8.909,-0.159
8.910,-0.161
8.911,-0.166
8.912,-0.167
8.913,-0.166
8.914,-0.167
8.915,-0.172
8.916,-0.173
8.917,-0.175
8.918,-0.175
8.919,-0.175
8.920,-0.175
8.921,-0.175
8.922,-0.176
8.923,-0.178
8.924,-0.179
8.925,-0.184
8.926,-0.183
8.927,-0.184
8.928,-0.186
8.929,-0.184
8.930,-0.186
8.931,-0.184
8.932,-0.183
8.933,-0.184
8.934,-0.180
8.935,-0.178
8.936,-0.178
8.937,-0.178
8.938,-0.183
8.939,-0.191
8.940,-0.189
8.941,-0.188
8.942,-0.183
8.943,-0.184
8.944,-0.183
8.945,-0.184
8.946,-0.186
8.947,-0.184
8.948,-0.183
8.949,-0.181
8.950,-0.181
8.951,-0.181
8.952,-0.183
8.953,-0.181
8.954,-0.186
8.955,-0.184
8.956,-0.186
8.957,-0.184
8.958,-0.183
8.959,-0.184
8.960,-0.181
8.961,-0.184
8.962,-0.183
8.963,-0.188
8.964,-0.186
8.965,-0.191
8.966,-0.196
8.967,-0.197
8.968,-0.203
8.969,-0.206
8.970,-0.216
8.971,-0.216
8.972,-0.209
8.973,-0.200
8.974,-0.184
8.975,-0.172
8.976,-0.161
8.977,-0.137
8.978,-0.117
8.979,-0.087
8.980,-0.047
8.981,-0.003
8.982,0.037
8.983,0.088
8.984,0.139
8.985,0.203
8.986,0.277
8.987,0.363
8.988,0.449
8.989,0.547
8.990,0.654
8.991,0.759
8.992,0.872
8.993,0.978
8.994,1.089
8.995,1.191
8.996,1.281
8.997,1.356
8.998,1.417
8.999,1.469
9.000,1.506
9.001,1.500
9.002,1.459
9.003,1.394
9.004,1.304
9.005,1.194
9.006,1.079
9.007,0.953
9.008,0.813
9.009,0.663
9.010,0.506
9.011,0.363
9.012,0.227
9.013,0.100
9.014,-0.023
9.015,-0.103
9.016,-0.147
9.017,-0.169
9.018,-0.175
9.019,-0.175
9.020,-0.164
9.021,-0.162
9.022,-0.164
9.023,-0.166
9.024,-0.164
9.025,-0.166
9.026,-0.158
9.027,-0.153
9.028,-0.150
9.029,-0.144
9.030,-0.147
9.031,-0.144
9.032,-0.139
9.033,-0.137
9.034,-0.131
9.035,-0.128
9.036,-0.124
9.037,-0.122
9.038,-0.129
9.039,-0.134
9.040,-0.134
9.041,-0.141
9.042,-0.147
9.043,-0.153
9.044,-0.152
9.045,-0.150
9.046,-0.150
9.047,-0.150
9.048,-0.149
9.049,-0.150
9.050,-0.151
9.051,-0.153
9.052,-0.156
9.053,-0.159
9.054,-0.161
9.055,-0.162
9.056,-0.159
9.057,-0.159
9.058,-0.159
9.059,-0.159
9.060,-0.158
9.061,-0.159
9.062,-0.155
9.063,-0.150
9.064,-0.152
9.065,-0.150
9.066,-0.150
9.067,-0.150
9.068,-0.149
9.069,-0.147
9.070,-0.147
9.071,-0.147
9.072,-0.148
9.073,-0.147
9.074,-0.150
9.075,-0.153
9.076,-0.152
9.077,-0.150
9.078,-0.147
9.079,-0.147
9.080,-0.147
9.081,-0.147
9.082,-0.148
9.083,-0.150
9.084,-0.146
9.085,-0.144
9.086,-0.141
9.087,-0.141
9.088,-0.141
9.089,-0.141
9.090,-0.141
9.091,-0.141
9.092,-0.142
9.093,-0.141
9.094,-0.142
9.095,-0.141
9.096,-0.141
9.097,-0.141
9.098,-0.136
9.099,-0.134
9.100,-0.131
9.101,-0.131
9.102,-0.136
9.103,-0.134
9.104,-0.134
9.105,-0.131
9.106,-0.130
9.107,-0.125
9.108,-0.124
9.109,-0.122
9.110,-0.119
9.111,-0.116
9.112,-0.119
9.113,-0.119
9.114,-0.123
9.115,-0.125
9.116,-0.123
9.117,-0.125
9.118,-0.128
9.119,-0.125
9.120,-0.119
9.121,-0.119
9.122,-0.119
9.123,-0.119
9.124,-0.119
9.125,-0.119
9.126,-0.119
9.127,-0.116
9.128,-0.117
9.129,-0.119
9.130,-0.121
9.131,-0.119
9.132,-0.117
9.133,-0.119
9.134,-0.119
9.135,-0.119
9.136,-0.117
9.137,-0.116
9.138,-0.112
9.139,-0.112
9.140,-0.114
9.141,-0.116
9.142,-0.111
9.143,-0.112
9.144,-0.114
9.145,-0.112
9.146,-0.109
9.147,-0.106
9.148,-0.107
9.149,-0.106
9.150,-0.107
9.151,-0.109
9.152,-0.111
9.153,-0.109
9.154,-0.105
9.155,-0.100
9.156,-0.098
9.157,-0.094
9.158,-0.094
9.159,-0.094
9.160,-0.092
9.161,-0.094
9.162,-0.091
9.163,-0.084
9.164,-0.083
9.165,-0.078
9.166,-0.079
9.167,-0.078
9.168,-0.079
9.169,-0.081
9.170,-0.081
9.171,-0.078
9.172,-0.072
9.173,-0.069
9.174,-0.064
9.175,-0.059
9.176,-0.056
9.177,-0.053
9.178,-0.051
9.179,-0.053
9.180,-0.050
9.181,-0.050
9.182,-0.049
9.183,-0.044
9.184,-0.041
9.185,-0.037
9.186,-0.033
9.187,-0.031
9.188,-0.026
9.189,-0.028
9.190,-0.021
9.191,-0.016
9.192,-0.011
9.193,-0.006
9.194,-0.003
9.195,-0.003
9.196,-0.004
9.197,0.000
9.198,0.002
9.199,0.003
9.200,0.003
9.201,0.006
9.202,0.009
9.203,0.009
9.204,0.009
9.205,0.012
9.206,0.019
9.207,0.019
9.208,0.022
9.209,0.025
9.210,0.026
9.211,0.028
9.212,0.030
9.213,0.028
9.214,0.031
9.215,0.034
9.216,0.034
9.217,0.034
9.218,0.036
9.219,0.041
9.220,0.042
9.221,0.044
9.222,0.047
9.223,0.044
9.224,0.041
9.225,0.037
9.226,0.039
9.227,0.037
9.228,0.044
9.229,0.053
9.230,0.049
9.231,0.050
9.232,0.053
9.233,0.053
9.234,0.052
9.235,0.050
9.236,0.054
9.237,0.053
9.238,0.053
9.239,0.053
9.240,0.055
9.241,0.053
9.242,0.052
9.243,0.050
9.244,0.053
9.245,0.059
9.246,0.061
9.247,0.063
9.248,0.061
9.249,0.063
9.250,0.064
9.251,0.066
9.252,0.066
9.253,0.066
9.254,0.063
9.255,0.063
9.256,0.061
9.257,0.063
9.258,0.066
9.259,0.066
9.260,0.069
9.261,0.072
9.262,0.074
9.263,0.072
9.264,0.071
9.265,0.069
9.266,0.074
9.267,0.072
9.268,0.073
9.269,0.078
9.270,0.077
9.271,0.075
9.272,0.075
9.273,0.075
9.274,0.074
9.275,0.072
9.276,0.072
9.277,0.072
9.278,0.073
9.279,0.075
9.280,0.075
9.281,0.078
9.282,0.079
9.283,0.081
9.284,0.078
9.285,0.081
9.286,0.074
9.287,0.069
9.288,0.066
9.289,0.066
9.290,0.063
9.291,0.063
9.292,0.066
9.293,0.063
9.294,0.053
9.295,0.047
9.296,0.045
9.297,0.044
9.298,0.041
9.299,0.037
9.300,0.034
9.301,0.031
9.302,0.032
9.303,0.028
9.304,0.028
9.305,0.028
9.306,0.025
9.307,0.022
9.308,0.019
9.309,0.012
9.310,0.014
9.311,0.012
9.312,0.006
9.313,0.000
9.314,-0.002
9.315,-0.003
9.316,-0.009
9.317,-0.009
9.318,-0.011
9.319,-0.012
9.320,-0.019
9.321,-0.025
9.322,-0.024
9.323,-0.025
9.324,-0.028
9.325,-0.025
9.326,-0.028
9.327,-0.031
9.328,-0.036
9.329,-0.037
9.330,-0.036
9.331,-0.037
9.332,-0.042
9.333,-0.047
9.334,-0.046
9.335,-0.044
9.336,-0.047
9.337,-0.047
9.338,-0.050
9.339,-0.050
9.340,-0.039
9.341,-0.031
9.342,-0.016
9.343,0.000
9.344,-0.004
9.345,-0.003
9.346,0.001
9.347,0.000
9.348,-0.017
9.349,-0.031
9.350,-0.048
9.351,-0.069
9.352,-0.069
9.353,-0.072
9.354,-0.071
9.355,-0.072
9.356,-0.067
9.357,-0.069
9.358,-0.069
9.359,-0.069
9.360,-0.067
9.361,-0.069
9.362,-0.070
9.363,-0.072
9.364,-0.071
9.365,-0.069
9.366,-0.072
9.367,-0.072
9.368,-0.073
9.369,-0.075
9.370,-0.075
9.371,-0.075
9.372,-0.076
9.373,-0.081
9.374,-0.078
9.375,-0.075
9.376,-0.078
9.377,-0.078
9.378,-0.081
9.379,-0.084
9.380,-0.081
9.381,-0.078
9.382,-0.082
9.383,-0.081
9.384,-0.084
9.385,-0.084
9.386,-0.086
9.387,-0.087
9.388,-0.091
9.389,-0.091
9.390,-0.091
9.391,-0.091
9.392,-0.091
9.393,-0.091
9.394,-0.094
9.395,-0.094
9.396,-0.095
9.397,-0.094
9.398,-0.094
9.399,-0.094
9.400,-0.091
9.401,-0.091
9.402,-0.094
9.403,-0.094
9.404,-0.092
9.405,-0.087
9.406,-0.094
9.407,-0.097
9.408,-0.100
9.409,-0.100
9.410,-0.099
9.411,-0.100
9.412,-0.101
9.413,-0.103
9.414,-0.103
9.415,-0.103
9.416,-0.106
9.417,-0.103
9.418,-0.102
9.419,-0.103
9.420,-0.106
9.421,-0.103
9.422,-0.106
9.423,-0.106
9.424,-0.106
9.425,-0.106
9.426,-0.106
9.427,-0.109
9.428,-0.111
9.429,-0.112
9.430,-0.111
9.431,-0.109
9.432,-0.112
9.433,-0.112
9.434,-0.111
9.435,-0.112
9.436,-0.114
9.437,-0.112
9.438,-0.112
9.439,-0.116
9.440,-0.117
9.441,-0.119
9.442,-0.119
9.443,-0.119
9.444,-0.122
9.445,-0.125
9.446,-0.122
9.447,-0.122
9.448,-0.116
9.449,-0.112
9.450,-0.108
9.451,-0.103
9.452,-0.099
9.453,-0.087
9.454,-0.081
9.455,-0.075
9.456,-0.070
9.457,-0.062
9.458,-0.057
9.459,-0.050
9.460,-0.039
9.461,-0.028
9.462,-0.025
9.463,-0.022
9.464,-0.017
9.465,-0.016
9.466,-0.012
9.467,-0.012
9.468,-0.014
9.469,-0.012
9.470,-0.009
9.471,-0.009
9.472,-0.012
9.473,-0.009
9.474,-0.006
9.475,0.000
9.476,0.003
9.477,0.003
9.478,0.006
9.479,0.006
