'Elapsed time','II'
'seconds','mV'
0.000,0.039
0.001,0.041
0.002,0.042
0.003,0.044
0.004,0.048
0.005,0.053
0.006,0.053
0.007,0.053
0.008,0.052
0.009,0.050
0.010,0.049
0.011,0.047
0.012,0.047
0.013,0.047
0.014,0.047
0.015,0.047
0.016,0.048
0.017,0.050
0.018,0.050
0.019,0.050
0.020,0.050
0.021,0.050
0.022,0.049
0.023,0.047
0.024,0.046
0.025,0.044
0.026,0.047
0.027,0.050
0.028,0.049
0.029,0.047
0.030,0.047
0.031,0.047
0.032,0.047
0.033,0.047
0.034,0.047
0.035,0.047
0.036,0.047
0.037,0.047
0.038,0.047
0.039,0.047
0.040,0.046
0.041,0.044
0.042,0.047
0.043,0.050
0.044,0.050
0.045,0.050
0.046,0.049
0.047,0.047
0.048,0.046
0.049,0.044
0.050,0.044
0.051,0.044
0.052,0.044
0.053,0.044
0.054,0.044
0.055,0.044
0.056,0.044
0.057,0.044
0.058,0.044
0.059,0.044
0.060,0.044
0.061,0.044
0.062,0.044
0.063,0.044
0.064,0.041
0.065,0.038
0.066,0.039
0.067,0.041
0.068,0.041
0.069,0.041
0.070,0.039
0.071,0.038
0.072,0.036
0.073,0.034
0.074,0.036
0.075,0.038
0.076,0.038
0.077,0.038
0.078,0.034
0.079,0.031
0.080,0.031
0.081,0.031
0.082,0.031
0.083,0.031
0.084,0.031
0.085,0.031
0.086,0.031
0.087,0.031
0.088,0.030
0.089,0.028
0.090,0.028
0.091,0.028
0.092,0.029
0.093,0.031
0.094,0.030
0.095,0.028
0.096,0.027
0.097,0.025
0.098,0.025
0.099,0.025
0.100,0.025
0.101,0.025
0.102,0.024
0.103,0.022
0.104,0.023
0.105,0.025
0.106,0.028
0.107,0.031
0.108,0.031
0.109,0.031
0.110,0.031
0.111,0.031
0.112,0.031
0.113,0.031
0.114,0.030
0.115,0.028
0.116,0.031
0.117,0.034
0.118,0.034
0.119,0.034
0.120,0.034
0.121,0.034
0.122,0.036
0.123,0.038
0.124,0.041
0.125,0.044
0.126,0.044
0.127,0.044
0.128,0.045
0.129,0.047
0.130,0.048
0.131,0.050
0.132,0.054
0.133,0.059
0.134,0.064
0.135,0.069
0.136,0.068
0.137,0.066
0.138,0.069
0.139,0.072
0.140,0.073
0.141,0.075
0.142,0.075
0.143,0.075
0.144,0.076
0.145,0.078
0.146,0.081
0.147,0.084
0.148,0.084
0.149,0.084
0.150,0.084
0.151,0.084
0.152,0.084
0.153,0.084
0.154,0.086
0.155,0.088
0.156,0.088
0.157,0.088
0.158,0.088
0.159,0.088
0.160,0.089
0.161,0.091
0.162,0.091
0.163,0.091
0.164,0.091
0.165,0.091
0.166,0.089
0.167,0.088
0.168,0.086
0.169,0.084
0.170,0.084
0.171,0.084
0.172,0.084
0.173,0.084
0.174,0.084
0.175,0.084
0.176,0.083
0.177,0.081
0.178,0.078
0.179,0.075
0.180,0.074
0.181,0.072
0.182,0.072
0.183,0.072
0.184,0.071
0.185,0.069
0.186,0.068
0.187,0.066
0.188,0.064
0.189,0.063
0.190,0.061
0.191,0.059
0.192,0.053
0.193,0.047
0.194,0.046
0.195,0.044
0.196,0.045
0.197,0.047
0.198,0.047
0.199,0.047
0.200,0.046
0.201,0.044
0.202,0.041
0.203,0.038
0.204,0.036
0.205,0.034
0.206,0.033
0.207,0.031
0.208,0.030
0.209,0.028
0.210,0.027
0.211,0.025
0.212,0.024
0.213,0.022
0.214,0.019
0.215,0.016
0.216,0.014
0.217,0.013
0.218,0.013
0.219,0.013
0.220,0.011
0.221,0.009
0.222,0.008
0.223,0.006
0.224,0.006
0.225,0.006
0.226,0.005
0.227,0.003
0.228,0.002
0.229,0.000
0.230,0.000
0.231,0.000
0.232,0.000
0.233,0.000
0.234,-0.003
0.235,-0.006
0.236,-0.008
0.237,-0.009
0.238,-0.009
0.239,-0.009
0.240,-0.008
0.241,-0.006
0.242,-0.003
0.243,0.000
0.244,0.000
0.245,0.000
0.246,-0.001
0.247,-0.003
0.248,-0.004
0.249,-0.006
0.250,-0.006
0.251,-0.006
0.252,-0.005
0.253,-0.003
0.254,-0.003
0.255,-0.003
0.256,-0.003
0.257,-0.003
0.258,-0.003
0.259,-0.003
0.260,-0.003
0.261,-0.003
0.262,-0.003
0.263,-0.003
0.264,-0.003
0.265,-0.003
0.266,0.000
0.267,0.003
0.268,0.003
0.269,0.003
0.270,0.002
0.271,0.000
0.272,0.000
0.273,0.000
0.274,0.000
0.275,0.000
0.276,0.001
0.277,0.003
0.278,0.003
0.279,0.003
0.280,0.003
0.281,0.003
0.282,0.003
0.283,0.003
0.284,0.003
0.285,0.003
0.286,0.003
0.287,0.003
0.288,0.003
0.289,0.003
0.290,0.003
0.291,0.003
0.292,0.003
0.293,0.003
0.294,0.003
0.295,0.003
0.296,0.003
0.297,0.003
0.298,0.003
0.299,0.003
0.300,0.002
0.301,0.000
0.302,0.001
0.303,0.003
0.304,0.003
0.305,0.003
0.306,0.003
0.307,0.003
0.308,0.002
0.309,0.000
0.310,0.001
0.311,0.003
0.312,0.003
0.313,0.003
0.314,0.003
0.315,0.003
0.316,0.002
0.317,0.000
0.318,0.000
0.319,0.000
0.320,0.001
0.321,0.003
0.322,0.002
0.323,0.000
0.324,-0.001
0.325,-0.003
0.326,-0.003
0.327,-0.003
0.328,-0.003
0.329,-0.003
0.330,-0.002
0.331,0.000
0.332,0.000
0.333,0.000
0.334,-0.001
0.335,-0.003
0.336,-0.004
0.337,-0.006
0.338,-0.006
0.339,-0.006
0.340,-0.006
0.341,-0.006
0.342,-0.006
0.343,-0.006
0.344,-0.005
0.345,-0.003
0.346,-0.003
0.347,-0.003
0.348,-0.004
0.349,-0.006
0.350,-0.008
0.351,-0.009
0.352,-0.009
0.353,-0.009
0.354,-0.009
0.355,-0.009
0.356,-0.011
0.357,-0.013
0.358,-0.014
0.359,-0.016
0.360,-0.016
0.361,-0.016
0.362,-0.016
0.363,-0.016
0.364,-0.016
0.365,-0.016
0.366,-0.016
0.367,-0.016
0.368,-0.016
0.369,-0.016
0.370,-0.019
0.371,-0.022
0.372,-0.023
0.373,-0.025
0.374,-0.025
0.375,-0.025
0.376,-0.025
0.377,-0.025
0.378,-0.025
0.379,-0.025
0.380,-0.026
0.381,-0.028
0.382,-0.029
0.383,-0.031
0.384,-0.031
0.385,-0.031
0.386,-0.031
0.387,-0.031
0.388,-0.031
0.389,-0.031
0.390,-0.031
0.391,-0.031
0.392,-0.031
0.393,-0.031
0.394,-0.033
0.395,-0.034
0.396,-0.036
0.397,-0.038
0.398,-0.038
0.399,-0.038
0.400,-0.038
0.401,-0.038
0.402,-0.038
0.403,-0.038
0.404,-0.041
0.405,-0.044
0.406,-0.044
0.407,-0.044
0.408,-0.043
0.409,-0.041
0.410,-0.042
0.411,-0.044
0.412,-0.045
0.413,-0.047
0.414,-0.047
0.415,-0.047
0.416,-0.047
0.417,-0.047
0.418,-0.048
0.419,-0.050
0.420,-0.050
0.421,-0.050
0.422,-0.050
0.423,-0.050
0.424,-0.050
0.425,-0.050
0.426,-0.050
0.427,-0.050
0.428,-0.051
0.429,-0.053
0.430,-0.052
0.431,-0.050
0.432,-0.051
0.433,-0.053
0.434,-0.053
0.435,-0.053
0.436,-0.054
0.437,-0.056
0.438,-0.056
0.439,-0.056
0.440,-0.053
0.441,-0.050
0.442,-0.050
0.443,-0.050
0.444,-0.049
0.445,-0.047
0.446,-0.047
0.447,-0.047
0.448,-0.047
0.449,-0.047
0.450,-0.048
0.451,-0.050
0.452,-0.054
0.453,-0.059
0.454,-0.061
0.455,-0.063
0.456,-0.061
0.457,-0.059
0.458,-0.059
0.459,-0.059
0.460,-0.059
0.461,-0.059
0.462,-0.061
0.463,-0.063
0.464,-0.063
0.465,-0.063
0.466,-0.063
0.467,-0.063
0.468,-0.063
0.469,-0.063
0.470,-0.063
0.471,-0.063
0.472,-0.063
0.473,-0.063
0.474,-0.063
0.475,-0.063
0.476,-0.061
0.477,-0.059
0.478,-0.059
0.479,-0.059
0.480,-0.061
0.481,-0.063
0.482,-0.061
0.483,-0.059
0.484,-0.059
0.485,-0.059
0.486,-0.061
0.487,-0.063
0.488,-0.063
0.489,-0.063
0.490,-0.063
0.491,-0.063
0.492,-0.064
0.493,-0.066
0.494,-0.066
0.495,-0.066
0.496,-0.063
0.497,-0.059
0.498,-0.059
0.499,-0.059
0.500,-0.061
0.501,-0.063
0.502,-0.064
0.503,-0.066
0.504,-0.067
0.505,-0.069
0.506,-0.066
0.507,-0.063
0.508,-0.063
0.509,-0.063
0.510,-0.064
0.511,-0.066
0.512,-0.066
0.513,-0.066
0.514,-0.066
0.515,-0.066
0.516,-0.066
0.517,-0.066
0.518,-0.066
0.519,-0.066
0.520,-0.063
0.521,-0.059
0.522,-0.061
0.523,-0.063
0.524,-0.063
0.525,-0.063
0.526,-0.061
0.527,-0.059
0.528,-0.059
0.529,-0.059
0.530,-0.061
0.531,-0.063
0.532,-0.064
0.533,-0.066
0.534,-0.064
0.535,-0.063
0.536,-0.063
0.537,-0.063
0.538,-0.064
0.539,-0.066
0.540,-0.066
0.541,-0.066
0.542,-0.066
0.543,-0.066
0.544,-0.067
0.545,-0.069
0.546,-0.068
0.547,-0.066
0.548,-0.066
0.549,-0.066
0.550,-0.067
0.551,-0.069
0.552,-0.069
0.553,-0.069
0.554,-0.069
0.555,-0.069
0.556,-0.070
0.557,-0.072
0.558,-0.072
0.559,-0.072
0.560,-0.072
0.561,-0.072
0.562,-0.072
0.563,-0.072
0.564,-0.072
0.565,-0.072
0.566,-0.072
0.567,-0.072
0.568,-0.072
0.569,-0.072
0.570,-0.072
0.571,-0.072
0.572,-0.072
0.573,-0.072
0.574,-0.072
0.575,-0.072
0.576,-0.072
0.577,-0.072
0.578,-0.072
0.579,-0.072
0.580,-0.072
0.581,-0.072
0.582,-0.071
0.583,-0.069
0.584,-0.069
0.585,-0.069
0.586,-0.070
0.587,-0.072
0.588,-0.072
0.589,-0.072
0.590,-0.072
0.591,-0.072
0.592,-0.073
0.593,-0.075
0.594,-0.075
0.595,-0.075
0.596,-0.075
0.597,-0.075
0.598,-0.075
0.599,-0.075
0.600,-0.072
0.601,-0.069
0.602,-0.069
0.603,-0.069
0.604,-0.070
0.605,-0.072
0.606,-0.072
0.607,-0.072
0.608,-0.072
0.609,-0.072
0.610,-0.071
0.611,-0.069
0.612,-0.069
0.613,-0.069
0.614,-0.070
0.615,-0.072
0.616,-0.073
0.617,-0.075
0.618,-0.075
0.619,-0.075
0.620,-0.072
0.621,-0.069
0.622,-0.070
0.623,-0.072
0.624,-0.072
0.625,-0.072
0.626,-0.072
0.627,-0.072
0.628,-0.072
0.629,-0.072
0.630,-0.072
0.631,-0.072
0.632,-0.072
0.633,-0.072
0.634,-0.071
0.635,-0.069
0.636,-0.069
0.637,-0.069
0.638,-0.070
0.639,-0.072
0.640,-0.072
0.641,-0.072
0.642,-0.073
0.643,-0.075
0.644,-0.075
0.645,-0.075
0.646,-0.072
0.647,-0.069
0.648,-0.070
0.649,-0.072
0.650,-0.073
0.651,-0.075
0.652,-0.075
0.653,-0.075
0.654,-0.075
0.655,-0.075
0.656,-0.075
0.657,-0.075
0.658,-0.075
0.659,-0.075
0.660,-0.075
0.661,-0.075
0.662,-0.074
0.663,-0.072
0.664,-0.072
0.665,-0.072
0.666,-0.076
0.667,-0.081
0.668,-0.083
0.669,-0.084
0.670,-0.080
0.671,-0.075
0.672,-0.076
0.673,-0.078
0.674,-0.078
0.675,-0.078
0.676,-0.078
0.677,-0.078
0.678,-0.075
0.679,-0.072
0.680,-0.072
0.681,-0.072
0.682,-0.073
0.683,-0.075
0.684,-0.075
0.685,-0.075
0.686,-0.074
0.687,-0.072
0.688,-0.073
0.689,-0.075
0.690,-0.076
0.691,-0.078
0.692,-0.079
0.693,-0.081
0.694,-0.080
0.695,-0.078
0.696,-0.078
0.697,-0.078
0.698,-0.078
0.699,-0.078
0.700,-0.078
0.701,-0.078
0.702,-0.077
0.703,-0.075
0.704,-0.075
0.705,-0.075
0.706,-0.076
0.707,-0.078
0.708,-0.078
0.709,-0.078
0.710,-0.078
0.711,-0.078
0.712,-0.078
0.713,-0.081
0.714,-0.083
0.715,-0.081
0.716,-0.080
0.717,-0.075
0.718,-0.075
0.719,-0.075
0.720,-0.078
0.721,-0.078
0.722,-0.078
0.723,-0.078
0.724,-0.075
0.725,-0.072
0.726,-0.073
0.727,-0.075
0.728,-0.072
0.729,-0.075
0.730,-0.072
0.731,-0.072
0.732,-0.072
0.733,-0.072
0.734,-0.073
0.735,-0.072
0.736,-0.073
0.737,-0.075
0.738,-0.073
0.739,-0.075
0.740,-0.074
0.741,-0.075
0.742,-0.078
0.743,-0.078
0.744,-0.078
0.745,-0.078
0.746,-0.078
0.747,-0.078
0.748,-0.077
0.749,-0.078
0.750,-0.077
0.751,-0.075
0.752,-0.071
0.753,-0.072
0.754,-0.076
0.755,-0.075
0.756,-0.072
0.757,-0.075
0.758,-0.074
0.759,-0.072
0.760,-0.072
0.761,-0.072
0.762,-0.073
0.763,-0.075
0.764,-0.074
0.765,-0.072
0.766,-0.073
0.767,-0.075
0.768,-0.072
0.769,-0.075
0.770,-0.075
0.771,-0.075
0.772,-0.075
0.773,-0.075
0.774,-0.075
0.775,-0.075
0.776,-0.075
0.777,-0.075
0.778,-0.075
0.779,-0.072
0.780,-0.071
0.781,-0.069
0.782,-0.073
0.783,-0.075
0.784,-0.073
0.785,-0.075
0.786,-0.074
0.787,-0.072
0.788,-0.075
0.789,-0.075
0.790,-0.075
0.791,-0.081
0.792,-0.081
0.793,-0.084
0.794,-0.084
0.795,-0.081
0.796,-0.080
0.797,-0.078
0.798,-0.078
0.799,-0.078
0.800,-0.077
0.801,-0.078
0.802,-0.077
0.803,-0.078
0.804,-0.076
0.805,-0.078
0.806,-0.078
0.807,-0.075
0.808,-0.078
0.809,-0.078
0.810,-0.078
0.811,-0.075
0.812,-0.078
0.813,-0.078
0.814,-0.074
0.815,-0.072
0.816,-0.072
0.817,-0.072
0.818,-0.072
0.819,-0.072
0.820,-0.072
0.821,-0.072
0.822,-0.072
0.823,-0.072
0.824,-0.076
0.825,-0.075
0.826,-0.075
0.827,-0.075
0.828,-0.074
0.829,-0.072
0.830,-0.073
0.831,-0.075
0.832,-0.076
0.833,-0.081
0.834,-0.086
0.835,-0.084
0.836,-0.083
0.837,-0.081
0.838,-0.080
0.839,-0.078
0.840,-0.074
0.841,-0.072
0.842,-0.072
0.843,-0.072
0.844,-0.072
0.845,-0.072
0.846,-0.072
0.847,-0.072
0.848,-0.069
0.849,-0.072
0.850,-0.071
0.851,-0.072
0.852,-0.070
0.853,-0.072
0.854,-0.075
0.855,-0.072
0.856,-0.072
0.857,-0.072
0.858,-0.072
0.859,-0.072
0.860,-0.073
0.861,-0.075
0.862,-0.069
0.863,-0.072
0.864,-0.071
0.865,-0.069
0.866,-0.072
0.867,-0.072
0.868,-0.072
0.869,-0.069
0.870,-0.073
0.871,-0.072
0.872,-0.072
0.873,-0.072
0.874,-0.071
0.875,-0.072
0.876,-0.069
0.877,-0.066
0.878,-0.066
0.879,-0.066
0.880,-0.066
0.881,-0.066
0.882,-0.070
0.883,-0.069
0.884,-0.069
0.885,-0.069
0.886,-0.070
0.887,-0.072
0.888,-0.071
0.889,-0.069
0.890,-0.068
0.891,-0.069
0.892,-0.070
0.893,-0.069
0.894,-0.069
0.895,-0.069
0.896,-0.069
0.897,-0.069
0.898,-0.064
0.899,-0.066
0.900,-0.067
0.901,-0.066
0.902,-0.067
0.903,-0.069
0.904,-0.070
0.905,-0.072
0.906,-0.069
0.907,-0.069
0.908,-0.067
0.909,-0.069
0.910,-0.067
0.911,-0.072
0.912,-0.069
0.913,-0.072
0.914,-0.072
0.915,-0.072
0.916,-0.069
0.917,-0.069
0.918,-0.071
0.919,-0.072
0.920,-0.072
0.921,-0.072
0.922,-0.070
0.923,-0.072
0.924,-0.072
0.925,-0.072
0.926,-0.075
0.927,-0.075
0.928,-0.075
0.929,-0.075
0.930,-0.072
0.931,-0.069
0.932,-0.070
0.933,-0.069
0.934,-0.069
0.935,-0.069
0.936,-0.072
0.937,-0.069
0.938,-0.069
0.939,-0.072
0.940,-0.071
0.941,-0.069
0.942,-0.068
0.943,-0.069
0.944,-0.072
0.945,-0.072
0.946,-0.073
0.947,-0.072
0.948,-0.072
0.949,-0.072
0.950,-0.069
0.951,-0.066
0.952,-0.069
0.953,-0.069
0.954,-0.069
0.955,-0.069
0.956,-0.070
0.957,-0.069
0.958,-0.069
0.959,-0.072
0.960,-0.072
0.961,-0.072
0.962,-0.072
0.963,-0.072
0.964,-0.072
0.965,-0.072
0.966,-0.072
0.967,-0.072
0.968,-0.072
0.969,-0.072
0.970,-0.069
0.971,-0.069
0.972,-0.069
0.973,-0.069
0.974,-0.067
0.975,-0.069
0.976,-0.069
0.977,-0.072
0.978,-0.073
0.979,-0.072
0.980,-0.072
0.981,-0.072
0.982,-0.072
0.983,-0.072
0.984,-0.069
0.985,-0.072
0.986,-0.069
0.987,-0.066
0.988,-0.070
0.989,-0.069
0.990,-0.069
0.991,-0.069
0.992,-0.070
0.993,-0.072
0.994,-0.072
0.995,-0.075
0.996,-0.069
0.997,-0.066
0.998,-0.066
0.999,-0.066
1.000,-0.067
1.001,-0.069
1.002,-0.066
1.003,-0.063
1.004,-0.056
1.005,-0.053
1.006,-0.053
1.007,-0.050
1.008,-0.045
1.009,-0.050
1.010,-0.048
1.011,-0.047
1.012,-0.041
1.013,-0.038
1.014,-0.033
1.015,-0.025
1.016,-0.018
1.017,-0.013
1.018,-0.008
1.019,-0.003
1.020,-0.004
1.021,-0.003
1.022,-0.003
1.023,0.000
1.024,0.001
1.025,0.000
1.026,-0.002
1.027,-0.003
1.028,-0.005
1.029,-0.003
1.030,-0.008
1.031,-0.003
1.032,-0.001
1.033,-0.003
1.034,-0.003
1.035,-0.003
1.036,0.001
1.037,0.003
1.038,0.000
1.039,0.000
1.040,0.000
1.041,0.000
1.042,0.002
1.043,0.006
1.044,0.011
1.045,0.013
1.046,0.013
1.047,0.013
1.048,0.009
1.049,0.006
1.050,0.006
1.051,-0.003
1.052,-0.008
1.053,-0.006
1.054,-0.011
1.055,-0.013
1.056,-0.009
1.057,-0.006
1.058,-0.003
1.059,0.000
1.060,0.003
1.061,0.000
1.062,-0.004
1.063,-0.009
1.064,-0.019
1.065,-0.028
1.066,-0.024
1.067,-0.025
1.068,-0.028
1.069,-0.028
1.070,-0.033
1.071,-0.031
1.072,-0.028
1.073,-0.028
1.074,-0.031
1.075,-0.031
1.076,-0.034
1.077,-0.031
1.078,-0.038
1.079,-0.038
1.080,-0.034
1.081,-0.034
1.082,-0.033
1.083,-0.031
1.084,-0.036
1.085,-0.038
1.086,-0.044
1.087,-0.047
1.088,-0.053
1.089,-0.056
1.090,-0.059
1.091,-0.063
1.092,-0.064
1.093,-0.066
1.094,-0.070
1.095,-0.075
1.096,-0.077
1.097,-0.075
1.098,-0.072
1.099,-0.072
1.100,-0.070
1.101,-0.072
1.102,-0.073
1.103,-0.072
1.104,-0.071
1.105,-0.072
1.106,-0.072
1.107,-0.072
1.108,-0.072
1.109,-0.072
1.110,-0.073
1.111,-0.078
1.112,-0.078
1.113,-0.078
1.114,-0.074
1.115,-0.072
1.116,-0.072
1.117,-0.072
1.118,-0.076
1.119,-0.075
1.120,-0.075
1.121,-0.075
1.122,-0.078
1.123,-0.081
1.124,-0.081
1.125,-0.084
1.126,-0.083
1.127,-0.084
1.128,-0.084
1.129,-0.084
1.130,-0.084
1.131,-0.081
1.132,-0.081
1.133,-0.081
1.134,-0.083
1.135,-0.084
1.136,-0.088
1.137,-0.088
1.138,-0.086
1.139,-0.081
1.140,-0.081
1.141,-0.081
1.142,-0.081
1.143,-0.081
1.144,-0.081
1.145,-0.081
1.146,-0.080
1.147,-0.078
1.148,-0.076
1.149,-0.078
1.150,-0.081
1.151,-0.081
1.152,-0.078
1.153,-0.075
1.154,-0.076
1.155,-0.075
1.156,-0.076
1.157,-0.078
1.158,-0.078
1.159,-0.081
1.160,-0.080
1.161,-0.081
1.162,-0.081
1.163,-0.081
1.164,-0.081
1.165,-0.088
1.166,-0.103
1.167,-0.119
1.168,-0.131
1.169,-0.147
1.170,-0.167
1.171,-0.184
1.172,-0.209
1.173,-0.219
1.174,-0.220
1.175,-0.219
1.176,-0.222
1.177,-0.209
1.178,-0.197
1.179,-0.172
1.180,-0.145
1.181,-0.116
1.182,-0.088
1.183,-0.053
1.184,-0.006
1.185,0.028
1.186,0.064
1.187,0.100
1.188,0.127
1.189,0.178
1.190,0.242
1.191,0.300
1.192,0.356
1.193,0.422
1.194,0.489
1.195,0.578
1.196,0.679
1.197,0.759
1.198,0.851
1.199,0.931
1.200,1.004
1.201,1.062
1.202,1.112
1.203,1.175
1.204,1.253
1.205,1.319
1.206,1.378
1.207,1.428
1.208,1.494
1.209,1.509
1.210,1.517
1.211,1.456
1.212,1.362
1.213,1.263
1.214,1.158
1.215,1.062
1.216,0.971
1.217,0.881
1.218,0.789
1.219,0.713
1.220,0.639
1.221,0.569
1.222,0.494
1.223,0.425
1.224,0.364
1.225,0.309
1.226,0.249
1.227,0.200
1.228,0.144
1.229,0.097
1.230,0.046
1.231,0.016
1.232,0.001
1.233,-0.009
1.234,-0.023
1.235,-0.034
1.236,-0.039
1.237,-0.038
1.238,-0.044
1.239,-0.041
1.240,-0.028
1.241,-0.016
1.242,-0.003
1.243,0.006
1.244,0.013
1.245,0.019
1.246,0.028
1.247,0.028
1.248,0.034
1.249,0.038
1.250,0.041
1.251,0.047
1.252,0.047
1.253,0.044
1.254,0.043
1.255,0.034
1.256,0.036
1.257,0.031
1.258,0.033
1.259,0.031
1.260,0.027
1.261,0.019
1.262,0.013
1.263,0.009
1.264,0.008
1.265,0.009
1.266,0.005
1.267,0.006
1.268,0.009
1.269,0.009
1.270,0.013
1.271,0.009
1.272,0.011
1.273,0.009
1.274,0.006
1.275,0.006
1.276,0.002
1.277,0.000
1.278,0.004
1.279,0.003
1.280,-0.003
1.281,-0.006
1.282,-0.006
1.283,-0.006
1.284,-0.002
1.285,0.003
1.286,0.003
1.287,0.003
1.288,0.002
1.289,0.000
1.290,0.001
1.291,0.003
1.292,0.002
1.293,0.000
1.294,0.001
1.295,0.003
1.296,-0.001
1.297,0.000
1.298,0.000
1.299,0.000
1.300,0.001
1.301,0.006
1.302,0.009
1.303,0.006
1.304,0.005
1.305,0.003
1.306,0.006
1.307,0.003
1.308,0.003
1.309,0.003
1.310,0.003
1.311,0.003
1.312,0.003
1.313,0.003
1.314,0.003
1.315,0.003
1.316,0.003
1.317,0.009
1.318,0.009
1.319,0.016
1.320,0.017
1.321,0.019
1.322,0.019
1.323,0.022
1.324,0.016
1.325,0.016
1.326,0.016
1.327,0.016
1.328,0.014
1.329,0.013
1.330,0.016
1.331,0.016
1.332,0.011
1.333,0.013
1.334,0.017
1.335,0.022
1.336,0.025
1.337,0.022
1.338,0.022
1.339,0.025
1.340,0.021
1.341,0.022
1.342,0.022
1.343,0.022
1.344,0.026
1.345,0.028
1.346,0.031
1.347,0.028
1.348,0.027
1.349,0.028
1.350,0.031
1.351,0.028
1.352,0.028
1.353,0.028
1.354,0.029
1.355,0.031
1.356,0.030
1.357,0.028
1.358,0.031
1.359,0.038
1.360,0.034
1.361,0.034
1.362,0.036
1.363,0.034
1.364,0.036
1.365,0.038
1.366,0.041
1.367,0.044
1.368,0.046
1.369,0.047
1.370,0.048
1.371,0.047
1.372,0.046
1.373,0.044
1.374,0.041
1.375,0.041
1.376,0.039
1.377,0.041
1.378,0.039
1.379,0.041
1.380,0.038
1.381,0.038
1.382,0.041
1.383,0.038
1.384,0.041
1.385,0.041
1.386,0.044
1.387,0.047
1.388,0.048
1.389,0.047
1.390,0.046
1.391,0.044
1.392,0.044
1.393,0.044
1.394,0.045
1.395,0.047
1.396,0.050
1.397,0.053
1.398,0.055
1.399,0.053
1.400,0.053
1.401,0.056
1.402,0.052
1.403,0.053
1.404,0.051
1.405,0.056
1.406,0.054
1.407,0.056
1.408,0.058
1.409,0.056
1.410,0.058
1.411,0.053
1.412,0.055
1.413,0.053
1.414,0.056
1.415,0.059
1.416,0.064
1.417,0.066
1.418,0.063
1.419,0.066
1.420,0.063
1.421,0.063
1.422,0.064
1.423,0.063
1.424,0.064
1.425,0.066
1.426,0.061
1.427,0.059
1.428,0.061
1.429,0.063
1.430,0.059
1.431,0.063
1.432,0.064
1.433,0.066
1.434,0.063
1.435,0.063
1.436,0.063
1.437,0.063
1.438,0.064
1.439,0.066
1.440,0.067
1.441,0.069
1.442,0.072
1.443,0.072
1.444,0.069
1.445,0.069
1.446,0.069
1.447,0.069
1.448,0.068
1.449,0.069
1.450,0.072
1.451,0.069
1.452,0.067
1.453,0.069
1.454,0.069
1.455,0.069
1.456,0.069
1.457,0.069
1.458,0.071
1.459,0.069
1.460,0.070
1.461,0.069
1.462,0.072
1.463,0.078
1.464,0.079
1.465,0.078
1.466,0.077
1.467,0.075
1.468,0.075
1.469,0.072
1.470,0.072
1.471,0.072
1.472,0.074
1.473,0.075
1.474,0.072
1.475,0.075
1.476,0.072
1.477,0.072
1.478,0.073
1.479,0.075
1.480,0.072
1.481,0.072
1.482,0.072
1.483,0.072
1.484,0.072
1.485,0.069
1.486,0.070
1.487,0.066
1.488,0.066
1.489,0.066
1.490,0.066
1.491,0.066
1.492,0.066
1.493,0.066
1.494,0.064
1.495,0.063
1.496,0.064
1.497,0.063
1.498,0.059
1.499,0.059
1.500,0.059
1.501,0.059
1.502,0.063
1.503,0.066
1.504,0.066
1.505,0.066
1.506,0.066
1.507,0.066
1.508,0.063
1.509,0.063
1.510,0.058
1.511,0.059
1.512,0.063
1.513,0.063
1.514,0.063
1.515,0.063
1.516,0.059
1.517,0.063
1.518,0.069
1.519,0.072
1.520,0.072
1.521,0.072
1.522,0.069
1.523,0.069
1.524,0.066
1.525,0.066
1.526,0.069
1.527,0.066
1.528,0.073
1.529,0.081
1.530,0.081
1.531,0.081
1.532,0.083
1.533,0.081
1.534,0.081
1.535,0.081
1.536,0.088
1.537,0.091
1.538,0.089
1.539,0.094
1.540,0.094
1.541,0.094
1.542,0.094
1.543,0.091
1.544,0.091
1.545,0.094
1.546,0.097
1.547,0.097
1.548,0.097
1.549,0.100
1.550,0.102
1.551,0.100
1.552,0.100
1.553,0.103
1.554,0.109
1.555,0.113
1.556,0.113
1.557,0.116
1.558,0.116
1.559,0.116
1.560,0.117
1.561,0.119
1.562,0.118
1.563,0.119
1.564,0.120
1.565,0.122
1.566,0.121
1.567,0.122
1.568,0.122
1.569,0.125
1.570,0.125
1.571,0.125
1.572,0.124
1.573,0.122
1.574,0.125
1.575,0.122
1.576,0.122
1.577,0.122
1.578,0.120
1.579,0.122
1.580,0.119
1.581,0.122
1.582,0.123
1.583,0.122
1.584,0.118
1.585,0.116
1.586,0.114
1.587,0.109
1.588,0.106
1.589,0.106
1.590,0.109
1.591,0.106
1.592,0.103
1.593,0.100
1.594,0.094
1.595,0.091
1.596,0.094
1.597,0.091
1.598,0.086
1.599,0.081
1.600,0.084
1.601,0.078
1.602,0.077
1.603,0.072
1.604,0.070
1.605,0.072
1.606,0.073
1.607,0.069
1.608,0.064
1.609,0.063
1.610,0.061
1.611,0.053
1.612,0.054
1.613,0.053
1.614,0.047
1.615,0.047
1.616,0.046
1.617,0.041
1.618,0.034
1.619,0.031
1.620,0.031
1.621,0.028
1.622,0.031
1.623,0.031
1.624,0.027
1.625,0.025
1.626,0.023
1.627,0.025
1.628,0.023
1.629,0.025
1.630,0.022
1.631,0.019
1.632,0.019
1.633,0.016
1.634,0.011
1.635,0.009
1.636,0.011
1.637,0.009
1.638,0.005
1.639,0.006
1.640,0.002
1.641,0.003
1.642,0.004
1.643,0.000
1.644,0.000
1.645,0.000
1.646,0.000
1.647,0.000
1.648,0.000
1.649,-0.003
1.650,-0.006
1.651,-0.009
1.652,-0.006
1.653,0.000
1.654,0.001
1.655,0.000
1.656,-0.001
1.657,-0.009
1.658,-0.008
1.659,-0.009
1.660,-0.009
1.661,-0.006
1.662,-0.009
1.663,-0.006
1.664,-0.009
1.665,-0.009
1.666,-0.011
1.667,-0.013
1.668,-0.009
1.669,-0.009
1.670,-0.016
1.671,-0.013
1.672,-0.008
1.673,-0.006
1.674,-0.003
1.675,-0.006
1.676,-0.006
1.677,-0.006
1.678,-0.004
1.679,-0.006
1.680,-0.005
1.681,-0.003
1.682,-0.006
1.683,-0.006
1.684,-0.006
1.685,-0.009
1.686,-0.011
1.687,-0.013
1.688,-0.009
1.689,-0.009
1.690,-0.005
1.691,-0.003
1.692,-0.003
1.693,-0.006
1.694,-0.002
1.695,0.000
1.696,-0.001
1.697,-0.003
1.698,-0.004
1.699,-0.006
1.700,-0.003
1.701,0.000
1.702,0.001
1.703,0.003
1.704,0.000
1.705,-0.003
1.706,-0.002
1.707,0.000
1.708,0.001
1.709,0.003
1.710,0.000
1.711,-0.003
1.712,-0.003
1.713,0.000
1.714,0.001
1.715,0.003
1.716,0.000
1.717,0.000
1.718,0.003
1.719,0.003
1.720,-0.001
1.721,-0.003
1.722,-0.002
1.723,0.000
1.724,0.001
1.725,0.003
1.726,0.006
1.727,0.006
1.728,0.014
1.729,0.013
1.730,0.006
1.731,0.006
1.732,0.006
1.733,0.006
1.734,0.006
1.735,0.006
1.736,0.006
1.737,0.006
1.738,0.006
1.739,0.009
1.740,0.006
1.741,0.006
1.742,0.003
1.743,0.003
1.744,0.001
1.745,0.003
1.746,0.003
1.747,0.003
1.748,0.005
1.749,0.003
1.750,0.004
1.751,0.006
1.752,0.002
1.753,0.003
1.754,0.003
1.755,0.000
1.756,0.000
1.757,0.000
1.758,0.000
1.759,0.000
1.760,0.000
1.761,0.000
1.762,-0.003
1.763,-0.006
1.764,-0.005
1.765,-0.003
1.766,-0.006
1.767,-0.006
1.768,-0.008
1.769,-0.009
1.770,-0.009
1.771,-0.009
1.772,-0.008
1.773,-0.009
1.774,-0.009
1.775,-0.009
1.776,-0.009
1.777,-0.006
1.778,-0.009
1.779,-0.013
1.780,-0.013
1.781,-0.013
1.782,-0.013
1.783,-0.013
1.784,-0.016
1.785,-0.013
1.786,-0.016
1.787,-0.016
1.788,-0.016
1.789,-0.016
1.790,-0.017
1.791,-0.019
1.792,-0.022
1.793,-0.025
1.794,-0.025
1.795,-0.025
1.796,-0.022
1.797,-0.019
1.798,-0.020
1.799,-0.022
1.800,-0.021
1.801,-0.022
1.802,-0.019
1.803,-0.019
1.804,-0.022
1.805,-0.022
1.806,-0.019
1.807,-0.025
1.808,-0.026
1.809,-0.031
1.810,-0.033
1.811,-0.034
1.812,-0.031
1.813,-0.031
1.814,-0.034
1.815,-0.034
1.816,-0.033
1.817,-0.031
1.818,-0.034
1.819,-0.034
1.820,-0.030
1.821,-0.031
1.822,-0.030
1.823,-0.031
1.824,-0.028
1.825,-0.031
1.826,-0.028
1.827,-0.031
1.828,-0.033
1.829,-0.034
1.830,-0.031
1.831,-0.034
1.832,-0.030
1.833,-0.034
1.834,-0.031
1.835,-0.034
1.836,-0.034
1.837,-0.034
1.838,-0.034
1.839,-0.034
1.840,-0.036
1.841,-0.041
1.842,-0.039
1.843,-0.038
1.844,-0.034
1.845,-0.034
1.846,-0.034
1.847,-0.034
1.848,-0.041
1.849,-0.044
1.850,-0.044
1.851,-0.044
1.852,-0.044
1.853,-0.044
1.854,-0.043
1.855,-0.044
1.856,-0.045
1.857,-0.047
1.858,-0.047
1.859,-0.047
1.860,-0.046
1.861,-0.044
1.862,-0.043
1.863,-0.038
1.864,-0.041
1.865,-0.044
1.866,-0.044
1.867,-0.044
1.868,-0.044
1.869,-0.047
1.870,-0.050
1.871,-0.050
1.872,-0.050
1.873,-0.050
1.874,-0.050
1.875,-0.050
1.876,-0.053
1.877,-0.053
1.878,-0.051
1.879,-0.050
1.880,-0.049
1.881,-0.047
1.882,-0.050
1.883,-0.050
1.884,-0.050
1.885,-0.050
1.886,-0.047
1.887,-0.050
1.888,-0.050
1.889,-0.053
1.890,-0.053
1.891,-0.053
1.892,-0.054
1.893,-0.053
1.894,-0.047
1.895,-0.047
1.896,-0.053
1.897,-0.053
1.898,-0.058
1.899,-0.063
1.900,-0.061
1.901,-0.059
1.902,-0.056
1.903,-0.053
1.904,-0.056
1.905,-0.056
1.906,-0.056
1.907,-0.056
1.908,-0.058
1.909,-0.059
1.910,-0.061
1.911,-0.063
1.912,-0.059
1.913,-0.056
1.914,-0.058
1.915,-0.059
1.916,-0.061
1.917,-0.063
1.918,-0.063
1.919,-0.063
1.920,-0.063
1.921,-0.063
1.922,-0.063
1.923,-0.063
1.924,-0.063
1.925,-0.063
1.926,-0.061
1.927,-0.059
1.928,-0.059
1.929,-0.059
1.930,-0.059
1.931,-0.059
1.932,-0.061
1.933,-0.063
1.934,-0.064
1.935,-0.066
1.936,-0.066
1.937,-0.066
1.938,-0.063
1.939,-0.059
1.940,-0.059
1.941,-0.059
1.942,-0.061
1.943,-0.063
1.944,-0.063
1.945,-0.063
1.946,-0.063
1.947,-0.063
1.948,-0.063
1.949,-0.063
1.950,-0.064
1.951,-0.066
1.952,-0.066
1.953,-0.066
1.954,-0.063
1.955,-0.059
1.956,-0.063
1.957,-0.066
1.958,-0.066
1.959,-0.066
1.960,-0.063
1.961,-0.059
1.962,-0.059
1.963,-0.059
1.964,-0.061
1.965,-0.063
1.966,-0.064
1.967,-0.066
1.968,-0.067
1.969,-0.069
1.970,-0.068
1.971,-0.066
1.972,-0.066
1.973,-0.066
1.974,-0.066
1.975,-0.066
1.976,-0.066
1.977,-0.066
1.978,-0.066
1.979,-0.066
1.980,-0.066
1.981,-0.066
1.982,-0.066
1.983,-0.066
1.984,-0.066
1.985,-0.066
1.986,-0.064
1.987,-0.063
1.988,-0.061
1.989,-0.059
1.990,-0.061
1.991,-0.063
1.992,-0.066
1.993,-0.069
1.994,-0.069
1.995,-0.069
1.996,-0.068
1.997,-0.066
1.998,-0.066
1.999,-0.066
2.000,-0.066
2.001,-0.066
2.002,-0.064
2.003,-0.063
2.004,-0.063
2.005,-0.063
2.006,-0.064
2.007,-0.066
2.008,-0.066
2.009,-0.066
2.010,-0.066
2.011,-0.066
2.012,-0.067
2.013,-0.069
2.014,-0.069
2.015,-0.069
2.016,-0.069
2.017,-0.069
2.018,-0.069
2.019,-0.069
2.020,-0.069
2.021,-0.069
2.022,-0.070
2.023,-0.072
2.024,-0.071
2.025,-0.069
2.026,-0.068
2.027,-0.066
2.028,-0.066
2.029,-0.066
2.030,-0.067
2.031,-0.069
2.032,-0.069
2.033,-0.069
2.034,-0.070
2.035,-0.072
2.036,-0.072
2.037,-0.072
2.038,-0.072
2.039,-0.072
2.040,-0.072
2.041,-0.072
2.042,-0.072
2.043,-0.072
2.044,-0.072
2.045,-0.072
2.046,-0.072
2.047,-0.072
2.048,-0.073
2.049,-0.075
2.050,-0.075
2.051,-0.075
2.052,-0.074
2.053,-0.072
2.054,-0.072
2.055,-0.072
2.056,-0.072
2.057,-0.072
2.058,-0.069
2.059,-0.066
2.060,-0.066
2.061,-0.066
2.062,-0.067
2.063,-0.069
2.064,-0.069
2.065,-0.069
2.066,-0.068
2.067,-0.066
2.068,-0.066
2.069,-0.066
2.070,-0.067
2.071,-0.069
2.072,-0.069
2.073,-0.069
2.074,-0.069
2.075,-0.069
2.076,-0.069
2.077,-0.069
2.078,-0.069
2.079,-0.069
2.080,-0.069
2.081,-0.069
2.082,-0.069
2.083,-0.069
2.084,-0.069
2.085,-0.069
2.086,-0.069
2.087,-0.069
2.088,-0.070
2.089,-0.072
2.090,-0.073
2.091,-0.075
2.092,-0.075
2.093,-0.075
2.094,-0.075
2.095,-0.075
2.096,-0.075
2.097,-0.075
2.098,-0.075
2.099,-0.075
2.100,-0.074
2.101,-0.072
2.102,-0.072
2.103,-0.072
2.104,-0.073
2.105,-0.075
2.106,-0.074
2.107,-0.072
2.108,-0.072
2.109,-0.072
2.110,-0.072
2.111,-0.072
2.112,-0.072
2.113,-0.072
2.114,-0.075
2.115,-0.078
2.116,-0.077
2.117,-0.075
2.118,-0.075
2.119,-0.075
2.120,-0.075
2.121,-0.075
2.122,-0.076
2.123,-0.078
2.124,-0.079
2.125,-0.081
2.126,-0.078
2.127,-0.075
2.128,-0.075
2.129,-0.075
2.130,-0.075
2.131,-0.075
2.132,-0.075
2.133,-0.075
2.134,-0.078
2.135,-0.081
2.136,-0.081
2.137,-0.081
2.138,-0.080
2.139,-0.078
2.140,-0.078
2.141,-0.078
2.142,-0.078
2.143,-0.078
2.144,-0.078
2.145,-0.078
2.146,-0.079
2.147,-0.081
2.148,-0.078
2.149,-0.075
2.150,-0.075
2.151,-0.075
2.152,-0.075
2.153,-0.075
2.154,-0.076
2.155,-0.078
2.156,-0.078
2.157,-0.078
2.158,-0.078
2.159,-0.078
2.160,-0.078
2.161,-0.078
2.162,-0.078
2.163,-0.078
2.164,-0.078
2.165,-0.078
2.166,-0.078
2.167,-0.081
2.168,-0.084
2.169,-0.084
2.170,-0.081
2.171,-0.075
2.172,-0.075
2.173,-0.075
2.174,-0.079
2.175,-0.081
2.176,-0.083
2.177,-0.084
2.178,-0.083
2.179,-0.081
2.180,-0.080
2.181,-0.078
2.182,-0.075
2.183,-0.078
2.184,-0.077
2.185,-0.078
2.186,-0.078
2.187,-0.078
2.188,-0.079
2.189,-0.078
2.190,-0.078
2.191,-0.078
2.192,-0.078
2.193,-0.081
2.194,-0.081
2.195,-0.084
2.196,-0.088
2.197,-0.088
2.198,-0.088
2.199,-0.088
2.200,-0.088
2.201,-0.088
2.202,-0.086
2.203,-0.088
2.204,-0.084
2.205,-0.081
2.206,-0.075
2.207,-0.075
2.208,-0.079
2.209,-0.078
2.210,-0.076
2.211,-0.081
2.212,-0.084
2.213,-0.088
2.214,-0.088
2.215,-0.088
2.216,-0.084
2.217,-0.081
2.218,-0.080
2.219,-0.078
2.220,-0.078
2.221,-0.078
2.222,-0.076
2.223,-0.081
2.224,-0.081
2.225,-0.081
2.226,-0.081
2.227,-0.081
2.228,-0.081
2.229,-0.081
2.230,-0.081
2.231,-0.081
2.232,-0.086
2.233,-0.088
2.234,-0.086
2.235,-0.084
2.236,-0.089
2.237,-0.091
2.238,-0.088
2.239,-0.088
2.240,-0.086
2.241,-0.084
2.242,-0.088
2.243,-0.088
2.244,-0.084
2.245,-0.088
2.246,-0.088
2.247,-0.091
2.248,-0.092
2.249,-0.091
2.250,-0.089
2.251,-0.088
2.252,-0.089
2.253,-0.091
2.254,-0.089
2.255,-0.091
2.256,-0.089
2.257,-0.091
2.258,-0.088
2.259,-0.088
2.260,-0.088
2.261,-0.084
2.262,-0.088
2.263,-0.088
2.264,-0.089
2.265,-0.088
2.266,-0.089
2.267,-0.088
2.268,-0.084
2.269,-0.084
2.270,-0.086
2.271,-0.088
2.272,-0.088
2.273,-0.088
2.274,-0.089
2.275,-0.091
2.276,-0.089
2.277,-0.088
2.278,-0.092
2.279,-0.091
2.280,-0.091
2.281,-0.091
2.282,-0.091
2.283,-0.091
2.284,-0.091
2.285,-0.091
2.286,-0.088
2.287,-0.088
2.288,-0.092
2.289,-0.091
2.290,-0.091
2.291,-0.091
2.292,-0.091
2.293,-0.091
2.294,-0.089
2.295,-0.091
2.296,-0.091
2.297,-0.091
2.298,-0.091
2.299,-0.091
2.300,-0.091
2.301,-0.091
2.302,-0.088
2.303,-0.091
2.304,-0.089
2.305,-0.091
2.306,-0.089
2.307,-0.091
2.308,-0.094
2.309,-0.091
2.310,-0.089
2.311,-0.088
2.312,-0.089
2.313,-0.091
2.314,-0.089
2.315,-0.088
2.316,-0.081
2.317,-0.084
2.318,-0.083
2.319,-0.081
2.320,-0.084
2.321,-0.084
2.322,-0.086
2.323,-0.084
2.324,-0.089
2.325,-0.088
2.326,-0.084
2.327,-0.081
2.328,-0.080
2.329,-0.081
2.330,-0.084
2.331,-0.088
2.332,-0.089
2.333,-0.091
2.334,-0.091
2.335,-0.091
2.336,-0.094
2.337,-0.091
2.338,-0.088
2.339,-0.084
2.340,-0.084
2.341,-0.084
2.342,-0.086
2.343,-0.088
2.344,-0.083
2.345,-0.081
2.346,-0.083
2.347,-0.081
2.348,-0.081
2.349,-0.081
2.350,-0.081
2.351,-0.081
2.352,-0.079
2.353,-0.084
2.354,-0.084
2.355,-0.081
2.356,-0.083
2.357,-0.084
2.358,-0.084
2.359,-0.084
2.360,-0.084
2.361,-0.088
2.362,-0.086
2.363,-0.088
2.364,-0.084
2.365,-0.088
2.366,-0.084
2.367,-0.088
2.368,-0.088
2.369,-0.088
2.370,-0.083
2.371,-0.081
2.372,-0.084
2.373,-0.088
2.374,-0.089
2.375,-0.091
2.376,-0.088
2.377,-0.088
2.378,-0.086
2.379,-0.084
2.380,-0.088
2.381,-0.088
2.382,-0.088
2.383,-0.088
2.384,-0.088
2.385,-0.088
2.386,-0.088
2.387,-0.084
2.388,-0.080
2.389,-0.075
2.390,-0.078
2.391,-0.075
2.392,-0.075
2.393,-0.078
2.394,-0.079
2.395,-0.081
2.396,-0.080
2.397,-0.081
2.398,-0.084
2.399,-0.084
2.400,-0.086
2.401,-0.084
2.402,-0.084
2.403,-0.084
2.404,-0.086
2.405,-0.088
2.406,-0.091
2.407,-0.091
2.408,-0.088
2.409,-0.084
2.410,-0.086
2.411,-0.084
2.412,-0.083
2.413,-0.084
2.414,-0.086
2.415,-0.088
2.416,-0.088
2.417,-0.088
2.418,-0.088
2.419,-0.088
2.420,-0.088
2.421,-0.088
2.422,-0.088
2.423,-0.088
2.424,-0.086
2.425,-0.088
2.426,-0.089
2.427,-0.091
2.428,-0.088
2.429,-0.088
2.430,-0.084
2.431,-0.084
2.432,-0.088
2.433,-0.088
2.434,-0.088
2.435,-0.088
2.436,-0.088
2.437,-0.088
2.438,-0.081
2.439,-0.081
2.440,-0.081
2.441,-0.081
2.442,-0.086
2.443,-0.084
2.444,-0.080
2.445,-0.075
2.446,-0.076
2.447,-0.078
2.448,-0.077
2.449,-0.078
2.450,-0.078
2.451,-0.081
2.452,-0.083
2.453,-0.084
2.454,-0.080
2.455,-0.075
2.456,-0.069
2.457,-0.063
2.458,-0.059
2.459,-0.059
2.460,-0.063
2.461,-0.063
2.462,-0.056
2.463,-0.059
2.464,-0.059
2.465,-0.059
2.466,-0.052
2.467,-0.047
2.468,-0.044
2.469,-0.038
2.470,-0.033
2.471,-0.031
2.472,-0.027
2.473,-0.022
2.474,-0.018
2.475,-0.009
2.476,-0.009
2.477,-0.006
2.478,-0.006
2.479,-0.009
2.480,-0.013
2.481,-0.016
2.482,-0.018
2.483,-0.016
2.484,-0.022
2.485,-0.019
2.486,-0.014
2.487,-0.013
2.488,-0.013
2.489,-0.013
2.490,-0.011
2.491,-0.013
2.492,-0.014
2.493,-0.013
2.494,-0.014
2.495,-0.016
2.496,-0.016
2.497,-0.013
2.498,-0.008
2.499,-0.006
2.500,-0.004
2.501,-0.003
2.502,-0.006
2.503,-0.009
2.504,-0.006
2.505,-0.013
2.506,-0.019
2.507,-0.019
2.508,-0.021
2.509,-0.019
2.510,-0.018
2.511,-0.016
2.512,-0.014
2.513,-0.013
2.514,-0.013
2.515,-0.019
2.516,-0.023
2.517,-0.028
2.518,-0.036
2.519,-0.044
2.520,-0.042
2.521,-0.047
2.522,-0.049
2.523,-0.047
2.524,-0.051
2.525,-0.050
2.526,-0.047
2.527,-0.047
2.528,-0.049
2.529,-0.047
2.530,-0.050
2.531,-0.047
2.532,-0.049
2.533,-0.044
2.534,-0.041
2.535,-0.041
2.536,-0.047
2.537,-0.053
2.538,-0.059
2.539,-0.063
2.540,-0.068
2.541,-0.069
2.542,-0.076
2.543,-0.081
2.544,-0.083
2.545,-0.084
2.546,-0.084
2.547,-0.084
2.548,-0.086
2.549,-0.088
2.550,-0.091
2.551,-0.091
2.552,-0.091
2.553,-0.094
2.554,-0.091
2.555,-0.091
2.556,-0.094
2.557,-0.094
2.558,-0.093
2.559,-0.094
2.560,-0.094
2.561,-0.094
2.562,-0.094
2.563,-0.094
2.564,-0.093
2.565,-0.094
2.566,-0.093
2.567,-0.091
2.568,-0.088
2.569,-0.088
2.570,-0.088
2.571,-0.088
2.572,-0.092
2.573,-0.091
2.574,-0.091
2.575,-0.091
2.576,-0.091
2.577,-0.091
2.578,-0.089
2.579,-0.091
2.580,-0.089
2.581,-0.091
2.582,-0.091
2.583,-0.091
2.584,-0.092
2.585,-0.091
2.586,-0.091
2.587,-0.091
2.588,-0.089
2.589,-0.088
2.590,-0.091
2.591,-0.091
2.592,-0.092
2.593,-0.091
2.594,-0.094
2.595,-0.097
2.596,-0.096
2.597,-0.094
2.598,-0.094
2.599,-0.094
2.600,-0.094
2.601,-0.094
2.602,-0.091
2.603,-0.091
2.604,-0.094
2.605,-0.094
2.606,-0.091
2.607,-0.088
2.608,-0.089
2.609,-0.088
2.610,-0.089
2.611,-0.091
2.612,-0.089
2.613,-0.091
2.614,-0.091
2.615,-0.094
2.616,-0.098
2.617,-0.103
2.618,-0.106
2.619,-0.116
2.620,-0.129
2.621,-0.144
2.622,-0.159
2.623,-0.178
2.624,-0.196
2.625,-0.209
2.626,-0.222
2.627,-0.219
2.628,-0.220
2.629,-0.219
2.630,-0.216
2.631,-0.197
2.632,-0.182
2.633,-0.156
2.634,-0.125
2.635,-0.091
2.636,-0.058
2.637,-0.019
2.638,0.026
2.639,0.059
2.640,0.097
2.641,0.134
2.642,0.170
2.643,0.231
2.644,0.293
2.645,0.347
2.646,0.414
2.647,0.491
2.648,0.559
2.649,0.650
2.650,0.750
2.651,0.828
2.652,0.911
2.653,0.981
2.654,1.047
2.655,1.097
2.656,1.157
2.657,1.231
2.658,1.302
2.659,1.359
2.660,1.413
2.661,1.456
2.662,1.489
2.663,1.472
2.664,1.439
2.665,1.337
2.666,1.245
2.667,1.147
2.668,1.050
2.669,0.963
2.670,0.872
2.671,0.784
2.672,0.701
2.673,0.634
2.674,0.563
2.675,0.494
2.676,0.422
2.677,0.356
2.678,0.298
2.679,0.247
2.680,0.184
2.681,0.134
2.682,0.084
2.683,0.044
2.684,0.009
2.685,-0.003
2.686,-0.019
2.687,-0.031
2.688,-0.041
2.689,-0.047
2.690,-0.050
2.691,-0.047
2.692,-0.046
2.693,-0.034
2.694,-0.025
2.695,-0.016
2.696,-0.005
2.697,0.003
2.698,0.005
2.699,0.006
2.700,0.017
2.701,0.019
2.702,0.026
2.703,0.031
2.704,0.031
2.705,0.034
2.706,0.036
2.707,0.034
2.708,0.036
2.709,0.031
2.710,0.034
2.711,0.031
2.712,0.024
2.713,0.013
2.714,0.011
2.715,0.006
2.716,0.003
2.717,0.003
2.718,0.003
2.719,0.006
2.720,0.002
2.721,0.003
2.722,0.004
2.723,0.003
2.724,0.008
2.725,0.006
2.726,0.008
2.727,0.006
2.728,0.002
2.729,0.000
2.730,-0.006
2.731,-0.009
2.732,-0.005
2.733,-0.006
2.734,-0.009
2.735,-0.009
2.736,-0.009
2.737,-0.009
2.738,-0.008
2.739,-0.006
2.740,-0.002
2.741,0.003
2.742,0.003
2.743,0.003
2.744,0.003
2.745,0.003
2.746,0.002
2.747,0.000
2.748,0.000
2.749,0.000
2.750,-0.004
2.751,-0.003
2.752,-0.002
2.753,0.000
2.754,-0.001
2.755,0.000
2.756,0.004
2.757,0.003
2.758,0.003
2.759,0.003
2.760,0.008
2.761,0.006
2.762,0.005
2.763,0.003
2.764,0.003
2.765,0.003
2.766,0.006
2.767,0.009
2.768,0.009
2.769,0.009
2.770,0.008
2.771,0.013
2.772,0.011
2.773,0.016
2.774,0.014
2.775,0.013
2.776,0.011
2.777,0.013
2.778,0.009
2.779,0.013
2.780,0.013
2.781,0.013
2.782,0.011
2.783,0.009
2.784,0.013
2.785,0.013
2.786,0.009
2.787,0.013
2.788,0.013
2.789,0.013
2.790,0.017
2.791,0.016
2.792,0.019
2.793,0.025
2.794,0.022
2.795,0.025
2.796,0.025
2.797,0.025
2.798,0.025
2.799,0.022
2.800,0.025
2.801,0.022
2.802,0.021
2.803,0.022
2.804,0.025
2.805,0.022
2.806,0.022
2.807,0.022
2.808,0.022
2.809,0.022
2.810,0.025
2.811,0.028
2.812,0.028
2.813,0.031
2.814,0.027
2.815,0.025
2.816,0.028
2.817,0.028
2.818,0.033
2.819,0.038
2.820,0.036
2.821,0.034
2.822,0.034
2.823,0.034
2.824,0.036
2.825,0.034
2.826,0.034
2.827,0.034
2.828,0.031
2.829,0.031
2.830,0.033
2.831,0.038
2.832,0.038
2.833,0.041
2.834,0.038
2.835,0.038
2.836,0.041
2.837,0.038
2.838,0.041
2.839,0.041
2.840,0.043
2.841,0.044
2.842,0.045
2.843,0.044
2.844,0.044
2.845,0.044
2.846,0.045
2.847,0.047
2.848,0.050
2.849,0.053
2.850,0.054
2.851,0.056
2.852,0.056
2.853,0.053
2.854,0.052
2.855,0.053
2.856,0.050
2.857,0.053
2.858,0.050
2.859,0.053
2.860,0.053
2.861,0.056
2.862,0.059
2.863,0.059
2.864,0.061
2.865,0.056
2.866,0.059
2.867,0.059
2.868,0.059
2.869,0.059
2.870,0.064
2.871,0.066
2.872,0.061
2.873,0.063
2.874,0.059
2.875,0.059
2.876,0.061
2.877,0.059
2.878,0.061
2.879,0.063
2.880,0.056
2.881,0.053
2.882,0.056
2.883,0.059
2.884,0.059
2.885,0.066
2.886,0.066
2.887,0.066
2.888,0.063
2.889,0.063
2.890,0.063
2.891,0.063
2.892,0.063
2.893,0.063
2.894,0.063
2.895,0.063
2.896,0.066
2.897,0.066
2.898,0.063
2.899,0.063
2.900,0.063
2.901,0.063
2.902,0.059
2.903,0.059
2.904,0.066
2.905,0.066
2.906,0.064
2.907,0.066
2.908,0.066
2.909,0.066
2.910,0.066
2.911,0.066
2.912,0.069
2.913,0.069
2.914,0.070
2.915,0.069
2.916,0.068
2.917,0.069
2.918,0.070
2.919,0.069
2.920,0.069
2.921,0.069
2.922,0.070
2.923,0.069
2.924,0.069
2.925,0.069
2.926,0.071
2.927,0.072
2.928,0.069
2.929,0.072
2.930,0.069
2.931,0.069
2.932,0.069
2.933,0.069
2.934,0.067
2.935,0.069
2.936,0.069
2.937,0.069
2.938,0.071
2.939,0.069
2.940,0.070
2.941,0.066
2.942,0.064
2.943,0.063
2.944,0.063
2.945,0.063
2.946,0.061
2.947,0.059
2.948,0.059
2.949,0.059
2.950,0.061
2.951,0.059
2.952,0.055
2.953,0.053
2.954,0.056
2.955,0.059
2.956,0.059
2.957,0.059
2.958,0.059
2.959,0.059
2.960,0.061
2.961,0.063
2.962,0.061
2.963,0.063
2.964,0.061
2.965,0.066
2.966,0.068
2.967,0.066
2.968,0.067
2.969,0.069
2.970,0.064
2.971,0.066
2.972,0.068
2.973,0.066
2.974,0.067
2.975,0.069
2.976,0.067
2.977,0.069
2.978,0.068
2.979,0.069
2.980,0.073
2.981,0.072
2.982,0.074
2.983,0.075
2.984,0.075
2.985,0.075
2.986,0.079
2.987,0.081
2.988,0.081
2.989,0.081
2.990,0.083
2.991,0.081
2.992,0.083
2.993,0.091
2.994,0.089
2.995,0.088
2.996,0.091
2.997,0.091
2.998,0.092
2.999,0.097
3.000,0.100
3.001,0.100
3.002,0.099
3.003,0.100
3.004,0.104
3.005,0.106
3.006,0.105
3.007,0.106
3.008,0.108
3.009,0.106
3.010,0.111
3.011,0.119
3.012,0.119
3.013,0.119
3.014,0.118
3.015,0.116
3.016,0.114
3.017,0.116
3.018,0.116
3.019,0.116
3.020,0.114
3.021,0.116
3.022,0.114
3.023,0.116
3.024,0.116
3.025,0.116
3.026,0.116
3.027,0.116
3.028,0.119
3.029,0.116
3.030,0.116
3.031,0.116
3.032,0.113
3.033,0.113
3.034,0.111
3.035,0.116
3.036,0.114
3.037,0.109
3.038,0.106
3.039,0.106
3.040,0.108
3.041,0.106
3.042,0.103
3.043,0.103
3.044,0.105
3.045,0.100
3.046,0.096
3.047,0.091
3.048,0.088
3.049,0.088
3.050,0.089
3.051,0.084
3.052,0.083
3.053,0.081
3.054,0.083
3.055,0.075
3.056,0.074
3.057,0.069
3.058,0.066
3.059,0.066
3.060,0.067
3.061,0.063
3.062,0.059
3.063,0.059
3.064,0.059
3.065,0.053
3.066,0.053
3.067,0.050
3.068,0.044
3.069,0.044
3.070,0.045
3.071,0.044
3.072,0.039
3.073,0.038
3.074,0.036
3.075,0.031
3.076,0.033
3.077,0.031
3.078,0.027
3.079,0.025
3.080,0.023
3.081,0.025
3.082,0.019
3.083,0.016
3.084,0.014
3.085,0.013
3.086,0.016
3.087,0.016
3.088,0.011
3.089,0.009
3.090,0.008
3.091,0.003
3.092,0.000
3.093,0.003
3.094,-0.001
3.095,0.000
3.096,0.001
3.097,-0.003
3.098,-0.006
3.099,-0.009
3.100,-0.009
3.101,-0.009
3.102,-0.008
3.103,-0.009
3.104,-0.009
3.105,-0.009
3.106,-0.011
3.107,-0.009
3.108,-0.008
3.109,-0.009
3.110,-0.006
3.111,-0.009
3.112,-0.008
3.113,-0.009
3.114,-0.009
3.115,-0.006
3.116,-0.013
3.117,-0.013
3.118,-0.014
3.119,-0.013
3.120,-0.011
3.121,-0.009
3.122,-0.008
3.123,-0.009
3.124,-0.017
3.125,-0.016
3.126,-0.011
3.127,-0.009
3.128,-0.008
3.129,-0.013
3.130,-0.014
3.131,-0.016
3.132,-0.011
3.133,-0.009
3.134,-0.009
3.135,-0.009
3.136,-0.013
3.137,-0.013
3.138,-0.011
3.139,-0.013
3.140,-0.014
3.141,-0.016
3.142,-0.011
3.143,-0.009
3.144,-0.005
3.145,-0.003
3.146,-0.002
3.147,-0.003
3.148,-0.001
3.149,-0.003
3.150,-0.003
3.151,-0.003
3.152,-0.002
3.153,0.000
3.154,0.000
3.155,0.000
3.156,0.000
3.157,0.000
3.158,-0.001
3.159,-0.003
3.160,-0.003
3.161,-0.003
3.162,-0.003
3.163,-0.003
3.164,-0.003
3.165,-0.003
3.166,-0.004
3.167,-0.003
3.168,-0.003
3.169,-0.003
3.170,-0.002
3.171,0.003
3.172,0.004
3.173,0.003
3.174,0.000
3.175,0.000
3.176,0.000
3.177,0.000
3.178,0.000
3.179,0.000
3.180,0.002
3.181,0.000
3.182,0.008
3.183,0.006
3.184,0.000
3.185,0.000
3.186,0.000
3.187,0.000
3.188,-0.001
3.189,-0.003
3.190,-0.003
3.191,-0.003
3.192,-0.003
3.193,0.000
3.194,0.000
3.195,0.003
3.196,0.003
3.197,0.006
3.198,0.003
3.199,0.003
3.200,0.002
3.201,0.000
3.202,0.003
3.203,0.003
3.204,0.004
3.205,0.006
3.206,0.002
3.207,0.003
3.208,0.004
3.209,0.003
3.210,0.002
3.211,0.000
3.212,-0.004
3.213,-0.009
3.214,-0.009
3.215,-0.009
3.216,-0.011
3.217,-0.013
3.218,-0.009
3.219,-0.006
3.220,-0.009
3.221,-0.009
3.222,-0.008
3.223,-0.006
3.224,-0.008
3.225,-0.009
3.226,-0.009
3.227,-0.013
3.228,-0.014
3.229,-0.016
3.230,-0.016
3.231,-0.013
3.232,-0.014
3.233,-0.016
3.234,-0.016
3.235,-0.016
3.236,-0.017
3.237,-0.019
3.238,-0.022
3.239,-0.019
3.240,-0.022
3.241,-0.022
3.242,-0.022
3.243,-0.022
3.244,-0.021
3.245,-0.019
3.246,-0.022
3.247,-0.025
3.248,-0.025
3.249,-0.025
3.250,-0.025
3.251,-0.025
3.252,-0.026
3.253,-0.028
3.254,-0.028
3.255,-0.031
3.256,-0.029
3.257,-0.031
3.258,-0.034
3.259,-0.034
3.260,-0.030
3.261,-0.034
3.262,-0.034
3.263,-0.038
3.264,-0.038
3.265,-0.038
3.266,-0.034
3.267,-0.034
3.268,-0.038
3.269,-0.038
3.270,-0.036
3.271,-0.034
3.272,-0.038
3.273,-0.038
3.274,-0.034
3.275,-0.038
3.276,-0.038
3.277,-0.041
3.278,-0.038
3.279,-0.041
3.280,-0.034
3.281,-0.034
3.282,-0.038
3.283,-0.041
3.284,-0.039
3.285,-0.044
3.286,-0.039
3.287,-0.044
3.288,-0.041
3.289,-0.044
3.290,-0.044
3.291,-0.044
3.292,-0.044
3.293,-0.044
3.294,-0.043
3.295,-0.044
3.296,-0.044
3.297,-0.044
3.298,-0.042
3.299,-0.044
3.300,-0.045
3.301,-0.047
3.302,-0.049
3.303,-0.047
3.304,-0.046
3.305,-0.044
3.306,-0.045
3.307,-0.047
3.308,-0.048
3.309,-0.053
3.310,-0.053
3.311,-0.053
3.312,-0.053
3.313,-0.053
3.314,-0.053
3.315,-0.053
3.316,-0.053
3.317,-0.050
3.318,-0.052
3.319,-0.053
3.320,-0.053
3.321,-0.053
3.322,-0.051
3.323,-0.053
3.324,-0.056
3.325,-0.056
3.326,-0.056
3.327,-0.056
3.328,-0.055
3.329,-0.053
3.330,-0.056
3.331,-0.056
3.332,-0.054
3.333,-0.053
3.334,-0.053
3.335,-0.053
3.336,-0.055
3.337,-0.053
3.338,-0.054
3.339,-0.056
3.340,-0.052
3.341,-0.053
3.342,-0.052
3.343,-0.053
3.344,-0.053
3.345,-0.053
3.346,-0.056
3.347,-0.056
3.348,-0.052
3.349,-0.053
3.350,-0.058
3.351,-0.056
3.352,-0.056
3.353,-0.056
3.354,-0.056
3.355,-0.056
3.356,-0.055
3.357,-0.053
3.358,-0.056
3.359,-0.056
3.360,-0.056
3.361,-0.056
3.362,-0.057
3.363,-0.056
3.364,-0.056
3.365,-0.056
3.366,-0.056
3.367,-0.056
3.368,-0.056
3.369,-0.056
3.370,-0.059
3.371,-0.063
3.372,-0.064
3.373,-0.066
3.374,-0.063
3.375,-0.059
3.376,-0.061
3.377,-0.063
3.378,-0.064
3.379,-0.066
3.380,-0.066
3.381,-0.066
3.382,-0.066
3.383,-0.066
3.384,-0.066
3.385,-0.066
3.386,-0.064
3.387,-0.063
3.388,-0.063
3.389,-0.063
3.390,-0.063
3.391,-0.063
3.392,-0.063
3.393,-0.063
3.394,-0.063
3.395,-0.063
3.396,-0.063
3.397,-0.063
3.398,-0.064
3.399,-0.066
3.400,-0.067
3.401,-0.069
3.402,-0.069
3.403,-0.069
3.404,-0.069
3.405,-0.069
3.406,-0.069
3.407,-0.069
3.408,-0.069
3.409,-0.069
3.410,-0.069
3.411,-0.069
3.412,-0.069
3.413,-0.069
3.414,-0.068
3.415,-0.066
3.416,-0.066
3.417,-0.066
3.418,-0.067
3.419,-0.069
3.420,-0.069
3.421,-0.069
3.422,-0.069
3.423,-0.069
3.424,-0.069
3.425,-0.069
3.426,-0.069
3.427,-0.069
3.428,-0.069
3.429,-0.069
3.430,-0.069
3.431,-0.069
3.432,-0.069
3.433,-0.069
3.434,-0.069
3.435,-0.069
3.436,-0.069
3.437,-0.069
3.438,-0.069
3.439,-0.069
3.440,-0.069
3.441,-0.069
3.442,-0.069
3.443,-0.069
3.444,-0.069
3.445,-0.069
3.446,-0.069
3.447,-0.069
3.448,-0.069
3.449,-0.069
3.450,-0.070
3.451,-0.072
3.452,-0.072
3.453,-0.072
3.454,-0.072
3.455,-0.072
3.456,-0.072
3.457,-0.072
3.458,-0.072
3.459,-0.072
3.460,-0.072
3.461,-0.072
3.462,-0.072
3.463,-0.072
3.464,-0.072
3.465,-0.072
3.466,-0.072
3.467,-0.072
3.468,-0.072
3.469,-0.072
3.470,-0.072
3.471,-0.072
3.472,-0.072
3.473,-0.072
3.474,-0.072
3.475,-0.072
3.476,-0.072
3.477,-0.072
3.478,-0.072
3.479,-0.072
3.480,-0.072
3.481,-0.072
3.482,-0.072
3.483,-0.072
3.484,-0.069
3.485,-0.066
3.486,-0.066
3.487,-0.066
3.488,-0.067
3.489,-0.069
3.490,-0.069
3.491,-0.069
3.492,-0.069
3.493,-0.069
3.494,-0.070
3.495,-0.072
3.496,-0.073
3.497,-0.075
3.498,-0.075
3.499,-0.075
3.500,-0.074
3.501,-0.072
3.502,-0.072
3.503,-0.072
3.504,-0.072
3.505,-0.072
3.506,-0.072
3.507,-0.072
3.508,-0.072
3.509,-0.072
3.510,-0.072
3.511,-0.072
3.512,-0.072
3.513,-0.072
3.514,-0.072
3.515,-0.072
3.516,-0.072
3.517,-0.072
3.518,-0.072
3.519,-0.072
3.520,-0.072
3.521,-0.072
3.522,-0.072
3.523,-0.072
3.524,-0.072
3.525,-0.072
3.526,-0.072
3.527,-0.072
3.528,-0.072
3.529,-0.072
3.530,-0.069
3.531,-0.066
3.532,-0.066
3.533,-0.066
3.534,-0.066
3.535,-0.066
3.536,-0.066
3.537,-0.066
3.538,-0.066
3.539,-0.066
3.540,-0.066
3.541,-0.066
3.542,-0.067
3.543,-0.069
3.544,-0.069
3.545,-0.069
3.546,-0.069
3.547,-0.069
3.548,-0.068
3.549,-0.066
3.550,-0.066
3.551,-0.066
3.552,-0.067
3.553,-0.069
3.554,-0.069
3.555,-0.069
3.556,-0.069
3.557,-0.069
3.558,-0.069
3.559,-0.069
3.560,-0.069
3.561,-0.069
3.562,-0.069
3.563,-0.069
3.564,-0.069
3.565,-0.069
3.566,-0.069
3.567,-0.069
3.568,-0.069
3.569,-0.069
3.570,-0.069
3.571,-0.069
3.572,-0.069
3.573,-0.069
3.574,-0.069
3.575,-0.069
3.576,-0.069
3.577,-0.069
3.578,-0.069
3.579,-0.069
3.580,-0.069
3.581,-0.069
3.582,-0.069
3.583,-0.069
3.584,-0.069
3.585,-0.069
3.586,-0.069
3.587,-0.069
3.588,-0.069
3.589,-0.069
3.590,-0.070
3.591,-0.072
3.592,-0.073
3.593,-0.075
3.594,-0.075
3.595,-0.075
3.596,-0.074
3.597,-0.072
3.598,-0.072
3.599,-0.072
3.600,-0.072
3.601,-0.072
3.602,-0.072
3.603,-0.072
3.604,-0.072
3.605,-0.072
3.606,-0.072
3.607,-0.072
3.608,-0.072
3.609,-0.072
3.610,-0.072
3.611,-0.072
3.612,-0.072
3.613,-0.072
3.614,-0.072
3.615,-0.072
3.616,-0.072
3.617,-0.072
3.618,-0.072
3.619,-0.072
3.620,-0.072
3.621,-0.072
3.622,-0.070
3.623,-0.072
3.624,-0.073
3.625,-0.072
3.626,-0.073
3.627,-0.072
3.628,-0.071
3.629,-0.069
3.630,-0.072
3.631,-0.072
3.632,-0.072
3.633,-0.072
3.634,-0.072
3.635,-0.072
3.636,-0.072
3.637,-0.072
3.638,-0.069
3.639,-0.072
3.640,-0.071
3.641,-0.072
3.642,-0.073
3.643,-0.075
3.644,-0.076
3.645,-0.075
3.646,-0.075
3.647,-0.075
3.648,-0.072
3.649,-0.072
3.650,-0.071
3.651,-0.072
3.652,-0.072
3.653,-0.069
3.654,-0.069
3.655,-0.069
3.656,-0.069
3.657,-0.069
3.658,-0.069
3.659,-0.072
3.660,-0.072
3.661,-0.072
3.662,-0.066
3.663,-0.066
3.664,-0.072
3.665,-0.072
3.666,-0.069
3.667,-0.072
3.668,-0.072
3.669,-0.072
3.670,-0.072
3.671,-0.072
3.672,-0.072
3.673,-0.072
3.674,-0.072
3.675,-0.072
3.676,-0.072
3.677,-0.072
3.678,-0.069
3.679,-0.072
3.680,-0.072
3.681,-0.072
3.682,-0.072
3.683,-0.072
3.684,-0.072
3.685,-0.072
3.686,-0.072
3.687,-0.072
3.688,-0.073
3.689,-0.072
3.690,-0.071
3.691,-0.069
3.692,-0.072
3.693,-0.072
3.694,-0.068
3.695,-0.066
3.696,-0.064
3.697,-0.063
3.698,-0.066
3.699,-0.066
3.700,-0.063
3.701,-0.066
3.702,-0.064
3.703,-0.066
3.704,-0.069
3.705,-0.069
3.706,-0.069
3.707,-0.069
3.708,-0.069
3.709,-0.069
3.710,-0.068
3.711,-0.069
3.712,-0.069
3.713,-0.072
3.714,-0.070
3.715,-0.072
3.716,-0.073
3.717,-0.072
3.718,-0.074
3.719,-0.072
3.720,-0.072
3.721,-0.069
3.722,-0.072
3.723,-0.072
3.724,-0.070
3.725,-0.072
3.726,-0.072
3.727,-0.072
3.728,-0.072
3.729,-0.072
3.730,-0.072
3.731,-0.072
3.732,-0.072
3.733,-0.072
3.734,-0.076
3.735,-0.075
3.736,-0.075
3.737,-0.075
3.738,-0.074
3.739,-0.072
3.740,-0.071
3.741,-0.069
3.742,-0.068
3.743,-0.069
3.744,-0.073
3.745,-0.072
3.746,-0.072
3.747,-0.072
3.748,-0.073
3.749,-0.075
3.750,-0.073
3.751,-0.075
3.752,-0.075
3.753,-0.075
3.754,-0.075
3.755,-0.075
3.756,-0.074
3.757,-0.072
3.758,-0.068
3.759,-0.069
3.760,-0.069
3.761,-0.072
3.762,-0.069
3.763,-0.069
3.764,-0.071
3.765,-0.066
3.766,-0.067
3.767,-0.069
3.768,-0.070
3.769,-0.072
3.770,-0.072
3.771,-0.072
3.772,-0.066
3.773,-0.069
3.774,-0.069
3.775,-0.069
3.776,-0.072
3.777,-0.072
3.778,-0.073
3.779,-0.072
3.780,-0.074
3.781,-0.069
3.782,-0.070
3.783,-0.072
3.784,-0.072
3.785,-0.075
3.786,-0.075
3.787,-0.075
3.788,-0.074
3.789,-0.072
3.790,-0.072
3.791,-0.072
3.792,-0.075
3.793,-0.072
3.794,-0.072
3.795,-0.072
3.796,-0.071
3.797,-0.069
3.798,-0.069
3.799,-0.069
3.800,-0.069
3.801,-0.072
3.802,-0.075
3.803,-0.075
3.804,-0.072
3.805,-0.069
3.806,-0.070
3.807,-0.072
3.808,-0.069
3.809,-0.072
3.810,-0.073
3.811,-0.072
3.812,-0.072
3.813,-0.072
3.814,-0.072
3.815,-0.072
3.816,-0.072
3.817,-0.075
3.818,-0.071
3.819,-0.069
3.820,-0.064
3.821,-0.066
3.822,-0.063
3.823,-0.066
3.824,-0.069
3.825,-0.072
3.826,-0.069
3.827,-0.069
3.828,-0.073
3.829,-0.078
3.830,-0.078
3.831,-0.078
3.832,-0.076
3.833,-0.078
3.834,-0.075
3.835,-0.072
3.836,-0.074
3.837,-0.072
3.838,-0.072
3.839,-0.072
3.840,-0.072
3.841,-0.072
3.842,-0.073
3.843,-0.072
3.844,-0.071
3.845,-0.069
3.846,-0.073
3.847,-0.072
3.848,-0.071
3.849,-0.072
3.850,-0.072
3.851,-0.072
3.852,-0.072
3.853,-0.075
3.854,-0.076
3.855,-0.075
3.856,-0.076
3.857,-0.075
3.858,-0.075
3.859,-0.075
3.860,-0.074
3.861,-0.072
3.862,-0.075
3.863,-0.075
3.864,-0.076
3.865,-0.078
3.866,-0.078
3.867,-0.075
3.868,-0.074
3.869,-0.075
3.870,-0.075
3.871,-0.075
3.872,-0.075
3.873,-0.075
3.874,-0.076
3.875,-0.078
3.876,-0.077
3.877,-0.075
3.878,-0.075
3.879,-0.075
3.880,-0.076
3.881,-0.081
3.882,-0.083
3.883,-0.084
3.884,-0.083
3.885,-0.084
3.886,-0.080
3.887,-0.078
3.888,-0.077
3.889,-0.072
3.890,-0.072
3.891,-0.072
3.892,-0.076
3.893,-0.081
3.894,-0.077
3.895,-0.078
3.896,-0.079
3.897,-0.081
3.898,-0.086
3.899,-0.084
3.900,-0.084
3.901,-0.084
3.902,-0.078
3.903,-0.072
3.904,-0.071
3.905,-0.072
3.906,-0.070
3.907,-0.072
3.908,-0.071
3.909,-0.069
3.910,-0.070
3.911,-0.072
3.912,-0.070
3.913,-0.069
3.914,-0.066
3.915,-0.066
3.916,-0.066
3.917,-0.063
3.918,-0.056
3.919,-0.059
3.920,-0.053
3.921,-0.047
3.922,-0.041
3.923,-0.038
3.924,-0.036
3.925,-0.031
3.926,-0.024
3.927,-0.019
3.928,-0.019
3.929,-0.019
3.930,-0.016
3.931,-0.009
3.932,-0.009
3.933,-0.006
3.934,-0.002
3.935,0.000
3.936,-0.004
3.937,-0.009
3.938,-0.011
3.939,-0.009
3.940,-0.017
3.941,-0.016
3.942,-0.011
3.943,-0.009
3.944,-0.011
3.945,-0.013
3.946,-0.011
3.947,-0.013
3.948,-0.014
3.949,-0.013
3.950,-0.014
3.951,-0.016
3.952,-0.013
3.953,-0.006
3.954,-0.003
3.955,-0.003
3.956,0.000
3.957,0.003
3.958,0.002
3.959,0.000
3.960,0.001
3.961,-0.006
3.962,-0.016
3.963,-0.019
3.964,-0.021
3.965,-0.019
3.966,-0.018
3.967,-0.016
3.968,-0.014
3.969,-0.013
3.970,-0.016
3.971,-0.025
3.972,-0.027
3.973,-0.028
3.974,-0.034
3.975,-0.041
3.976,-0.039
3.977,-0.044
3.978,-0.046
3.979,-0.044
3.980,-0.046
3.981,-0.041
3.982,-0.038
3.983,-0.038
3.984,-0.042
3.985,-0.044
3.986,-0.046
3.987,-0.041
3.988,-0.044
3.989,-0.041
3.990,-0.039
3.991,-0.041
3.992,-0.041
3.993,-0.041
3.994,-0.047
3.995,-0.050
3.996,-0.056
3.997,-0.059
3.998,-0.064
3.999,-0.066
4.000,-0.068
4.001,-0.069
4.002,-0.070
4.003,-0.072
4.004,-0.078
4.005,-0.084
4.006,-0.089
4.007,-0.091
4.008,-0.089
4.009,-0.091
4.010,-0.086
4.011,-0.084
4.012,-0.083
4.013,-0.078
4.014,-0.077
4.015,-0.078
4.016,-0.079
4.017,-0.081
4.018,-0.081
4.019,-0.081
4.020,-0.081
4.021,-0.084
4.022,-0.089
4.023,-0.094
4.024,-0.091
4.025,-0.091
4.026,-0.091
4.027,-0.091
4.028,-0.091
4.029,-0.084
4.030,-0.084
4.031,-0.084
4.032,-0.086
4.033,-0.088
4.034,-0.086
4.035,-0.088
4.036,-0.088
4.037,-0.091
4.038,-0.091
4.039,-0.091
4.040,-0.094
4.041,-0.094
4.042,-0.091
4.043,-0.088
4.044,-0.088
4.045,-0.088
4.046,-0.091
4.047,-0.091
4.048,-0.092
4.049,-0.091
4.050,-0.089
4.051,-0.088
4.052,-0.088
4.053,-0.088
4.054,-0.088
4.055,-0.088
4.056,-0.089
4.057,-0.091
4.058,-0.086
4.059,-0.084
4.060,-0.088
4.061,-0.088
4.062,-0.084
4.063,-0.081
4.064,-0.083
4.065,-0.081
4.066,-0.084
4.067,-0.088
4.068,-0.086
4.069,-0.088
4.070,-0.089
4.071,-0.094
4.072,-0.096
4.073,-0.097
4.074,-0.101
4.075,-0.112
4.076,-0.125
4.077,-0.137
4.078,-0.154
4.079,-0.175
4.080,-0.194
4.081,-0.209
4.082,-0.222
4.083,-0.219
4.084,-0.222
4.085,-0.222
4.086,-0.219
4.087,-0.200
4.088,-0.181
4.089,-0.150
4.090,-0.119
4.091,-0.084
4.092,-0.054
4.093,-0.019
4.094,0.024
4.095,0.053
4.096,0.094
4.097,0.134
4.098,0.167
4.099,0.225
4.100,0.283
4.101,0.334
4.102,0.404
4.103,0.484
4.104,0.561
4.105,0.659
4.106,0.759
4.107,0.837
4.108,0.919
4.109,0.988
4.110,1.056
4.111,1.109
4.112,1.166
4.113,1.234
4.114,1.303
4.115,1.359
4.116,1.413
4.117,1.456
4.118,1.484
4.119,1.463
4.120,1.431
4.121,1.331
4.122,1.241
4.123,1.144
4.124,1.047
4.125,0.959
4.126,0.871
4.127,0.784
4.128,0.696
4.129,0.622
4.130,0.549
4.131,0.478
4.132,0.412
4.133,0.353
4.134,0.294
4.135,0.241
4.136,0.181
4.137,0.134
4.138,0.088
4.139,0.050
4.140,0.013
4.141,-0.003
4.142,-0.018
4.143,-0.028
4.144,-0.041
4.145,-0.050
4.146,-0.055
4.147,-0.053
4.148,-0.053
4.149,-0.044
4.150,-0.033
4.151,-0.022
4.152,-0.008
4.153,0.003
4.154,0.006
4.155,0.009
4.156,0.020
4.157,0.022
4.158,0.027
4.159,0.028
4.160,0.028
4.161,0.031
4.162,0.030
4.163,0.025
4.164,0.025
4.165,0.019
4.166,0.019
4.167,0.013
4.168,0.014
4.169,0.013
4.170,0.013
4.171,0.009
4.172,0.006
4.173,0.006
4.174,0.006
4.175,0.009
4.176,0.005
4.177,0.006
4.178,0.006
4.179,0.003
4.180,0.003
4.181,-0.003
4.182,-0.002
4.183,-0.003
4.184,-0.006
4.185,-0.006
4.186,-0.009
4.187,-0.009
4.188,-0.008
4.189,-0.013
4.190,-0.016
4.191,-0.016
4.192,-0.017
4.193,-0.019
4.194,-0.013
4.195,-0.006
4.196,-0.008
4.197,-0.009
4.198,-0.006
4.199,-0.003
4.200,-0.004
4.201,-0.006
4.202,-0.008
4.203,-0.009
4.204,-0.008
4.205,-0.006
4.206,-0.011
4.207,-0.009
4.208,-0.005
4.209,0.000
4.210,-0.003
4.211,-0.003
4.212,-0.001
4.213,-0.006
4.214,-0.006
4.215,-0.006
4.216,-0.003
4.217,-0.006
4.218,-0.003
4.219,0.000
4.220,0.000
4.221,0.000
4.222,0.000
4.223,0.000
4.224,0.001
4.225,0.003
4.226,0.000
4.227,0.003
4.228,0.000
4.229,0.003
4.230,0.003
4.231,0.003
4.232,0.003
4.233,0.006
4.234,0.002
4.235,0.003
4.236,0.003
4.237,0.003
4.238,0.002
4.239,0.000
4.240,0.006
4.241,0.009
4.242,0.006
4.243,0.009
4.244,0.009
4.245,0.009
4.246,0.016
4.247,0.016
4.248,0.014
4.249,0.016
4.250,0.011
4.251,0.013
4.252,0.014
4.253,0.016
4.254,0.019
4.255,0.019
4.256,0.022
4.257,0.019
4.258,0.014
4.259,0.013
4.260,0.017
4.261,0.016
4.262,0.017
4.263,0.019
4.264,0.019
4.265,0.019
4.266,0.020
4.267,0.022
4.268,0.022
4.269,0.025
4.270,0.023
4.271,0.025
4.272,0.027
4.273,0.025
4.274,0.026
4.275,0.028
4.276,0.027
4.277,0.025
4.278,0.025
4.279,0.025
4.280,0.029
4.281,0.031
4.282,0.031
4.283,0.031
4.284,0.028
4.285,0.028
4.286,0.027
4.287,0.028
4.288,0.028
4.289,0.031
4.290,0.033
4.291,0.038
4.292,0.041
4.293,0.038
4.294,0.039
4.295,0.038
4.296,0.039
4.297,0.041
4.298,0.042
4.299,0.041
4.300,0.041
4.301,0.041
4.302,0.041
4.303,0.041
4.304,0.041
4.305,0.041
4.306,0.041
4.307,0.041
4.308,0.043
4.309,0.041
4.310,0.041
4.311,0.044
4.312,0.042
4.313,0.047
4.314,0.045
4.315,0.050
4.316,0.047
4.317,0.047
4.318,0.049
4.319,0.047
4.320,0.050
4.321,0.047
4.322,0.049
4.323,0.047
4.324,0.047
4.325,0.047
4.326,0.049
4.327,0.047
4.328,0.044
4.329,0.047
4.330,0.048
4.331,0.053
4.332,0.056
4.333,0.056
4.334,0.053
4.335,0.050
4.336,0.047
4.337,0.047
4.338,0.051
4.339,0.056
4.340,0.053
4.341,0.056
4.342,0.059
4.343,0.063
4.344,0.061
4.345,0.063
4.346,0.061
4.347,0.059
4.348,0.059
4.349,0.059
4.350,0.056
4.351,0.053
4.352,0.056
4.353,0.056
4.354,0.053
4.355,0.053
4.356,0.053
4.357,0.053
4.358,0.052
4.359,0.053
4.360,0.058
4.361,0.056
4.362,0.053
4.363,0.053
4.364,0.053
4.365,0.053
4.366,0.054
4.367,0.056
4.368,0.061
4.369,0.063
4.370,0.064
4.371,0.063
4.372,0.061
4.373,0.063
4.374,0.064
4.375,0.063
4.376,0.063
4.377,0.063
4.378,0.064
4.379,0.063
4.380,0.063
4.381,0.063
4.382,0.064
4.383,0.066
4.384,0.063
4.385,0.066
4.386,0.063
4.387,0.063
4.388,0.063
4.389,0.063
4.390,0.059
4.391,0.059
4.392,0.059
4.393,0.059
4.394,0.063
4.395,0.063
4.396,0.066
4.397,0.063
4.398,0.063
4.399,0.063
4.400,0.063
4.401,0.063
4.402,0.063
4.403,0.063
4.404,0.063
4.405,0.063
4.406,0.066
4.407,0.066
4.408,0.063
4.409,0.063
4.410,0.063
4.411,0.063
4.412,0.063
4.413,0.063
4.414,0.063
4.415,0.063
4.416,0.064
4.417,0.066
4.418,0.063
4.419,0.063
4.420,0.058
4.421,0.059
4.422,0.063
4.423,0.063
4.424,0.063
4.425,0.063
4.426,0.058
4.427,0.059
4.428,0.063
4.429,0.063
4.430,0.064
4.431,0.066
4.432,0.063
4.433,0.063
4.434,0.063
4.435,0.066
4.436,0.068
4.437,0.063
4.438,0.063
4.439,0.063
4.440,0.064
4.441,0.066
4.442,0.069
4.443,0.069
4.444,0.070
4.445,0.072
4.446,0.075
4.447,0.075
4.448,0.072
4.449,0.075
4.450,0.078
4.451,0.081
4.452,0.084
4.453,0.084
4.454,0.086
4.455,0.091
4.456,0.094
4.457,0.094
4.458,0.093
4.459,0.094
4.460,0.098
4.461,0.100
4.462,0.100
4.463,0.103
4.464,0.106
4.465,0.106
4.466,0.105
4.467,0.106
4.468,0.106
4.469,0.106
4.470,0.106
4.471,0.106
4.472,0.105
4.473,0.106
4.474,0.106
4.475,0.106
4.476,0.109
4.477,0.116
4.478,0.114
4.479,0.116
4.480,0.116
4.481,0.116
4.482,0.117
4.483,0.119
4.484,0.123
4.485,0.122
4.486,0.122
4.487,0.122
4.488,0.120
4.489,0.122
4.490,0.114
4.491,0.113
4.492,0.114
4.493,0.113
4.494,0.109
4.495,0.109
4.496,0.109
4.497,0.106
4.498,0.103
4.499,0.103
4.500,0.106
4.501,0.103
4.502,0.103
4.503,0.103
4.504,0.097
4.505,0.094
4.506,0.094
4.507,0.088
4.508,0.084
4.509,0.081
4.510,0.086
4.511,0.081
4.512,0.081
4.513,0.078
4.514,0.072
4.515,0.069
4.516,0.069
4.517,0.063
4.518,0.059
4.519,0.059
4.520,0.061
4.521,0.056
4.522,0.055
4.523,0.050
4.524,0.044
4.525,0.044
4.526,0.047
4.527,0.047
4.528,0.041
4.529,0.038
4.530,0.036
4.531,0.031
4.532,0.033
4.533,0.031
4.534,0.029
4.535,0.031
4.536,0.029
4.537,0.031
4.538,0.027
4.539,0.025
4.540,0.023
4.541,0.022
4.542,0.024
4.543,0.022
4.544,0.018
4.545,0.016
4.546,0.016
4.547,0.013
4.548,0.008
4.549,0.009
4.550,0.005
4.551,0.006
4.552,0.009
4.553,0.006
4.554,0.005
4.555,0.003
4.556,0.003
4.557,0.003
4.558,0.004
4.559,0.003
4.560,0.004
4.561,0.006
4.562,0.003
4.563,0.003
4.564,0.003
4.565,0.000
4.566,0.001
4.567,-0.003
4.568,-0.003
4.569,-0.006
4.570,-0.006
4.571,-0.003
4.572,-0.008
4.573,-0.006
4.574,-0.009
4.575,-0.009
4.576,-0.009
4.577,-0.009
4.578,-0.005
4.579,-0.003
4.580,-0.008
4.581,-0.003
4.582,0.000
4.583,0.000
4.584,0.003
4.585,0.000
4.586,0.000
4.587,0.000
4.588,0.002
4.589,0.000
4.590,0.001
4.591,0.003
4.592,0.000
4.593,0.000
4.594,0.000
4.595,-0.003
4.596,-0.003
4.597,-0.003
4.598,-0.001
4.599,-0.003
4.600,-0.001
4.601,-0.003
4.602,0.000
4.603,0.000
4.604,0.003
4.605,0.003
4.606,0.003
4.607,0.003
4.608,0.003
4.609,0.003
4.610,0.003
4.611,0.003
4.612,0.004
4.613,0.006
4.614,0.006
4.615,0.006
4.616,0.006
4.617,0.006
4.618,0.005
4.619,0.003
4.620,0.003
4.621,0.003
4.622,0.002
4.623,0.003
4.624,0.004
4.625,0.006
4.626,0.006
4.627,0.009
4.628,0.011
4.629,0.009
4.630,0.008
4.631,0.009
4.632,0.009
4.633,0.009
4.634,0.008
4.635,0.006
4.636,0.006
4.637,0.003
4.638,0.011
4.639,0.009
4.640,0.004
4.641,0.006
4.642,0.005
4.643,0.003
4.644,0.003
4.645,0.003
4.646,0.002
4.647,0.000
4.648,0.001
4.649,0.006
4.650,0.004
4.651,0.006
4.652,0.005
4.653,0.006
4.654,0.003
4.655,0.003
4.656,0.002
4.657,0.000
4.658,0.002
4.659,0.000
4.660,0.001
4.661,0.003
4.662,-0.001
4.663,0.000
4.664,0.001
4.665,0.000
4.666,0.000
4.667,0.000
4.668,0.000
4.669,0.000
4.670,0.000
4.671,0.000
4.672,-0.001
4.673,-0.003
4.674,-0.004
4.675,-0.006
4.676,-0.008
4.677,-0.006
4.678,-0.003
4.679,0.000
4.680,0.000
4.681,0.000
4.682,-0.001
4.683,-0.006
4.684,-0.008
4.685,-0.009
4.686,-0.013
4.687,-0.013
4.688,-0.011
4.689,-0.009
4.690,-0.009
4.691,-0.009
4.692,-0.009
4.693,-0.009
4.694,-0.014
4.695,-0.013
4.696,-0.014
4.697,-0.013
4.698,-0.013
4.699,-0.013
4.700,-0.013
4.701,-0.013
4.702,-0.014
4.703,-0.016
4.704,-0.016
4.705,-0.016
4.706,-0.017
4.707,-0.019
4.708,-0.019
4.709,-0.019
4.710,-0.019
4.711,-0.022
4.712,-0.019
4.713,-0.019
4.714,-0.022
4.715,-0.022
4.716,-0.019
4.717,-0.025
4.718,-0.024
4.719,-0.025
4.720,-0.024
4.721,-0.022
4.722,-0.019
4.723,-0.019
4.724,-0.025
4.725,-0.028
4.726,-0.028
4.727,-0.028
4.728,-0.031
4.729,-0.031
4.730,-0.028
4.731,-0.031
4.732,-0.031
4.733,-0.034
4.734,-0.033
4.735,-0.038
4.736,-0.031
4.737,-0.031
4.738,-0.033
4.739,-0.034
4.740,-0.031
4.741,-0.034
4.742,-0.030
4.743,-0.034
4.744,-0.031
4.745,-0.034
4.746,-0.036
4.747,-0.038
4.748,-0.034
4.749,-0.031
4.750,-0.030
4.751,-0.031
4.752,-0.034
4.753,-0.038
4.754,-0.038
4.755,-0.041
4.756,-0.038
4.757,-0.034
4.758,-0.036
4.759,-0.034
4.760,-0.034
4.761,-0.034
4.762,-0.034
4.763,-0.034
4.764,-0.036
4.765,-0.041
4.766,-0.041
4.767,-0.041
4.768,-0.042
4.769,-0.044
4.770,-0.044
4.771,-0.044
4.772,-0.044
4.773,-0.041
4.774,-0.043
4.775,-0.044
4.776,-0.044
4.777,-0.044
4.778,-0.042
4.779,-0.044
4.780,-0.046
4.781,-0.044
4.782,-0.045
4.783,-0.047
4.784,-0.047
4.785,-0.047
4.786,-0.051
4.787,-0.053
4.788,-0.050
4.789,-0.047
4.790,-0.044
4.791,-0.041
4.792,-0.043
4.793,-0.041
4.794,-0.041
4.795,-0.041
4.796,-0.039
4.797,-0.044
4.798,-0.043
4.799,-0.044
4.800,-0.045
4.801,-0.047
4.802,-0.050
4.803,-0.050
4.804,-0.046
4.805,-0.047
4.806,-0.051
4.807,-0.050
4.808,-0.050
4.809,-0.050
4.810,-0.050
4.811,-0.050
4.812,-0.050
4.813,-0.050
4.814,-0.052
4.815,-0.050
4.816,-0.050
4.817,-0.050
4.818,-0.051
4.819,-0.050
4.820,-0.050
4.821,-0.050
4.822,-0.050
4.823,-0.050
4.824,-0.050
4.825,-0.050
4.826,-0.050
4.827,-0.050
4.828,-0.050
4.829,-0.050
4.830,-0.050
4.831,-0.050
4.832,-0.050
4.833,-0.050
4.834,-0.050
4.835,-0.050
4.836,-0.050
4.837,-0.050
4.838,-0.051
4.839,-0.053
4.840,-0.053
4.841,-0.053
4.842,-0.053
4.843,-0.053
4.844,-0.053
4.845,-0.053
4.846,-0.053
4.847,-0.053
4.848,-0.052
4.849,-0.050
4.850,-0.050
4.851,-0.050
4.852,-0.050
4.853,-0.050
4.854,-0.051
4.855,-0.053
4.856,-0.053
4.857,-0.053
4.858,-0.053
4.859,-0.053
4.860,-0.053
4.861,-0.053
4.862,-0.053
4.863,-0.053
4.864,-0.053
4.865,-0.053
4.866,-0.053
4.867,-0.053
4.868,-0.052
4.869,-0.050
4.870,-0.050
4.871,-0.050
4.872,-0.050
4.873,-0.050
4.874,-0.051
4.875,-0.053
4.876,-0.053
4.877,-0.053
4.878,-0.053
4.879,-0.053
4.880,-0.053
4.881,-0.053
4.882,-0.053
4.883,-0.053
4.884,-0.053
4.885,-0.053
4.886,-0.053
4.887,-0.053
4.888,-0.053
4.889,-0.053
4.890,-0.053
4.891,-0.053
4.892,-0.053
4.893,-0.053
4.894,-0.053
4.895,-0.053
4.896,-0.053
4.897,-0.053
4.898,-0.053
4.899,-0.053
4.900,-0.056
4.901,-0.059
4.902,-0.058
4.903,-0.056
4.904,-0.056
4.905,-0.056
4.906,-0.056
4.907,-0.056
4.908,-0.056
4.909,-0.056
4.910,-0.053
4.911,-0.050
4.912,-0.050
4.913,-0.050
4.914,-0.051
4.915,-0.053
4.916,-0.052
4.917,-0.050
4.918,-0.050
4.919,-0.050
4.920,-0.051
4.921,-0.053
4.922,-0.053
4.923,-0.053
4.924,-0.056
4.925,-0.059
4.926,-0.061
4.927,-0.063
4.928,-0.063
4.929,-0.063
4.930,-0.063
4.931,-0.063
4.932,-0.059
4.933,-0.056
4.934,-0.058
4.935,-0.059
4.936,-0.058
4.937,-0.056
4.938,-0.056
4.939,-0.056
4.940,-0.055
4.941,-0.053
4.942,-0.053
4.943,-0.053
4.944,-0.056
4.945,-0.059
4.946,-0.061
4.947,-0.063
4.948,-0.063
4.949,-0.063
4.950,-0.063
4.951,-0.063
4.952,-0.061
4.953,-0.059
4.954,-0.059
4.955,-0.059
4.956,-0.059
4.957,-0.059
4.958,-0.063
4.959,-0.066
4.960,-0.066
4.961,-0.066
4.962,-0.061
4.963,-0.056
4.964,-0.058
4.965,-0.059
4.966,-0.061
4.967,-0.063
4.968,-0.064
4.969,-0.066
4.970,-0.064
4.971,-0.063
4.972,-0.061
4.973,-0.059
4.974,-0.059
4.975,-0.059
4.976,-0.059
4.977,-0.059
4.978,-0.063
4.979,-0.066
4.980,-0.064
4.981,-0.063
4.982,-0.063
4.983,-0.063
4.984,-0.063
4.985,-0.063
4.986,-0.063
4.987,-0.063
4.988,-0.063
4.989,-0.063
4.990,-0.061
4.991,-0.059
4.992,-0.059
4.993,-0.059
4.994,-0.063
4.995,-0.066
4.996,-0.067
4.997,-0.069
4.998,-0.069
4.999,-0.069
5.000,-0.069
5.001,-0.069
5.002,-0.069
5.003,-0.069
5.004,-0.068
5.005,-0.066
5.006,-0.066
5.007,-0.066
5.008,-0.066
5.009,-0.066
5.010,-0.063
5.011,-0.059
5.012,-0.061
5.013,-0.063
5.014,-0.064
5.015,-0.066
5.016,-0.066
5.017,-0.066
5.018,-0.066
5.019,-0.066
5.020,-0.069
5.021,-0.072
5.022,-0.072
5.023,-0.072
5.024,-0.072
5.025,-0.072
5.026,-0.072
5.027,-0.072
5.028,-0.071
5.029,-0.069
5.030,-0.069
5.031,-0.069
5.032,-0.069
5.033,-0.069
5.034,-0.069
5.035,-0.069
5.036,-0.070
5.037,-0.072
5.038,-0.073
5.039,-0.075
5.040,-0.072
5.041,-0.069
5.042,-0.069
5.043,-0.069
5.044,-0.070
5.045,-0.072
5.046,-0.072
5.047,-0.072
5.048,-0.072
5.049,-0.072
5.050,-0.072
5.051,-0.072
5.052,-0.072
5.053,-0.072
5.054,-0.071
5.055,-0.069
5.056,-0.068
5.057,-0.066
5.058,-0.067
5.059,-0.069
5.060,-0.069
5.061,-0.069
5.062,-0.070
5.063,-0.072
5.064,-0.073
5.065,-0.075
5.066,-0.072
5.067,-0.069
5.068,-0.070
5.069,-0.072
5.070,-0.069
5.071,-0.066
5.072,-0.067
5.073,-0.069
5.074,-0.072
5.075,-0.072
5.076,-0.069
5.077,-0.069
5.078,-0.067
5.079,-0.069
5.080,-0.068
5.081,-0.069
5.082,-0.069
5.083,-0.069
5.084,-0.069
5.085,-0.069
5.086,-0.070
5.087,-0.072
5.088,-0.073
5.089,-0.072
5.090,-0.072
5.091,-0.069
5.092,-0.072
5.093,-0.072
5.094,-0.072
5.095,-0.072
5.096,-0.070
5.097,-0.072
5.098,-0.072
5.099,-0.069
5.100,-0.068
5.101,-0.066
5.102,-0.066
5.103,-0.063
5.104,-0.061
5.105,-0.063
5.106,-0.064
5.107,-0.066
5.108,-0.066
5.109,-0.066
5.110,-0.068
5.111,-0.066
5.112,-0.067
5.113,-0.066
5.114,-0.069
5.115,-0.072
5.116,-0.070
5.117,-0.069
5.118,-0.072
5.119,-0.072
5.120,-0.072
5.121,-0.072
5.122,-0.072
5.123,-0.072
5.124,-0.072
5.125,-0.072
5.126,-0.071
5.127,-0.069
5.128,-0.068
5.129,-0.063
5.130,-0.066
5.131,-0.066
5.132,-0.067
5.133,-0.069
5.134,-0.070
5.135,-0.072
5.136,-0.073
5.137,-0.075
5.138,-0.075
5.139,-0.075
5.140,-0.069
5.141,-0.066
5.142,-0.064
5.143,-0.066
5.144,-0.067
5.145,-0.066
5.146,-0.067
5.147,-0.069
5.148,-0.068
5.149,-0.069
5.150,-0.070
5.151,-0.069
5.152,-0.072
5.153,-0.072
5.154,-0.075
5.155,-0.075
5.156,-0.072
5.157,-0.072
5.158,-0.072
5.159,-0.072
5.160,-0.071
5.161,-0.069
5.162,-0.072
5.163,-0.072
5.164,-0.074
5.165,-0.069
5.166,-0.069
5.167,-0.069
5.168,-0.066
5.169,-0.069
5.170,-0.070
5.171,-0.072
5.172,-0.069
5.173,-0.072
5.174,-0.071
5.175,-0.066
5.176,-0.067
5.177,-0.069
5.178,-0.069
5.179,-0.069
5.180,-0.070
5.181,-0.072
5.182,-0.071
5.183,-0.069
5.184,-0.068
5.185,-0.069
5.186,-0.067
5.187,-0.069
5.188,-0.068
5.189,-0.066
5.190,-0.066
5.191,-0.066
5.192,-0.067
5.193,-0.069
5.194,-0.072
5.195,-0.075
5.196,-0.073
5.197,-0.075
5.198,-0.072
5.199,-0.069
5.200,-0.069
5.201,-0.066
5.202,-0.066
5.203,-0.066
5.204,-0.066
5.205,-0.066
5.206,-0.066
5.207,-0.066
5.208,-0.066
5.209,-0.063
5.210,-0.067
5.211,-0.069
5.212,-0.072
5.213,-0.069
5.214,-0.068
5.215,-0.069
5.216,-0.067
5.217,-0.069
5.218,-0.069
5.219,-0.069
5.220,-0.069
5.221,-0.069
5.222,-0.070
5.223,-0.066
5.224,-0.069
5.225,-0.069
5.226,-0.068
5.227,-0.069
5.228,-0.069
5.229,-0.069
5.230,-0.066
5.231,-0.069
5.232,-0.066
5.233,-0.066
5.234,-0.066
5.235,-0.066
5.236,-0.069
5.237,-0.069
5.238,-0.069
5.239,-0.069
5.240,-0.068
5.241,-0.066
5.242,-0.064
5.243,-0.066
5.244,-0.064
5.245,-0.066
5.246,-0.066
5.247,-0.066
5.248,-0.067
5.249,-0.069
5.250,-0.069
5.251,-0.069
5.252,-0.072
5.253,-0.072
5.254,-0.069
5.255,-0.069
5.256,-0.070
5.257,-0.072
5.258,-0.071
5.259,-0.066
5.260,-0.069
5.261,-0.069
5.262,-0.066
5.263,-0.066
5.264,-0.061
5.265,-0.056
5.266,-0.056
5.267,-0.056
5.268,-0.061
5.269,-0.059
5.270,-0.058
5.271,-0.053
5.272,-0.058
5.273,-0.056
5.274,-0.061
5.275,-0.063
5.276,-0.063
5.277,-0.059
5.278,-0.059
5.279,-0.063
5.280,-0.066
5.281,-0.066
5.282,-0.067
5.283,-0.066
5.284,-0.066
5.285,-0.066
5.286,-0.066
5.287,-0.069
5.288,-0.069
5.289,-0.069
5.290,-0.069
5.291,-0.069
5.292,-0.069
5.293,-0.069
5.294,-0.067
5.295,-0.069
5.296,-0.068
5.297,-0.069
5.298,-0.067
5.299,-0.069
5.300,-0.072
5.301,-0.072
5.302,-0.071
5.303,-0.069
5.304,-0.072
5.305,-0.072
5.306,-0.070
5.307,-0.072
5.308,-0.070
5.309,-0.072
5.310,-0.069
5.311,-0.066
5.312,-0.064
5.313,-0.066
5.314,-0.066
5.315,-0.066
5.316,-0.067
5.317,-0.069
5.318,-0.066
5.319,-0.066
5.320,-0.069
5.321,-0.069
5.322,-0.069
5.323,-0.069
5.324,-0.069
5.325,-0.069
5.326,-0.068
5.327,-0.066
5.328,-0.066
5.329,-0.066
5.330,-0.066
5.331,-0.066
5.332,-0.068
5.333,-0.066
5.334,-0.064
5.335,-0.059
5.336,-0.061
5.337,-0.063
5.338,-0.066
5.339,-0.066
5.340,-0.064
5.341,-0.066
5.342,-0.066
5.343,-0.066
5.344,-0.066
5.345,-0.063
5.346,-0.066
5.347,-0.066
5.348,-0.061
5.349,-0.059
5.350,-0.058
5.351,-0.059
5.352,-0.059
5.353,-0.059
5.354,-0.061
5.355,-0.063
5.356,-0.067
5.357,-0.066
5.358,-0.061
5.359,-0.056
5.360,-0.056
5.361,-0.056
5.362,-0.058
5.363,-0.056
5.364,-0.053
5.365,-0.050
5.366,-0.050
5.367,-0.050
5.368,-0.051
5.369,-0.050
5.370,-0.054
5.371,-0.053
5.372,-0.049
5.373,-0.041
5.374,-0.034
5.375,-0.028
5.376,-0.023
5.377,-0.019
5.378,-0.017
5.379,-0.016
5.380,-0.013
5.381,-0.009
5.382,-0.003
5.383,-0.003
5.384,0.000
5.385,0.000
5.386,-0.002
5.387,-0.003
5.388,-0.006
5.389,-0.009
5.390,-0.008
5.391,-0.013
5.392,-0.013
5.393,-0.013
5.394,-0.013
5.395,-0.013
5.396,-0.014
5.397,-0.013
5.398,-0.013
5.399,-0.013
5.400,-0.011
5.401,-0.013
5.402,-0.013
5.403,-0.009
5.404,-0.002
5.405,0.003
5.406,0.006
5.407,0.013
5.408,0.014
5.409,0.013
5.410,0.014
5.411,0.013
5.412,0.003
5.413,0.000
5.414,-0.001
5.415,-0.006
5.416,-0.008
5.417,-0.009
5.418,-0.009
5.419,-0.006
5.420,-0.003
5.421,-0.003
5.422,-0.006
5.423,-0.006
5.424,-0.006
5.425,-0.009
5.426,-0.017
5.427,-0.016
5.428,-0.020
5.429,-0.025
5.430,-0.029
5.431,-0.038
5.432,-0.036
5.433,-0.034
5.434,-0.031
5.435,-0.031
5.436,-0.031
5.437,-0.034
5.438,-0.031
5.439,-0.034
5.440,-0.031
5.441,-0.028
5.442,-0.028
5.443,-0.028
5.444,-0.025
5.445,-0.028
5.446,-0.033
5.447,-0.041
5.448,-0.044
5.449,-0.050
5.450,-0.050
5.451,-0.050
5.452,-0.059
5.453,-0.066
5.454,-0.064
5.455,-0.066
5.456,-0.068
5.457,-0.069
5.458,-0.070
5.459,-0.072
5.460,-0.074
5.461,-0.069
5.462,-0.070
5.463,-0.072
5.464,-0.070
5.465,-0.072
5.466,-0.075
5.467,-0.075
5.468,-0.078
5.469,-0.081
5.470,-0.078
5.471,-0.075
5.472,-0.079
5.473,-0.081
5.474,-0.084
5.475,-0.084
5.476,-0.084
5.477,-0.084
5.478,-0.081
5.479,-0.081
5.480,-0.078
5.481,-0.078
5.482,-0.078
5.483,-0.078
5.484,-0.077
5.485,-0.075
5.486,-0.077
5.487,-0.075
5.488,-0.079
5.489,-0.081
5.490,-0.084
5.491,-0.088
5.492,-0.083
5.493,-0.081
5.494,-0.080
5.495,-0.078
5.496,-0.079
5.497,-0.084
5.498,-0.086
5.499,-0.088
5.500,-0.084
5.501,-0.084
5.502,-0.084
5.503,-0.084
5.504,-0.084
5.505,-0.084
5.506,-0.080
5.507,-0.075
5.508,-0.075
5.509,-0.072
5.510,-0.073
5.511,-0.078
5.512,-0.079
5.513,-0.081
5.514,-0.080
5.515,-0.078
5.516,-0.072
5.517,-0.069
5.518,-0.069
5.519,-0.069
5.520,-0.073
5.521,-0.075
5.522,-0.078
5.523,-0.081
5.524,-0.086
5.525,-0.091
5.526,-0.099
5.527,-0.109
5.528,-0.123
5.529,-0.141
5.530,-0.161
5.531,-0.181
5.532,-0.197
5.533,-0.216
5.534,-0.219
5.535,-0.219
5.536,-0.216
5.537,-0.212
5.538,-0.191
5.539,-0.172
5.540,-0.139
5.541,-0.106
5.542,-0.078
5.543,-0.050
5.544,-0.013
5.545,0.031
5.546,0.059
5.547,0.094
5.548,0.139
5.549,0.181
5.550,0.239
5.551,0.300
5.552,0.355
5.553,0.416
5.554,0.495
5.555,0.575
5.556,0.667
5.557,0.766
5.558,0.836
5.559,0.912
5.560,0.978
5.561,1.041
5.562,1.091
5.563,1.144
5.564,1.208
5.565,1.275
5.566,1.336
5.567,1.394
5.568,1.436
5.569,1.469
5.570,1.449
5.571,1.419
5.572,1.328
5.573,1.234
5.574,1.139
5.575,1.047
5.576,0.959
5.577,0.872
5.578,0.798
5.579,0.722
5.580,0.653
5.581,0.584
5.582,0.519
5.583,0.456
5.584,0.400
5.585,0.341
5.586,0.284
5.587,0.225
5.588,0.175
5.589,0.119
5.590,0.075
5.591,0.031
5.592,0.009
5.593,-0.006
5.594,-0.019
5.595,-0.028
5.596,-0.039
5.597,-0.050
5.598,-0.051
5.599,-0.053
5.600,-0.048
5.601,-0.044
5.602,-0.034
5.603,-0.025
5.604,-0.018
5.605,-0.009
5.606,0.000
5.607,0.013
5.608,0.014
5.609,0.022
5.610,0.024
5.611,0.025
5.612,0.031
5.613,0.031
5.614,0.029
5.615,0.031
5.616,0.025
5.617,0.025
5.618,0.018
5.619,0.016
5.620,0.016
5.621,0.016
5.622,0.011
5.623,0.009
5.624,0.008
5.625,0.006
5.626,0.009
5.627,0.006
5.628,0.011
5.629,0.013
5.630,0.009
5.631,0.013
5.632,0.008
5.633,0.006
5.634,0.004
5.635,0.003
5.636,0.002
5.637,-0.003
5.638,-0.004
5.639,-0.003
5.640,-0.005
5.641,-0.006
5.642,-0.006
5.643,-0.006
5.644,-0.008
5.645,-0.006
5.646,-0.002
5.647,0.000
5.648,0.000
5.649,0.000
5.650,0.001
5.651,0.003
5.652,0.003
5.653,0.003
5.654,0.003
5.655,0.003
5.656,0.004
5.657,0.003
5.658,0.005
5.659,0.003
5.660,0.002
5.661,0.000
5.662,0.002
5.663,0.003
5.664,0.000
5.665,0.000
5.666,0.000
5.667,0.003
5.668,0.000
5.669,0.000
5.670,0.000
5.671,0.000
5.672,0.000
5.673,0.000
5.674,0.000
5.675,0.000
5.676,-0.001
5.677,-0.003
5.678,0.004
5.679,0.003
5.680,0.006
5.681,0.006
5.682,0.006
5.683,0.006
5.684,0.009
5.685,0.006
5.686,0.008
5.687,0.006
5.688,0.008
5.689,0.009
5.690,0.008
5.691,0.009
5.692,0.011
5.693,0.009
5.694,0.011
5.695,0.009
5.696,0.008
5.697,0.009
5.698,0.008
5.699,0.009
5.700,0.014
5.701,0.013
5.702,0.016
5.703,0.016
5.704,0.017
5.705,0.022
5.706,0.021
5.707,0.022
5.708,0.019
5.709,0.019
5.710,0.022
5.711,0.025
5.712,0.023
5.713,0.025
5.714,0.025
5.715,0.025
5.716,0.025
5.717,0.025
5.718,0.024
5.719,0.022
5.720,0.025
5.721,0.022
5.722,0.023
5.723,0.028
5.724,0.028
5.725,0.028
5.726,0.027
5.727,0.025
5.728,0.025
5.729,0.028
5.730,0.033
5.731,0.034
5.732,0.031
5.733,0.031
5.734,0.031
5.735,0.028
5.736,0.027
5.737,0.025
5.738,0.025
5.739,0.022
5.740,0.026
5.741,0.025
5.742,0.025
5.743,0.028
5.744,0.024
5.745,0.025
5.746,0.025
5.747,0.028
5.748,0.033
5.749,0.034
5.750,0.031
5.751,0.031
5.752,0.031
5.753,0.031
5.754,0.030
5.755,0.028
5.756,0.029
5.757,0.031
5.758,0.030
5.759,0.031
5.760,0.030
5.761,0.028
5.762,0.034
5.763,0.034
5.764,0.039
5.765,0.038
5.766,0.039
5.767,0.034
5.768,0.033
5.769,0.034
5.770,0.038
5.771,0.044
5.772,0.041
5.773,0.044
5.774,0.043
5.775,0.041
5.776,0.041
5.777,0.044
5.778,0.045
5.779,0.044
5.780,0.048
5.781,0.047
5.782,0.046
5.783,0.047
5.784,0.046
5.785,0.044
5.786,0.045
5.787,0.044
5.788,0.043
5.789,0.044
5.790,0.048
5.791,0.047
5.792,0.049
5.793,0.047
5.794,0.048
5.795,0.047
5.796,0.047
5.797,0.047
5.798,0.047
5.799,0.047
5.800,0.047
5.801,0.047
5.802,0.046
5.803,0.047
5.804,0.048
5.805,0.047
5.806,0.047
5.807,0.047
5.808,0.047
5.809,0.047
5.810,0.049
5.811,0.050
5.812,0.048
5.813,0.047
5.814,0.047
5.815,0.047
5.816,0.047
5.817,0.047
5.818,0.046
5.819,0.047
5.820,0.047
5.821,0.047
5.822,0.044
5.823,0.044
5.824,0.047
5.825,0.047
5.826,0.045
5.827,0.047
5.828,0.047
5.829,0.047
5.830,0.044
5.831,0.044
5.832,0.043
5.833,0.044
5.834,0.048
5.835,0.047
5.836,0.050
5.837,0.047
5.838,0.047
5.839,0.047
5.840,0.048
5.841,0.047
5.842,0.046
5.843,0.044
5.844,0.043
5.845,0.044
5.846,0.045
5.847,0.047
5.848,0.039
5.849,0.038
5.850,0.036
5.851,0.034
5.852,0.036
5.853,0.038
5.854,0.036
5.855,0.034
5.856,0.033
5.857,0.034
5.858,0.036
5.859,0.034
5.860,0.034
5.861,0.034
5.862,0.034
5.863,0.034
5.864,0.034
5.865,0.034
5.866,0.036
5.867,0.038
5.868,0.038
5.869,0.034
5.870,0.036
5.871,0.034
5.872,0.034
5.873,0.034
5.874,0.033
5.875,0.031
5.876,0.031
5.877,0.028
5.878,0.030
5.879,0.031
5.880,0.031
5.881,0.031
5.882,0.033
5.883,0.031
5.884,0.031
5.885,0.031
5.886,0.036
5.887,0.041
5.888,0.036
5.889,0.038
5.890,0.039
5.891,0.038
5.892,0.038
5.893,0.041
5.894,0.041
5.895,0.041
5.896,0.039
5.897,0.041
5.898,0.044
5.899,0.047
5.900,0.053
5.901,0.053
5.902,0.053
5.903,0.056
5.904,0.056
5.905,0.056
5.906,0.059
5.907,0.063
5.908,0.061
5.909,0.059
5.910,0.061
5.911,0.063
5.912,0.063
5.913,0.063
5.914,0.067
5.915,0.072
5.916,0.073
5.917,0.075
5.918,0.077
5.919,0.075
5.920,0.076
5.921,0.078
5.922,0.079
5.923,0.081
5.924,0.084
5.925,0.084
5.926,0.084
5.927,0.084
5.928,0.086
5.929,0.084
5.930,0.092
5.931,0.097
5.932,0.096
5.933,0.094
5.934,0.093
5.935,0.094
5.936,0.091
5.937,0.091
5.938,0.092
5.939,0.091
5.940,0.092
5.941,0.091
5.942,0.094
5.943,0.094
5.944,0.091
5.945,0.088
5.946,0.088
5.947,0.088
5.948,0.084
5.949,0.081
5.950,0.081
5.951,0.084
5.952,0.083
5.953,0.081
5.954,0.075
5.955,0.069
5.956,0.069
5.957,0.069
5.958,0.066
5.959,0.066
5.960,0.064
5.961,0.069
5.962,0.063
5.963,0.063
5.964,0.061
5.965,0.059
5.966,0.056
5.967,0.053
5.968,0.047
5.969,0.044
5.970,0.044
5.971,0.044
5.972,0.041
5.973,0.044
5.974,0.041
5.975,0.034
5.976,0.033
5.977,0.031
5.978,0.029
5.979,0.028
5.980,0.028
5.981,0.028
5.982,0.025
5.983,0.025
5.984,0.023
5.985,0.022
5.986,0.022
5.987,0.019
5.988,0.019
5.989,0.016
5.990,0.016
5.991,0.013
5.992,0.009
5.993,0.013
5.994,0.011
5.995,0.006
5.996,0.006
5.997,0.006
5.998,0.004
5.999,0.003
6.000,0.006
6.001,0.003
6.002,0.006
6.003,0.006
6.004,0.001
6.005,0.003
6.006,0.002
6.007,0.000
6.008,0.001
6.009,0.003
6.010,0.000
6.011,0.000
6.012,0.000
6.013,0.000
6.014,0.003
6.015,0.003
6.016,-0.001
6.017,-0.003
6.018,-0.011
6.019,-0.009
6.020,-0.009
6.021,-0.009
6.022,-0.006
6.023,-0.009
6.024,-0.006
6.025,-0.009
6.026,-0.009
6.027,-0.009
6.028,-0.009
6.029,-0.006
6.030,-0.005
6.031,-0.009
6.032,-0.008
6.033,-0.006
6.034,-0.008
6.035,-0.006
6.036,-0.009
6.037,-0.009
6.038,-0.011
6.039,-0.009
6.040,-0.008
6.041,-0.006
6.042,-0.005
6.043,-0.006
6.044,-0.006
6.045,-0.006
6.046,-0.008
6.047,-0.006
6.048,-0.008
6.049,-0.006
6.050,-0.008
6.051,-0.006
6.052,-0.006
6.053,-0.006
6.054,-0.009
6.055,-0.006
6.056,-0.005
6.057,-0.003
6.058,-0.004
6.059,-0.006
6.060,-0.006
6.061,-0.006
6.062,-0.006
6.063,-0.006
6.064,-0.006
6.065,-0.006
6.066,-0.005
6.067,-0.003
6.068,-0.004
6.069,-0.006
6.070,-0.006
6.071,-0.006
6.072,-0.006
6.073,-0.006
6.074,-0.003
6.075,-0.003
6.076,-0.006
6.077,-0.009
6.078,-0.005
6.079,-0.003
6.080,-0.003
6.081,-0.003
6.082,-0.003
6.083,-0.003
6.084,-0.004
6.085,-0.006
6.086,-0.008
6.087,-0.006
6.088,-0.009
6.089,-0.006
6.090,-0.006
6.091,-0.009
6.092,-0.009
6.093,-0.009
6.094,-0.009
6.095,-0.009
6.096,-0.009
6.097,-0.009
6.098,-0.009
6.099,-0.009
6.100,-0.006
6.101,-0.009
6.102,-0.009
6.103,-0.009
6.104,-0.006
6.105,-0.009
6.106,-0.009
6.107,-0.009
6.108,-0.011
6.109,-0.009
6.110,-0.008
6.111,-0.006
6.112,-0.003
6.113,-0.003
6.114,-0.003
6.115,-0.006
6.116,-0.009
6.117,-0.009
6.118,-0.009
6.119,-0.009
6.120,-0.009
6.121,-0.009
6.122,-0.009
6.123,-0.009
6.124,-0.008
6.125,-0.006
6.126,-0.003
6.127,-0.003
6.128,-0.004
6.129,-0.006
6.130,-0.013
6.131,-0.019
6.132,-0.014
6.133,-0.009
6.134,-0.009
6.135,-0.006
6.136,-0.009
6.137,-0.013
6.138,-0.013
6.139,-0.019
6.140,-0.023
6.141,-0.025
6.142,-0.025
6.143,-0.025
6.144,-0.024
6.145,-0.025
6.146,-0.023
6.147,-0.028
6.148,-0.029
6.149,-0.031
6.150,-0.028
6.151,-0.025
6.152,-0.024
6.153,-0.025
6.154,-0.028
6.155,-0.028
6.156,-0.029
6.157,-0.031
6.158,-0.031
6.159,-0.031
6.160,-0.030
6.161,-0.028
6.162,-0.033
6.163,-0.031
6.164,-0.030
6.165,-0.031
6.166,-0.031
6.167,-0.028
6.168,-0.034
6.169,-0.034
6.170,-0.038
6.171,-0.038
6.172,-0.039
6.173,-0.038
6.174,-0.036
6.175,-0.038
6.176,-0.038
6.177,-0.038
6.178,-0.038
6.179,-0.041
6.180,-0.041
6.181,-0.038
6.182,-0.042
6.183,-0.044
6.184,-0.046
6.185,-0.041
6.186,-0.044
6.187,-0.041
6.188,-0.044
6.189,-0.044
6.190,-0.045
6.191,-0.044
6.192,-0.047
6.193,-0.044
6.194,-0.050
6.195,-0.047
6.196,-0.050
6.197,-0.050
6.198,-0.050
6.199,-0.050
6.200,-0.050
6.201,-0.050
6.202,-0.053
6.203,-0.053
6.204,-0.054
6.205,-0.053
6.206,-0.053
6.207,-0.053
6.208,-0.052
6.209,-0.053
6.210,-0.054
6.211,-0.056
6.212,-0.056
6.213,-0.056
6.214,-0.055
6.215,-0.053
6.216,-0.056
6.217,-0.056
6.218,-0.056
6.219,-0.056
6.220,-0.058
6.221,-0.059
6.222,-0.061
6.223,-0.063
6.224,-0.056
6.225,-0.056
6.226,-0.059
6.227,-0.059
6.228,-0.061
6.229,-0.059
6.230,-0.059
6.231,-0.063
6.232,-0.063
6.233,-0.063
6.234,-0.064
6.235,-0.066
6.236,-0.066
6.237,-0.069
6.238,-0.068
6.239,-0.063
6.240,-0.059
6.241,-0.059
6.242,-0.058
6.243,-0.059
6.244,-0.058
6.245,-0.056
6.246,-0.058
6.247,-0.056
6.248,-0.058
6.249,-0.056
6.250,-0.061
6.251,-0.063
6.252,-0.064
6.253,-0.066
6.254,-0.064
6.255,-0.063
6.256,-0.064
6.257,-0.066
6.258,-0.064
6.259,-0.066
6.260,-0.067
6.261,-0.069
6.262,-0.069
6.263,-0.069
6.264,-0.068
6.265,-0.069
6.266,-0.069
6.267,-0.069
6.268,-0.068
6.269,-0.066
6.270,-0.064
6.271,-0.063
6.272,-0.063
6.273,-0.063
6.274,-0.064
6.275,-0.066
6.276,-0.066
6.277,-0.066
6.278,-0.067
6.279,-0.069
6.280,-0.070
6.281,-0.072
6.282,-0.071
6.283,-0.069
6.284,-0.069
6.285,-0.069
6.286,-0.070
6.287,-0.072
6.288,-0.073
6.289,-0.075
6.290,-0.075
6.291,-0.075
6.292,-0.074
6.293,-0.072
6.294,-0.071
6.295,-0.069
6.296,-0.069
6.297,-0.069
6.298,-0.070
6.299,-0.072
6.300,-0.072
6.301,-0.072
6.302,-0.072
6.303,-0.072
6.304,-0.073
6.305,-0.075
6.306,-0.075
6.307,-0.075
6.308,-0.076
6.309,-0.078
6.310,-0.077
6.311,-0.075
6.312,-0.074
6.313,-0.072
6.314,-0.075
6.315,-0.078
6.316,-0.077
6.317,-0.075
6.318,-0.074
6.319,-0.072
6.320,-0.075
6.321,-0.078
6.322,-0.079
6.323,-0.081
6.324,-0.081
6.325,-0.081
6.326,-0.081
6.327,-0.081
6.328,-0.081
6.329,-0.081
6.330,-0.081
6.331,-0.081
6.332,-0.078
6.333,-0.075
6.334,-0.076
6.335,-0.078
6.336,-0.079
6.337,-0.081
6.338,-0.081
6.339,-0.081
6.340,-0.081
6.341,-0.081
6.342,-0.078
6.343,-0.075
6.344,-0.076
6.345,-0.078
6.346,-0.079
6.347,-0.081
6.348,-0.081
6.349,-0.081
6.350,-0.081
6.351,-0.081
6.352,-0.081
6.353,-0.081
6.354,-0.081
6.355,-0.081
6.356,-0.078
6.357,-0.075
6.358,-0.076
6.359,-0.078
6.360,-0.079
6.361,-0.081
6.362,-0.081
6.363,-0.081
6.364,-0.081
6.365,-0.081
6.366,-0.083
6.367,-0.084
6.368,-0.084
6.369,-0.084
6.370,-0.083
6.371,-0.081
6.372,-0.081
6.373,-0.081
6.374,-0.081
6.375,-0.081
6.376,-0.081
6.377,-0.081
6.378,-0.081
6.379,-0.081
6.380,-0.081
6.381,-0.081
6.382,-0.081
6.383,-0.081
6.384,-0.081
6.385,-0.081
6.386,-0.081
6.387,-0.081
6.388,-0.081
6.389,-0.081
6.390,-0.081
6.391,-0.081
6.392,-0.081
6.393,-0.081
6.394,-0.081
6.395,-0.081
6.396,-0.081
6.397,-0.081
6.398,-0.081
6.399,-0.081
6.400,-0.081
6.401,-0.081
6.402,-0.083
6.403,-0.084
6.404,-0.086
6.405,-0.088
6.406,-0.084
6.407,-0.081
6.408,-0.080
6.409,-0.078
6.410,-0.081
6.411,-0.084
6.412,-0.084
6.413,-0.084
6.414,-0.084
6.415,-0.084
6.416,-0.084
6.417,-0.084
6.418,-0.084
6.419,-0.084
6.420,-0.086
6.421,-0.088
6.422,-0.088
6.423,-0.088
6.424,-0.088
6.425,-0.088
6.426,-0.088
6.427,-0.088
6.428,-0.086
6.429,-0.084
6.430,-0.084
6.431,-0.084
6.432,-0.086
6.433,-0.088
6.434,-0.086
6.435,-0.084
6.436,-0.083
6.437,-0.081
6.438,-0.081
6.439,-0.081
6.440,-0.083
6.441,-0.084
6.442,-0.083
6.443,-0.084
6.444,-0.086
6.445,-0.084
6.446,-0.088
6.447,-0.088
6.448,-0.088
6.449,-0.088
6.450,-0.091
6.451,-0.091
6.452,-0.086
6.453,-0.081
6.454,-0.080
6.455,-0.078
6.456,-0.078
6.457,-0.078
6.458,-0.076
6.459,-0.081
6.460,-0.081
6.461,-0.084
6.462,-0.086
6.463,-0.088
6.464,-0.089
6.465,-0.088
6.466,-0.088
6.467,-0.088
6.468,-0.086
6.469,-0.088
6.470,-0.086
6.471,-0.088
6.472,-0.089
6.473,-0.088
6.474,-0.084
6.475,-0.081
6.476,-0.081
6.477,-0.081
6.478,-0.083
6.479,-0.088
6.480,-0.089
6.481,-0.091
6.482,-0.086
6.483,-0.088
6.484,-0.089
6.485,-0.084
6.486,-0.080
6.487,-0.081
6.488,-0.083
6.489,-0.084
6.490,-0.086
6.491,-0.088
6.492,-0.088
6.493,-0.088
6.494,-0.088
6.495,-0.088
6.496,-0.089
6.497,-0.091
6.498,-0.088
6.499,-0.091
6.500,-0.088
6.501,-0.084
6.502,-0.084
6.503,-0.084
6.504,-0.084
6.505,-0.084
6.506,-0.086
6.507,-0.088
6.508,-0.086
6.509,-0.081
6.510,-0.083
6.511,-0.084
6.512,-0.088
6.513,-0.088
6.514,-0.086
6.515,-0.088
6.516,-0.088
6.517,-0.088
6.518,-0.089
6.519,-0.088
6.520,-0.083
6.521,-0.084
6.522,-0.084
6.523,-0.088
6.524,-0.091
6.525,-0.091
6.526,-0.091
6.527,-0.091
6.528,-0.089
6.529,-0.088
6.530,-0.088
6.531,-0.091
6.532,-0.089
6.533,-0.091
6.534,-0.088
6.535,-0.088
6.536,-0.089
6.537,-0.088
6.538,-0.091
6.539,-0.091
6.540,-0.091
6.541,-0.088
6.542,-0.091
6.543,-0.091
6.544,-0.086
6.545,-0.084
6.546,-0.084
6.547,-0.084
6.548,-0.084
6.549,-0.084
6.550,-0.084
6.551,-0.084
6.552,-0.083
6.553,-0.081
6.554,-0.086
6.555,-0.084
6.556,-0.084
6.557,-0.084
6.558,-0.086
6.559,-0.088
6.560,-0.088
6.561,-0.088
6.562,-0.086
6.563,-0.088
6.564,-0.091
6.565,-0.088
6.566,-0.088
6.567,-0.088
6.568,-0.089
6.569,-0.091
6.570,-0.088
6.571,-0.088
6.572,-0.088
6.573,-0.088
6.574,-0.084
6.575,-0.081
6.576,-0.083
6.577,-0.084
6.578,-0.081
6.579,-0.084
6.580,-0.083
6.581,-0.084
6.582,-0.081
6.583,-0.081
6.584,-0.086
6.585,-0.084
6.586,-0.083
6.587,-0.081
6.588,-0.081
6.589,-0.081
6.590,-0.084
6.591,-0.088
6.592,-0.083
6.593,-0.088
6.594,-0.088
6.595,-0.088
6.596,-0.089
6.597,-0.088
6.598,-0.086
6.599,-0.081
6.600,-0.086
6.601,-0.084
6.602,-0.084
6.603,-0.084
6.604,-0.083
6.605,-0.084
6.606,-0.084
6.607,-0.084
6.608,-0.086
6.609,-0.088
6.610,-0.088
6.611,-0.088
6.612,-0.092
6.613,-0.091
6.614,-0.091
6.615,-0.091
6.616,-0.091
6.617,-0.091
6.618,-0.089
6.619,-0.088
6.620,-0.086
6.621,-0.088
6.622,-0.091
6.623,-0.091
6.624,-0.091
6.625,-0.091
6.626,-0.089
6.627,-0.088
6.628,-0.083
6.629,-0.084
6.630,-0.088
6.631,-0.088
6.632,-0.088
6.633,-0.088
6.634,-0.088
6.635,-0.088
6.636,-0.088
6.637,-0.091
6.638,-0.088
6.639,-0.088
6.640,-0.083
6.641,-0.084
6.642,-0.081
6.643,-0.084
6.644,-0.086
6.645,-0.088
6.646,-0.084
6.647,-0.084
6.648,-0.086
6.649,-0.088
6.650,-0.088
6.651,-0.088
6.652,-0.086
6.653,-0.088
6.654,-0.084
6.655,-0.081
6.656,-0.084
6.657,-0.084
6.658,-0.084
6.659,-0.084
6.660,-0.086
6.661,-0.088
6.662,-0.091
6.663,-0.091
6.664,-0.089
6.665,-0.088
6.666,-0.091
6.667,-0.088
6.668,-0.086
6.669,-0.088
6.670,-0.088
6.671,-0.088
6.672,-0.086
6.673,-0.088
6.674,-0.086
6.675,-0.081
6.676,-0.081
6.677,-0.078
6.678,-0.079
6.679,-0.081
6.680,-0.081
6.681,-0.081
6.682,-0.084
6.683,-0.084
6.684,-0.084
6.685,-0.084
6.686,-0.088
6.687,-0.088
6.688,-0.086
6.689,-0.088
6.690,-0.088
6.691,-0.088
6.692,-0.088
6.693,-0.088
6.694,-0.088
6.695,-0.088
6.696,-0.089
6.697,-0.091
6.698,-0.089
6.699,-0.088
6.700,-0.086
6.701,-0.088
6.702,-0.089
6.703,-0.091
6.704,-0.089
6.705,-0.091
6.706,-0.089
6.707,-0.091
6.708,-0.092
6.709,-0.091
6.710,-0.089
6.711,-0.088
6.712,-0.088
6.713,-0.088
6.714,-0.083
6.715,-0.084
6.716,-0.084
6.717,-0.084
6.718,-0.089
6.719,-0.088
6.720,-0.088
6.721,-0.088
6.722,-0.088
6.723,-0.088
6.724,-0.088
6.725,-0.091
6.726,-0.088
6.727,-0.088
6.728,-0.088
6.729,-0.088
6.730,-0.084
6.731,-0.081
6.732,-0.079
6.733,-0.078
6.734,-0.078
6.735,-0.081
6.736,-0.078
6.737,-0.072
6.738,-0.063
6.739,-0.063
6.740,-0.059
6.741,-0.056
6.742,-0.053
6.743,-0.053
6.744,-0.049
6.745,-0.041
6.746,-0.034
6.747,-0.031
6.748,-0.028
6.749,-0.025
6.750,-0.023
6.751,-0.019
6.752,-0.019
6.753,-0.016
6.754,-0.013
6.755,-0.013
6.756,-0.019
6.757,-0.025
6.758,-0.028
6.759,-0.028
6.760,-0.034
6.761,-0.031
6.762,-0.028
6.763,-0.028
6.764,-0.029
6.765,-0.031
6.766,-0.028
6.767,-0.028
6.768,-0.029
6.769,-0.028
6.770,-0.024
6.771,-0.019
6.772,-0.014
6.773,-0.006
6.774,-0.006
6.775,-0.009
6.776,-0.005
6.777,0.000
6.778,0.000
6.779,0.000
6.780,-0.003
6.781,-0.016
6.782,-0.025
6.783,-0.028
6.784,-0.031
6.785,-0.031
6.786,-0.028
6.787,-0.025
6.788,-0.022
6.789,-0.019
6.790,-0.019
6.791,-0.025
6.792,-0.027
6.793,-0.028
6.794,-0.030
6.795,-0.031
6.796,-0.031
6.797,-0.038
6.798,-0.042
6.799,-0.044
6.800,-0.048
6.801,-0.047
6.802,-0.047
6.803,-0.050
6.804,-0.052
6.805,-0.050
6.806,-0.053
6.807,-0.050
6.808,-0.050
6.809,-0.044
6.810,-0.038
6.811,-0.034
6.812,-0.039
6.813,-0.044
6.814,-0.050
6.815,-0.053
6.816,-0.058
6.817,-0.059
6.818,-0.067
6.819,-0.072
6.820,-0.072
6.821,-0.072
6.822,-0.071
6.823,-0.069
6.824,-0.069
6.825,-0.069
6.826,-0.075
6.827,-0.078
6.828,-0.079
6.829,-0.084
6.830,-0.083
6.831,-0.084
6.832,-0.084
6.833,-0.081
6.834,-0.078
6.835,-0.078
6.836,-0.079
6.837,-0.081
6.838,-0.083
6.839,-0.084
6.840,-0.083
6.841,-0.084
6.842,-0.081
6.843,-0.078
6.844,-0.075
6.845,-0.075
6.846,-0.078
6.847,-0.081
6.848,-0.084
6.849,-0.081
6.850,-0.078
6.851,-0.075
6.852,-0.076
6.853,-0.078
6.854,-0.078
6.855,-0.081
6.856,-0.080
6.857,-0.081
6.858,-0.083
6.859,-0.084
6.860,-0.086
6.861,-0.084
6.862,-0.084
6.863,-0.084
6.864,-0.083
6.865,-0.081
6.866,-0.084
6.867,-0.084
6.868,-0.086
6.869,-0.084
6.870,-0.084
6.871,-0.084
6.872,-0.081
6.873,-0.078
6.874,-0.079
6.875,-0.081
6.876,-0.083
6.877,-0.084
6.878,-0.081
6.879,-0.081
6.880,-0.084
6.881,-0.084
6.882,-0.084
6.883,-0.084
6.884,-0.088
6.885,-0.088
6.886,-0.088
6.887,-0.088
6.888,-0.086
6.889,-0.088
6.890,-0.086
6.891,-0.088
6.892,-0.091
6.893,-0.094
6.894,-0.097
6.895,-0.106
6.896,-0.120
6.897,-0.134
6.898,-0.150
6.899,-0.169
6.900,-0.187
6.901,-0.203
6.902,-0.221
6.903,-0.222
6.904,-0.222
6.905,-0.219
6.906,-0.212
6.907,-0.191
6.908,-0.175
6.909,-0.147
6.910,-0.114
6.911,-0.078
6.912,-0.046
6.913,-0.006
6.914,0.034
6.915,0.063
6.916,0.104
6.917,0.147
6.918,0.184
6.919,0.247
6.920,0.306
6.921,0.359
6.922,0.426
6.923,0.503
6.924,0.574
6.925,0.666
6.926,0.767
6.927,0.847
6.928,0.927
6.929,0.994
6.930,1.059
6.931,1.109
6.932,1.167
6.933,1.238
6.934,1.306
6.935,1.362
6.936,1.420
6.937,1.469
6.938,1.494
6.939,1.469
6.940,1.438
6.941,1.337
6.942,1.245
6.943,1.147
6.944,1.050
6.945,0.963
6.946,0.878
6.947,0.797
6.948,0.714
6.949,0.647
6.950,0.576
6.951,0.509
6.952,0.444
6.953,0.384
6.954,0.322
6.955,0.266
6.956,0.205
6.957,0.156
6.958,0.106
6.959,0.066
6.960,0.025
6.961,0.006
6.962,-0.008
6.963,-0.019
6.964,-0.029
6.965,-0.038
6.966,-0.043
6.967,-0.041
6.968,-0.041
6.969,-0.031
6.970,-0.022
6.971,-0.013
6.972,-0.004
6.973,0.000
6.974,0.002
6.975,0.003
6.976,0.013
6.977,0.013
6.978,0.022
6.979,0.028
6.980,0.033
6.981,0.041
6.982,0.042
6.983,0.041
6.984,0.042
6.985,0.038
6.986,0.038
6.987,0.031
6.988,0.031
6.989,0.028
6.990,0.025
6.991,0.019
6.992,0.014
6.993,0.013
6.994,0.011
6.995,0.013
6.996,0.008
6.997,0.009
6.998,0.013
6.999,0.013
7.000,0.016
7.001,0.013
7.002,0.013
7.003,0.009
7.004,0.008
7.005,0.009
7.006,0.006
7.007,0.006
7.008,0.011
7.009,0.009
7.010,0.006
7.011,0.006
7.012,0.006
7.013,0.006
7.014,0.006
7.015,0.006
7.016,0.008
7.017,0.009
7.018,0.008
7.019,0.006
7.020,0.005
7.021,0.003
7.022,0.003
7.023,0.003
7.024,0.004
7.025,0.006
7.026,0.002
7.027,0.003
7.028,0.003
7.029,0.003
7.030,0.003
7.031,0.006
7.032,0.009
7.033,0.006
7.034,0.005
7.035,0.003
7.036,0.008
7.037,0.006
7.038,0.008
7.039,0.009
7.040,0.009
7.041,0.009
7.042,0.009
7.043,0.009
7.044,0.009
7.045,0.009
7.046,0.008
7.047,0.013
7.048,0.008
7.049,0.009
7.050,0.011
7.051,0.013
7.052,0.013
7.053,0.016
7.054,0.016
7.055,0.022
7.056,0.023
7.057,0.025
7.058,0.025
7.059,0.025
7.060,0.028
7.061,0.028
7.062,0.024
7.063,0.025
7.064,0.025
7.065,0.025
7.066,0.028
7.067,0.025
7.068,0.024
7.069,0.025
7.070,0.021
7.071,0.022
7.072,0.023
7.073,0.025
7.074,0.028
7.075,0.028
7.076,0.031
7.077,0.028
7.078,0.029
7.079,0.034
7.080,0.038
7.081,0.034
7.082,0.033
7.083,0.031
7.084,0.031
7.085,0.031
7.086,0.034
7.087,0.038
7.088,0.034
7.089,0.034
7.090,0.031
7.091,0.031
7.092,0.034
7.093,0.034
7.094,0.036
7.095,0.038
7.096,0.038
7.097,0.038
7.098,0.038
7.099,0.038
7.100,0.038
7.101,0.034
7.102,0.038
7.103,0.041
7.104,0.039
7.105,0.041
7.106,0.041
7.107,0.044
7.108,0.043
7.109,0.044
7.110,0.041
7.111,0.041
7.112,0.045
7.113,0.044
7.114,0.046
7.115,0.044
7.116,0.046
7.117,0.047
7.118,0.048
7.119,0.047
7.120,0.047
7.121,0.047
7.122,0.047
7.123,0.047
7.124,0.047
7.125,0.047
7.126,0.047
7.127,0.047
7.128,0.050
7.129,0.050
7.130,0.050
7.131,0.053
7.132,0.050
7.133,0.053
7.134,0.050
7.135,0.053
7.136,0.051
7.137,0.053
7.138,0.056
7.139,0.056
7.140,0.058
7.141,0.053
7.142,0.055
7.143,0.053
7.144,0.054
7.145,0.056
7.146,0.059
7.147,0.059
7.148,0.056
7.149,0.059
7.150,0.056
7.151,0.056
7.152,0.059
7.153,0.059
7.154,0.059
7.155,0.059
7.156,0.056
7.157,0.056
7.158,0.059
7.159,0.063
7.160,0.058
7.161,0.059
7.162,0.056
7.163,0.053
7.164,0.051
7.165,0.053
7.166,0.054
7.167,0.056
7.168,0.056
7.169,0.056
7.170,0.056
7.171,0.056
7.172,0.061
7.173,0.063
7.174,0.061
7.175,0.063
7.176,0.063
7.177,0.063
7.178,0.059
7.179,0.059
7.180,0.064
7.181,0.063
7.182,0.059
7.183,0.059
7.184,0.059
7.185,0.059
7.186,0.059
7.187,0.059
7.188,0.061
7.189,0.059
7.190,0.061
7.191,0.059
7.192,0.059
7.193,0.063
7.194,0.064
7.195,0.063
7.196,0.061
7.197,0.059
7.198,0.061
7.199,0.059
7.200,0.059
7.201,0.059
7.202,0.061
7.203,0.063
7.204,0.058
7.205,0.059
7.206,0.056
7.207,0.056
7.208,0.058
7.209,0.059
7.210,0.055
7.211,0.053
7.212,0.053
7.213,0.053
7.214,0.056
7.215,0.056
7.216,0.059
7.217,0.056
7.218,0.053
7.219,0.050
7.220,0.050
7.221,0.050
7.222,0.050
7.223,0.050
7.224,0.053
7.225,0.056
7.226,0.056
7.227,0.053
7.228,0.051
7.229,0.053
7.230,0.053
7.231,0.053
7.232,0.052
7.233,0.050
7.234,0.050
7.235,0.050
7.236,0.051
7.237,0.053
7.238,0.049
7.239,0.047
7.240,0.045
7.241,0.050
7.242,0.054
7.243,0.056
7.244,0.058
7.245,0.059
7.246,0.056
7.247,0.059
7.248,0.061
7.249,0.059
7.250,0.058
7.251,0.056
7.252,0.052
7.253,0.050
7.254,0.051
7.255,0.056
7.256,0.059
7.257,0.056
7.258,0.059
7.259,0.063
7.260,0.063
7.261,0.063
7.262,0.066
7.263,0.066
7.264,0.064
7.265,0.063
7.266,0.064
7.267,0.063
7.268,0.064
7.269,0.072
7.270,0.073
7.271,0.075
7.272,0.078
7.273,0.078
7.274,0.078
7.275,0.081
7.276,0.084
7.277,0.084
7.278,0.083
7.279,0.084
7.280,0.088
7.281,0.088
7.282,0.086
7.283,0.088
7.284,0.091
7.285,0.091
7.286,0.094
7.287,0.100
7.288,0.100
7.289,0.100
7.290,0.100
7.291,0.100
7.292,0.099
7.293,0.100
7.294,0.101
7.295,0.103
7.296,0.102
7.297,0.103
7.298,0.102
7.299,0.103
7.300,0.104
7.301,0.106
7.302,0.106
7.303,0.106
7.304,0.108
7.305,0.103
7.306,0.103
7.307,0.103
7.308,0.101
7.309,0.103
7.310,0.100
7.311,0.103
7.312,0.104
7.313,0.103
7.314,0.100
7.315,0.100
7.316,0.103
7.317,0.103
7.318,0.099
7.319,0.097
7.320,0.096
7.321,0.088
7.322,0.088
7.323,0.088
7.324,0.084
7.325,0.084
7.326,0.083
7.327,0.075
7.328,0.072
7.329,0.069
7.330,0.072
7.331,0.066
7.332,0.064
7.333,0.059
7.334,0.055
7.335,0.053
7.336,0.054
7.337,0.050
7.338,0.046
7.339,0.044
7.340,0.045
7.341,0.041
7.342,0.044
7.343,0.044
7.344,0.034
7.345,0.031
7.346,0.030
7.347,0.025
7.348,0.022
7.349,0.022
7.350,0.022
7.351,0.019
7.352,0.016
7.353,0.009
7.354,0.008
7.355,0.009
7.356,0.005
7.357,0.003
7.358,0.001
7.359,0.003
7.360,0.001
7.361,0.000
7.362,0.003
7.363,0.003
7.364,0.000
7.365,0.000
7.366,-0.001
7.367,-0.006
7.368,-0.009
7.369,-0.006
7.370,-0.011
7.371,-0.009
7.372,-0.006
7.373,-0.009
7.374,-0.011
7.375,-0.013
7.376,-0.014
7.377,-0.016
7.378,-0.014
7.379,-0.016
7.380,-0.016
7.381,-0.016
7.382,-0.017
7.383,-0.016
7.384,-0.014
7.385,-0.016
7.386,-0.016
7.387,-0.022
7.388,-0.019
7.389,-0.019
7.390,-0.018
7.391,-0.013
7.392,-0.017
7.393,-0.016
7.394,-0.019
7.395,-0.019
7.396,-0.019
7.397,-0.019
7.398,-0.017
7.399,-0.019
7.400,-0.026
7.401,-0.025
7.402,-0.021
7.403,-0.019
7.404,-0.014
7.405,-0.016
7.406,-0.017
7.407,-0.019
7.408,-0.014
7.409,-0.013
7.410,-0.011
7.411,-0.009
7.412,-0.013
7.413,-0.013
7.414,-0.011
7.415,-0.013
7.416,-0.011
7.417,-0.009
7.418,-0.008
7.419,-0.009
7.420,-0.008
7.421,-0.009
7.422,-0.009
7.423,-0.013
7.424,-0.011
7.425,-0.013
7.426,-0.013
7.427,-0.013
7.428,-0.013
7.429,-0.013
7.430,-0.009
7.431,-0.006
7.432,-0.006
7.433,-0.006
7.434,-0.008
7.435,-0.009
7.436,-0.008
7.437,-0.006
7.438,-0.006
7.439,-0.006
7.440,-0.006
7.441,-0.006
7.442,-0.008
7.443,-0.006
7.444,-0.006
7.445,-0.006
7.446,-0.009
7.447,-0.009
7.448,-0.006
7.449,-0.006
7.450,-0.008
7.451,-0.006
7.452,-0.006
7.453,-0.006
7.454,-0.005
7.455,-0.003
7.456,-0.003
7.457,-0.006
7.458,0.001
7.459,0.000
7.460,-0.005
7.461,-0.003
7.462,-0.003
7.463,-0.003
7.464,-0.003
7.465,-0.003
7.466,-0.002
7.467,0.000
7.468,-0.001
7.469,0.000
7.470,-0.003
7.471,-0.003
7.472,-0.002
7.473,0.003
7.474,0.000
7.475,0.000
7.476,-0.001
7.477,-0.003
7.478,-0.001
7.479,-0.003
7.480,-0.004
7.481,-0.006
7.482,-0.009
7.483,-0.006
7.484,-0.005
7.485,-0.006
7.486,-0.006
7.487,-0.006
7.488,-0.008
7.489,-0.009
7.490,-0.009
7.491,-0.009
7.492,-0.009
7.493,-0.009
7.494,-0.011
7.495,-0.013
7.496,-0.016
7.497,-0.016
7.498,-0.016
7.499,-0.016
7.500,-0.013
7.501,-0.009
7.502,-0.009
7.503,-0.013
7.504,-0.013
7.505,-0.013
7.506,-0.013
7.507,-0.009
7.508,-0.011
7.509,-0.013
7.510,-0.013
7.511,-0.013
7.512,-0.014
7.513,-0.016
7.514,-0.019
7.515,-0.016
7.516,-0.016
7.517,-0.013
7.518,-0.013
7.519,-0.013
7.520,-0.014
7.521,-0.016
7.522,-0.019
7.523,-0.022
7.524,-0.023
7.525,-0.025
7.526,-0.024
7.527,-0.022
7.528,-0.023
7.529,-0.025
7.530,-0.025
7.531,-0.028
7.532,-0.025
7.533,-0.025
7.534,-0.028
7.535,-0.028
7.536,-0.025
7.537,-0.031
7.538,-0.031
7.539,-0.034
7.540,-0.036
7.541,-0.038
7.542,-0.034
7.543,-0.034
7.544,-0.038
7.545,-0.038
7.546,-0.036
7.547,-0.034
7.548,-0.036
7.549,-0.034
7.550,-0.031
7.551,-0.034
7.552,-0.033
7.553,-0.034
7.554,-0.031
7.555,-0.034
7.556,-0.034
7.557,-0.041
7.558,-0.041
7.559,-0.041
7.560,-0.038
7.561,-0.041
7.562,-0.038
7.563,-0.044
7.564,-0.041
7.565,-0.044
7.566,-0.044
7.567,-0.044
7.568,-0.044
7.569,-0.044
7.570,-0.043
7.571,-0.044
7.572,-0.044
7.573,-0.044
7.574,-0.042
7.575,-0.044
7.576,-0.043
7.577,-0.041
7.578,-0.044
7.579,-0.044
7.580,-0.044
7.581,-0.044
7.582,-0.045
7.583,-0.047
7.584,-0.047
7.585,-0.050
7.586,-0.050
7.587,-0.050
7.588,-0.050
7.589,-0.050
7.590,-0.050
7.591,-0.050
7.592,-0.050
7.593,-0.047
7.594,-0.049
7.595,-0.050
7.596,-0.050
7.597,-0.050
7.598,-0.047
7.599,-0.047
7.600,-0.049
7.601,-0.047
7.602,-0.047
7.603,-0.047
7.604,-0.047
7.605,-0.047
7.606,-0.050
7.607,-0.050
7.608,-0.050
7.609,-0.050
7.610,-0.050
7.611,-0.050
7.612,-0.053
7.613,-0.053
7.614,-0.054
7.615,-0.056
7.616,-0.052
7.617,-0.053
7.618,-0.053
7.619,-0.056
7.620,-0.056
7.621,-0.056
7.622,-0.058
7.623,-0.056
7.624,-0.050
7.625,-0.050
7.626,-0.054
7.627,-0.053
7.628,-0.053
7.629,-0.053
7.630,-0.053
7.631,-0.053
7.632,-0.053
7.633,-0.053
7.634,-0.056
7.635,-0.056
7.636,-0.056
7.637,-0.056
7.638,-0.060
7.639,-0.063
7.640,-0.063
7.641,-0.063
7.642,-0.059
7.643,-0.056
7.644,-0.058
7.645,-0.059
7.646,-0.059
7.647,-0.059
7.648,-0.056
7.649,-0.053
7.650,-0.053
7.651,-0.053
7.652,-0.053
7.653,-0.053
7.654,-0.054
7.655,-0.056
7.656,-0.056
7.657,-0.056
7.658,-0.056
7.659,-0.056
7.660,-0.059
7.661,-0.063
7.662,-0.064
7.663,-0.066
7.664,-0.066
7.665,-0.066
7.666,-0.066
7.667,-0.066
7.668,-0.064
7.669,-0.063
7.670,-0.061
7.671,-0.059
7.672,-0.059
7.673,-0.059
7.674,-0.061
7.675,-0.063
7.676,-0.063
7.677,-0.063
7.678,-0.064
7.679,-0.066
7.680,-0.066
7.681,-0.066
7.682,-0.066
7.683,-0.066
7.684,-0.066
7.685,-0.066
7.686,-0.066
7.687,-0.066
7.688,-0.066
7.689,-0.066
7.690,-0.064
7.691,-0.063
7.692,-0.063
7.693,-0.063
7.694,-0.063
7.695,-0.063
7.696,-0.063
7.697,-0.063
7.698,-0.063
7.699,-0.063
7.700,-0.063
7.701,-0.063
7.702,-0.064
7.703,-0.066
7.704,-0.064
7.705,-0.063
7.706,-0.063
7.707,-0.063
7.708,-0.064
7.709,-0.066
7.710,-0.066
7.711,-0.066
7.712,-0.066
7.713,-0.066
7.714,-0.067
7.715,-0.069
7.716,-0.069
7.717,-0.069
7.718,-0.069
7.719,-0.069
7.720,-0.069
7.721,-0.069
7.722,-0.068
7.723,-0.066
7.724,-0.067
7.725,-0.069
7.726,-0.069
7.727,-0.069
7.728,-0.069
7.729,-0.069
7.730,-0.069
7.731,-0.069
7.732,-0.069
7.733,-0.069
7.734,-0.069
7.735,-0.069
7.736,-0.069
7.737,-0.069
7.738,-0.069
7.739,-0.069
7.740,-0.069
7.741,-0.069
7.742,-0.069
7.743,-0.069
7.744,-0.069
7.745,-0.069
7.746,-0.066
7.747,-0.063
7.748,-0.063
7.749,-0.063
7.750,-0.064
7.751,-0.066
7.752,-0.066
7.753,-0.066
7.754,-0.067
7.755,-0.069
7.756,-0.070
7.757,-0.072
7.758,-0.072
7.759,-0.072
7.760,-0.071
7.761,-0.069
7.762,-0.069
7.763,-0.069
7.764,-0.070
7.765,-0.072
7.766,-0.072
7.767,-0.072
7.768,-0.071
7.769,-0.069
7.770,-0.068
7.771,-0.066
7.772,-0.066
7.773,-0.066
7.774,-0.066
7.775,-0.066
7.776,-0.066
7.777,-0.066
7.778,-0.067
7.779,-0.069
7.780,-0.069
7.781,-0.069
7.782,-0.068
7.783,-0.066
7.784,-0.067
7.785,-0.069
7.786,-0.070
7.787,-0.072
7.788,-0.072
7.789,-0.072
7.790,-0.073
7.791,-0.075
7.792,-0.075
7.793,-0.075
7.794,-0.075
7.795,-0.075
7.796,-0.076
7.797,-0.078
7.798,-0.077
7.799,-0.075
7.800,-0.074
7.801,-0.072
7.802,-0.073
7.803,-0.075
7.804,-0.076
7.805,-0.078
7.806,-0.077
7.807,-0.075
7.808,-0.075
7.809,-0.075
7.810,-0.075
7.811,-0.075
7.812,-0.075
7.813,-0.075
7.814,-0.075
7.815,-0.075
7.816,-0.074
7.817,-0.072
7.818,-0.072
7.819,-0.075
7.820,-0.076
7.821,-0.075
7.822,-0.076
7.823,-0.075
7.824,-0.074
7.825,-0.072
7.826,-0.075
7.827,-0.075
7.828,-0.076
7.829,-0.078
7.830,-0.079
7.831,-0.081
7.832,-0.078
7.833,-0.075
7.834,-0.071
7.835,-0.072
7.836,-0.071
7.837,-0.072
7.838,-0.072
7.839,-0.072
7.840,-0.073
7.841,-0.072
7.842,-0.072
7.843,-0.072
7.844,-0.070
7.845,-0.072
7.846,-0.071
7.847,-0.072
7.848,-0.072
7.849,-0.069
7.850,-0.069
7.851,-0.069
7.852,-0.070
7.853,-0.072
7.854,-0.071
7.855,-0.072
7.856,-0.073
7.857,-0.075
7.858,-0.071
7.859,-0.072
7.860,-0.076
7.861,-0.075
7.862,-0.072
7.863,-0.075
7.864,-0.072
7.865,-0.069
7.866,-0.069
7.867,-0.069
7.868,-0.070
7.869,-0.072
7.870,-0.075
7.871,-0.078
7.872,-0.077
7.873,-0.075
7.874,-0.072
7.875,-0.075
7.876,-0.078
7.877,-0.081
7.878,-0.078
7.879,-0.075
7.880,-0.075
7.881,-0.075
7.882,-0.076
7.883,-0.078
7.884,-0.075
7.885,-0.069
7.886,-0.069
7.887,-0.069
7.888,-0.072
7.889,-0.072
7.890,-0.070
7.891,-0.072
7.892,-0.072
7.893,-0.072
7.894,-0.075
7.895,-0.075
7.896,-0.072
7.897,-0.075
7.898,-0.075
7.899,-0.078
7.900,-0.081
7.901,-0.081
7.902,-0.081
7.903,-0.081
7.904,-0.080
7.905,-0.078
7.906,-0.078
7.907,-0.081
7.908,-0.080
7.909,-0.081
7.910,-0.079
7.911,-0.081
7.912,-0.081
7.913,-0.078
7.914,-0.081
7.915,-0.081
7.916,-0.080
7.917,-0.075
7.918,-0.081
7.919,-0.084
7.920,-0.078
7.921,-0.075
7.922,-0.076
7.923,-0.078
7.924,-0.075
7.925,-0.072
7.926,-0.072
7.927,-0.072
7.928,-0.072
7.929,-0.072
7.930,-0.076
7.931,-0.075
7.932,-0.078
7.933,-0.081
7.934,-0.078
7.935,-0.075
7.936,-0.074
7.937,-0.072
7.938,-0.071
7.939,-0.072
7.940,-0.075
7.941,-0.072
7.942,-0.072
7.943,-0.072
7.944,-0.072
7.945,-0.072
7.946,-0.070
7.947,-0.072
7.948,-0.072
7.949,-0.072
7.950,-0.072
7.951,-0.072
7.952,-0.072
7.953,-0.072
7.954,-0.069
7.955,-0.072
7.956,-0.072
7.957,-0.075
7.958,-0.072
7.959,-0.072
7.960,-0.075
7.961,-0.072
7.962,-0.073
7.963,-0.075
7.964,-0.075
7.965,-0.075
7.966,-0.075
7.967,-0.075
7.968,-0.070
7.969,-0.075
7.970,-0.074
7.971,-0.072
7.972,-0.075
7.973,-0.075
7.974,-0.075
7.975,-0.072
7.976,-0.076
7.977,-0.075
7.978,-0.075
7.979,-0.075
7.980,-0.074
7.981,-0.075
7.982,-0.075
7.983,-0.075
7.984,-0.075
7.985,-0.075
7.986,-0.074
7.987,-0.072
7.988,-0.076
7.989,-0.075
7.990,-0.075
7.991,-0.075
7.992,-0.075
7.993,-0.075
7.994,-0.075
7.995,-0.075
7.996,-0.074
7.997,-0.075
7.998,-0.074
7.999,-0.069
8.000,-0.069
8.001,-0.069
8.002,-0.070
8.003,-0.072
8.004,-0.068
8.005,-0.069
8.006,-0.069
8.007,-0.066
8.008,-0.066
8.009,-0.066
8.010,-0.066
8.011,-0.066
8.012,-0.067
8.013,-0.072
8.014,-0.070
8.015,-0.072
8.016,-0.069
8.017,-0.072
8.018,-0.066
8.019,-0.066
8.020,-0.067
8.021,-0.069
8.022,-0.066
8.023,-0.066
8.024,-0.068
8.025,-0.069
8.026,-0.069
8.027,-0.069
8.028,-0.066
8.029,-0.066
8.030,-0.066
8.031,-0.066
8.032,-0.070
8.033,-0.072
8.034,-0.072
8.035,-0.072
8.036,-0.072
8.037,-0.072
8.038,-0.072
8.039,-0.069
8.040,-0.069
8.041,-0.069
8.042,-0.073
8.043,-0.072
8.044,-0.071
8.045,-0.072
8.046,-0.072
8.047,-0.072
8.048,-0.072
8.049,-0.075
8.050,-0.076
8.051,-0.075
8.052,-0.076
8.053,-0.075
8.054,-0.075
8.055,-0.075
8.056,-0.074
8.057,-0.072
8.058,-0.075
8.059,-0.075
8.060,-0.076
8.061,-0.078
8.062,-0.078
8.063,-0.075
8.064,-0.074
8.065,-0.075
8.066,-0.078
8.067,-0.081
8.068,-0.081
8.069,-0.081
8.070,-0.081
8.071,-0.081
8.072,-0.081
8.073,-0.081
8.074,-0.080
8.075,-0.078
8.076,-0.077
8.077,-0.078
8.078,-0.078
8.079,-0.078
8.080,-0.076
8.081,-0.078
8.082,-0.077
8.083,-0.078
8.084,-0.078
8.085,-0.075
8.086,-0.076
8.087,-0.078
8.088,-0.078
8.089,-0.078
8.090,-0.076
8.091,-0.081
8.092,-0.081
8.093,-0.081
8.094,-0.081
8.095,-0.075
8.096,-0.076
8.097,-0.078
8.098,-0.079
8.099,-0.081
8.100,-0.081
8.101,-0.084
8.102,-0.081
8.103,-0.081
8.104,-0.080
8.105,-0.078
8.106,-0.078
8.107,-0.078
8.108,-0.078
8.109,-0.078
8.110,-0.072
8.111,-0.069
8.112,-0.070
8.113,-0.069
8.114,-0.061
8.115,-0.063
8.116,-0.061
8.117,-0.059
8.118,-0.052
8.119,-0.047
8.120,-0.047
8.121,-0.044
8.122,-0.036
8.123,-0.031
8.124,-0.027
8.125,-0.022
8.126,-0.019
8.127,-0.013
8.128,-0.013
8.129,-0.009
8.130,-0.008
8.131,-0.009
8.132,-0.009
8.133,-0.009
8.134,-0.016
8.135,-0.019
8.136,-0.029
8.137,-0.031
8.138,-0.028
8.139,-0.028
8.140,-0.025
8.141,-0.022
8.142,-0.019
8.143,-0.019
8.144,-0.020
8.145,-0.019
8.146,-0.018
8.147,-0.016
8.148,-0.011
8.149,-0.003
8.150,0.000
8.151,0.000
8.152,0.000
8.153,0.000
8.154,0.000
8.155,0.000
8.156,0.003
8.157,-0.003
8.158,-0.009
8.159,-0.009
8.160,-0.014
8.161,-0.016
8.162,-0.020
8.163,-0.025
8.164,-0.025
8.165,-0.025
8.166,-0.022
8.167,-0.025
8.168,-0.031
8.169,-0.038
8.170,-0.041
8.171,-0.044
8.172,-0.041
8.173,-0.044
8.174,-0.048
8.175,-0.050
8.176,-0.053
8.177,-0.050
8.178,-0.047
8.179,-0.047
8.180,-0.049
8.181,-0.047
8.182,-0.050
8.183,-0.047
8.184,-0.051
8.185,-0.050
8.186,-0.046
8.187,-0.044
8.188,-0.043
8.189,-0.041
8.190,-0.046
8.191,-0.047
8.192,-0.056
8.193,-0.063
8.194,-0.069
8.195,-0.072
8.196,-0.074
8.197,-0.075
8.198,-0.074
8.199,-0.072
8.200,-0.078
8.201,-0.084
8.202,-0.089
8.203,-0.091
8.204,-0.091
8.205,-0.094
8.206,-0.089
8.207,-0.088
8.208,-0.089
8.209,-0.088
8.210,-0.086
8.211,-0.088
8.212,-0.088
8.213,-0.088
8.214,-0.088
8.215,-0.088
8.216,-0.086
8.217,-0.088
8.218,-0.088
8.219,-0.088
8.220,-0.086
8.221,-0.088
8.222,-0.086
8.223,-0.084
8.224,-0.089
8.225,-0.088
8.226,-0.088
8.227,-0.088
8.228,-0.088
8.229,-0.088
8.230,-0.086
8.231,-0.088
8.232,-0.088
8.233,-0.091
8.234,-0.088
8.235,-0.084
8.236,-0.086
8.237,-0.084
8.238,-0.086
8.239,-0.088
8.240,-0.086
8.241,-0.084
8.242,-0.088
8.243,-0.088
8.244,-0.089
8.245,-0.088
8.246,-0.088
8.247,-0.088
8.248,-0.088
8.249,-0.088
8.250,-0.088
8.251,-0.088
8.252,-0.089
8.253,-0.091
8.254,-0.088
8.255,-0.088
8.256,-0.089
8.257,-0.088
8.258,-0.089
8.259,-0.091
8.260,-0.091
8.261,-0.088
8.262,-0.088
8.263,-0.088
8.264,-0.086
8.265,-0.088
8.266,-0.086
8.267,-0.088
8.268,-0.091
8.269,-0.094
8.270,-0.098
8.271,-0.109
8.272,-0.122
8.273,-0.134
8.274,-0.150
8.275,-0.169
8.276,-0.189
8.277,-0.206
8.278,-0.224
8.279,-0.225
8.280,-0.226
8.281,-0.225
8.282,-0.221
8.283,-0.200
8.284,-0.184
8.285,-0.156
8.286,-0.125
8.287,-0.091
8.288,-0.061
8.289,-0.025
8.290,0.016
8.291,0.044
8.292,0.083
8.293,0.122
8.294,0.161
8.295,0.225
8.296,0.289
8.297,0.347
8.298,0.411
8.299,0.484
8.300,0.556
8.301,0.650
8.302,0.751
8.303,0.831
8.304,0.912
8.305,0.981
8.306,1.046
8.307,1.094
8.308,1.154
8.309,1.228
8.310,1.300
8.311,1.359
8.312,1.413
8.313,1.456
8.314,1.489
8.315,1.472
8.316,1.444
8.317,1.347
8.318,1.253
8.319,1.153
8.320,1.056
8.321,0.969
8.322,0.881
8.323,0.797
8.324,0.711
8.325,0.641
8.326,0.572
8.327,0.506
8.328,0.436
8.329,0.372
8.330,0.311
8.331,0.256
8.332,0.197
8.333,0.150
8.334,0.098
8.335,0.056
8.336,0.016
8.337,-0.003
8.338,-0.018
8.339,-0.028
8.340,-0.039
8.341,-0.047
8.342,-0.053
8.343,-0.053
8.344,-0.058
8.345,-0.053
8.346,-0.045
8.347,-0.038
8.348,-0.024
8.349,-0.013
8.350,-0.005
8.351,0.003
8.352,0.011
8.353,0.009
8.354,0.016
8.355,0.019
8.356,0.022
8.357,0.028
8.358,0.029
8.359,0.028
8.360,0.027
8.361,0.019
8.362,0.020
8.363,0.016
8.364,0.014
8.365,0.009
8.366,0.008
8.367,0.003
8.368,0.000
8.369,0.000
8.370,0.000
8.371,0.003
8.372,-0.001
8.373,0.000
8.374,-0.003
8.375,-0.009
8.376,-0.006
8.377,-0.009
8.378,-0.006
8.379,-0.006
8.380,-0.011
8.381,-0.013
8.382,-0.016
8.383,-0.016
8.384,-0.013
8.385,-0.016
8.386,-0.018
8.387,-0.016
8.388,-0.013
8.389,-0.009
8.390,-0.009
8.391,-0.009
8.392,-0.011
8.393,-0.013
8.394,-0.013
8.395,-0.013
8.396,-0.013
8.397,-0.013
8.398,-0.017
8.399,-0.022
8.400,-0.023
8.401,-0.025
8.402,-0.027
8.403,-0.022
8.404,-0.018
8.405,-0.013
8.406,-0.011
8.407,-0.006
8.408,-0.003
8.409,-0.006
8.410,-0.005
8.411,-0.003
8.412,0.000
8.413,-0.003
8.414,-0.006
8.415,-0.009
8.416,-0.011
8.417,-0.013
8.418,-0.013
8.419,-0.013
8.420,-0.013
8.421,-0.013
8.422,-0.013
8.423,-0.006
8.424,-0.011
8.425,-0.009
8.426,-0.005
8.427,0.000
8.428,-0.003
8.429,-0.003
8.430,-0.008
8.431,-0.006
8.432,-0.005
8.433,-0.003
8.434,-0.002
8.435,0.000
8.436,0.003
8.437,0.003
8.438,-0.001
8.439,0.000
8.440,0.001
8.441,0.003
8.442,0.006
8.443,0.003
8.444,0.002
8.445,0.003
8.446,0.000
8.447,0.003
8.448,0.002
8.449,0.000
8.450,0.004
8.451,0.006
8.452,0.011
8.453,0.009
8.454,0.009
8.455,0.013
8.456,0.016
8.457,0.013
8.458,0.013
8.459,0.013
8.460,0.013
8.461,0.013
8.462,0.013
8.463,0.013
8.464,0.011
8.465,0.013
8.466,0.009
8.467,0.009
8.468,0.011
8.469,0.009
8.470,0.011
8.471,0.013
8.472,0.011
8.473,0.009
8.474,0.009
8.475,0.009
8.476,0.017
8.477,0.022
8.478,0.021
8.479,0.019
8.480,0.014
8.481,0.013
8.482,0.013
8.483,0.016
8.484,0.017
8.485,0.022
8.486,0.019
8.487,0.019
8.488,0.022
8.489,0.019
8.490,0.023
8.491,0.025
8.492,0.027
8.493,0.028
8.494,0.028
8.495,0.025
8.496,0.025
8.497,0.025
8.498,0.025
8.499,0.025
8.500,0.025
8.501,0.025
8.502,0.025
8.503,0.025
8.504,0.027
8.505,0.025
8.506,0.026
8.507,0.031
8.508,0.027
8.509,0.028
8.510,0.026
8.511,0.031
8.512,0.029
8.513,0.031
8.514,0.033
8.515,0.031
8.516,0.034
8.517,0.031
8.518,0.036
8.519,0.038
8.520,0.038
8.521,0.038
8.522,0.042
8.523,0.044
8.524,0.041
8.525,0.044
8.526,0.041
8.527,0.041
8.528,0.043
8.529,0.041
8.530,0.041
8.531,0.041
8.532,0.039
8.533,0.041
8.534,0.043
8.535,0.044
8.536,0.039
8.537,0.041
8.538,0.042
8.539,0.044
8.540,0.041
8.541,0.041
8.542,0.041
8.543,0.041
8.544,0.041
8.545,0.041
8.546,0.041
8.547,0.041
8.548,0.044
8.549,0.044
8.550,0.041
8.551,0.041
8.552,0.041
8.553,0.041
8.554,0.041
8.555,0.044
8.556,0.050
8.557,0.050
8.558,0.047
8.559,0.047
8.560,0.047
8.561,0.047
8.562,0.046
8.563,0.044
8.564,0.046
8.565,0.044
8.566,0.045
8.567,0.044
8.568,0.041
8.569,0.041
8.570,0.042
8.571,0.041
8.572,0.039
8.573,0.038
8.574,0.041
8.575,0.041
8.576,0.039
8.577,0.038
8.578,0.041
8.579,0.044
8.580,0.042
8.581,0.047
8.582,0.044
8.583,0.044
8.584,0.047
8.585,0.050
8.586,0.046
8.587,0.044
8.588,0.043
8.589,0.041
8.590,0.043
8.591,0.041
8.592,0.041
8.593,0.034
8.594,0.038
8.595,0.041
8.596,0.041
8.597,0.041
8.598,0.041
8.599,0.041
8.600,0.041
8.601,0.041
8.602,0.043
8.603,0.041
8.604,0.036
8.605,0.034
8.606,0.034
8.607,0.034
8.608,0.036
8.609,0.038
8.610,0.038
8.611,0.038
8.612,0.038
8.613,0.038
8.614,0.036
8.615,0.038
8.616,0.034
8.617,0.038
8.618,0.041
8.619,0.041
8.620,0.041
8.621,0.041
8.622,0.034
8.623,0.034
8.624,0.038
8.625,0.038
8.626,0.041
8.627,0.044
8.628,0.041
8.629,0.041
8.630,0.041
8.631,0.044
8.632,0.047
8.633,0.044
8.634,0.047
8.635,0.050
8.636,0.050
8.637,0.050
8.638,0.052
8.639,0.050
8.640,0.053
8.641,0.056
8.642,0.058
8.643,0.056
8.644,0.053
8.645,0.056
8.646,0.058
8.647,0.059
8.648,0.063
8.649,0.063
8.650,0.066
8.651,0.072
8.652,0.074
8.653,0.072
8.654,0.072
8.655,0.075
8.656,0.078
8.657,0.078
8.658,0.078
8.659,0.081
8.660,0.084
8.661,0.084
8.662,0.083
8.663,0.084
8.664,0.084
8.665,0.084
8.666,0.084
8.667,0.084
8.668,0.083
8.669,0.084
8.670,0.088
8.671,0.091
8.672,0.092
8.673,0.097
8.674,0.096
8.675,0.097
8.676,0.097
8.677,0.097
8.678,0.097
8.679,0.097
8.680,0.100
8.681,0.097
8.682,0.098
8.683,0.100
8.684,0.098
8.685,0.100
8.686,0.093
8.687,0.091
8.688,0.091
8.689,0.088
8.690,0.084
8.691,0.084
8.692,0.084
8.693,0.081
8.694,0.078
8.695,0.078
8.696,0.083
8.697,0.081
8.698,0.079
8.699,0.078
8.700,0.075
8.701,0.075
8.702,0.079
8.703,0.078
8.704,0.072
8.705,0.066
8.706,0.066
8.707,0.056
8.708,0.058
8.709,0.056
8.710,0.052
8.711,0.050
8.712,0.051
8.713,0.047
8.714,0.044
8.715,0.044
8.716,0.044
8.717,0.038
8.718,0.038
8.719,0.034
8.720,0.028
8.721,0.028
8.722,0.028
8.723,0.025
8.724,0.022
8.725,0.022
8.726,0.023
8.727,0.022
8.728,0.019
8.729,0.013
8.730,0.009
8.731,0.009
8.732,0.008
8.733,0.009
8.734,0.005
8.735,0.003
8.736,0.001
8.737,0.000
8.738,0.003
8.739,0.003
8.740,0.000
8.741,0.000
8.742,0.000
8.743,-0.003
8.744,-0.006
8.745,-0.003
8.746,-0.008
8.747,-0.006
8.748,-0.005
8.749,-0.009
8.750,-0.009
8.751,-0.009
8.752,-0.009
8.753,-0.009
8.754,-0.009
8.755,-0.013
8.756,-0.013
8.757,-0.013
8.758,-0.014
8.759,-0.013
8.760,-0.014
8.761,-0.019
8.762,-0.018
8.763,-0.022
8.764,-0.016
8.765,-0.013
8.766,-0.014
8.767,-0.013
8.768,-0.014
8.769,-0.009
8.770,-0.011
8.771,-0.009
8.772,-0.011
8.773,-0.013
8.774,-0.009
8.775,-0.009
8.776,-0.017
8.777,-0.016
8.778,-0.014
8.779,-0.016
8.780,-0.011
8.781,-0.013
8.782,-0.013
8.783,-0.013
8.784,-0.011
8.785,-0.013
8.786,-0.013
8.787,-0.013
8.788,-0.016
8.789,-0.016
8.790,-0.014
8.791,-0.016
8.792,-0.017
8.793,-0.019
8.794,-0.016
8.795,-0.016
8.796,-0.013
8.797,-0.013
8.798,-0.013
8.799,-0.016
8.800,-0.014
8.801,-0.016
8.802,-0.016
8.803,-0.016
8.804,-0.014
8.805,-0.013
8.806,-0.013
8.807,-0.013
8.808,-0.013
8.809,-0.013
8.810,-0.013
8.811,-0.013
8.812,-0.013
8.813,-0.013
8.814,-0.013
8.815,-0.013
8.816,-0.013
8.817,-0.013
8.818,-0.014
8.819,-0.013
8.820,-0.009
8.821,-0.006
8.822,-0.006
8.823,-0.003
8.824,-0.003
8.825,-0.006
8.826,-0.011
8.827,-0.013
8.828,-0.014
8.829,-0.016
8.830,-0.016
8.831,-0.016
8.832,-0.011
8.833,-0.009
8.834,-0.002
8.835,-0.003
8.836,-0.009
8.837,-0.009
8.838,-0.008
8.839,-0.006
8.840,-0.008
8.841,-0.009
8.842,-0.011
8.843,-0.013
8.844,-0.014
8.845,-0.013
8.846,-0.014
8.847,-0.013
8.848,-0.014
8.849,-0.013
8.850,-0.014
8.851,-0.013
8.852,-0.013
8.853,-0.013
8.854,-0.009
8.855,-0.009
8.856,-0.009
8.857,-0.009
8.858,-0.014
8.859,-0.013
8.860,-0.013
8.861,-0.016
8.862,-0.014
8.863,-0.013
8.864,-0.011
8.865,-0.009
8.866,-0.009
8.867,-0.009
8.868,-0.009
8.869,-0.009
8.870,-0.008
8.871,-0.006
8.872,-0.009
8.873,-0.009
8.874,-0.011
8.875,-0.013
8.876,-0.013
8.877,-0.013
8.878,-0.013
8.879,-0.016
8.880,-0.016
8.881,-0.016
8.882,-0.016
8.883,-0.013
8.884,-0.014
8.885,-0.016
8.886,-0.016
8.887,-0.016
8.888,-0.014
8.889,-0.013
8.890,-0.019
8.891,-0.019
8.892,-0.025
8.893,-0.028
8.894,-0.028
8.895,-0.028
8.896,-0.028
8.897,-0.028
8.898,-0.030
8.899,-0.031
8.900,-0.031
8.901,-0.031
8.902,-0.030
8.903,-0.028
8.904,-0.028
8.905,-0.028
8.906,-0.029
8.907,-0.034
8.908,-0.031
8.909,-0.031
8.910,-0.034
8.911,-0.034
8.912,-0.028
8.913,-0.031
8.914,-0.030
8.915,-0.031
8.916,-0.033
8.917,-0.034
8.918,-0.033
8.919,-0.034
8.920,-0.036
8.921,-0.034
8.922,-0.036
8.923,-0.038
8.924,-0.042
8.925,-0.044
8.926,-0.041
8.927,-0.044
8.928,-0.043
8.929,-0.044
8.930,-0.044
8.931,-0.050
8.932,-0.047
8.933,-0.050
8.934,-0.046
8.935,-0.041
8.936,-0.038
8.937,-0.041
8.938,-0.041
8.939,-0.050
8.940,-0.048
8.941,-0.053
8.942,-0.053
8.943,-0.053
8.944,-0.053
8.945,-0.053
8.946,-0.052
8.947,-0.053
8.948,-0.053
8.949,-0.053
8.950,-0.050
8.951,-0.050
8.952,-0.050
8.953,-0.050
8.954,-0.053
8.955,-0.053
8.956,-0.052
8.957,-0.050
8.958,-0.051
8.959,-0.053
8.960,-0.052
8.961,-0.053
8.962,-0.054
8.963,-0.056
8.964,-0.056
8.965,-0.056
8.966,-0.056
8.967,-0.056
8.968,-0.055
8.969,-0.050
8.970,-0.053
8.971,-0.056
8.972,-0.058
8.973,-0.059
8.974,-0.056
8.975,-0.056
8.976,-0.059
8.977,-0.059
8.978,-0.058
8.979,-0.056
8.980,-0.055
8.981,-0.053
8.982,-0.056
8.983,-0.056
8.984,-0.056
8.985,-0.056
8.986,-0.056
8.987,-0.056
8.988,-0.059
8.989,-0.059
8.990,-0.059
8.991,-0.059
8.992,-0.056
8.993,-0.059
8.994,-0.059
8.995,-0.063
8.996,-0.063
8.997,-0.063
8.998,-0.063
8.999,-0.059
9.000,-0.055
9.001,-0.056
9.002,-0.061
9.003,-0.059
9.004,-0.059
9.005,-0.059
9.006,-0.059
9.007,-0.059
9.008,-0.058
9.009,-0.056
9.010,-0.061
9.011,-0.063
9.012,-0.063
9.013,-0.063
9.014,-0.063
9.015,-0.063
9.016,-0.061
9.017,-0.059
9.018,-0.059
9.019,-0.059
9.020,-0.063
9.021,-0.066
9.022,-0.067
9.023,-0.069
9.024,-0.066
9.025,-0.063
9.026,-0.061
9.027,-0.059
9.028,-0.059
9.029,-0.059
9.030,-0.061
9.031,-0.063
9.032,-0.064
9.033,-0.066
9.034,-0.067
9.035,-0.069
9.036,-0.069
9.037,-0.069
9.038,-0.069
9.039,-0.069
9.040,-0.069
9.041,-0.069
9.042,-0.070
9.043,-0.072
9.044,-0.069
9.045,-0.066
9.046,-0.066
9.047,-0.066
9.048,-0.061
9.049,-0.056
9.050,-0.058
9.051,-0.059
9.052,-0.061
9.053,-0.063
9.054,-0.061
9.055,-0.059
9.056,-0.059
9.057,-0.059
9.058,-0.059
9.059,-0.059
9.060,-0.061
9.061,-0.063
9.062,-0.063
9.063,-0.063
9.064,-0.063
9.065,-0.063
9.066,-0.063
9.067,-0.063
9.068,-0.063
9.069,-0.063
9.070,-0.066
9.071,-0.069
9.072,-0.069
9.073,-0.069
9.074,-0.069
9.075,-0.069
9.076,-0.068
9.077,-0.066
9.078,-0.066
9.079,-0.066
9.080,-0.067
9.081,-0.069
9.082,-0.070
9.083,-0.072
9.084,-0.072
9.085,-0.072
9.086,-0.072
9.087,-0.072
9.088,-0.072
9.089,-0.072
9.090,-0.072
9.091,-0.072
9.092,-0.072
9.093,-0.072
9.094,-0.072
9.095,-0.072
9.096,-0.069
9.097,-0.066
9.098,-0.066
9.099,-0.066
9.100,-0.066
9.101,-0.066
9.102,-0.066
9.103,-0.066
9.104,-0.067
9.105,-0.069
9.106,-0.069
9.107,-0.069
9.108,-0.069
9.109,-0.069
9.110,-0.070
9.111,-0.072
9.112,-0.072
9.113,-0.072
9.114,-0.071
9.115,-0.069
9.116,-0.070
9.117,-0.072
9.118,-0.072
9.119,-0.072
9.120,-0.072
9.121,-0.072
9.122,-0.072
9.123,-0.072
9.124,-0.069
9.125,-0.066
9.126,-0.067
9.127,-0.069
9.128,-0.069
9.129,-0.069
9.130,-0.069
9.131,-0.069
9.132,-0.068
9.133,-0.066
9.134,-0.067
9.135,-0.069
9.136,-0.069
9.137,-0.069
9.138,-0.069
9.139,-0.069
9.140,-0.068
9.141,-0.066
9.142,-0.066
9.143,-0.066
9.144,-0.067
9.145,-0.069
9.146,-0.069
9.147,-0.069
9.148,-0.068
9.149,-0.066
9.150,-0.064
9.151,-0.063
9.152,-0.063
9.153,-0.063
9.154,-0.063
9.155,-0.063
9.156,-0.064
9.157,-0.066
9.158,-0.066
9.159,-0.066
9.160,-0.069
9.161,-0.072
9.162,-0.072
9.163,-0.072
9.164,-0.072
9.165,-0.072
9.166,-0.072
9.167,-0.072
9.168,-0.072
9.169,-0.072
9.170,-0.071
9.171,-0.069
9.172,-0.068
9.173,-0.066
9.174,-0.066
9.175,-0.066
9.176,-0.067
9.177,-0.069
9.178,-0.070
9.179,-0.072
9.180,-0.071
9.181,-0.069
9.182,-0.069
9.183,-0.069
9.184,-0.070
9.185,-0.072
9.186,-0.072
9.187,-0.072
9.188,-0.072
9.189,-0.072
9.190,-0.072
9.191,-0.072
9.192,-0.072
9.193,-0.075
9.194,-0.075
9.195,-0.072
9.196,-0.072
9.197,-0.069
9.198,-0.068
9.199,-0.066
9.200,-0.068
9.201,-0.066
9.202,-0.066
9.203,-0.066
9.204,-0.066
9.205,-0.066
9.206,-0.067
9.207,-0.069
9.208,-0.067
9.209,-0.072
9.210,-0.072
9.211,-0.075
9.212,-0.075
9.213,-0.075
9.214,-0.076
9.215,-0.075
9.216,-0.072
9.217,-0.069
9.218,-0.066
9.219,-0.066
9.220,-0.064
9.221,-0.066
9.222,-0.067
9.223,-0.066
9.224,-0.066
9.225,-0.066
9.226,-0.066
9.227,-0.066
9.228,-0.066
9.229,-0.069
9.230,-0.069
9.231,-0.069
9.232,-0.066
9.233,-0.069
9.234,-0.073
9.235,-0.072
9.236,-0.069
9.237,-0.072
9.238,-0.069
9.239,-0.066
9.240,-0.067
9.241,-0.069
9.242,-0.069
9.243,-0.069
9.244,-0.070
9.245,-0.072
9.246,-0.071
9.247,-0.069
9.248,-0.066
9.249,-0.069
9.250,-0.068
9.251,-0.066
9.252,-0.066
9.253,-0.066
9.254,-0.066
9.255,-0.066
9.256,-0.066
9.257,-0.066
9.258,-0.069
9.259,-0.069
9.260,-0.068
9.261,-0.066
9.262,-0.068
9.263,-0.066
9.264,-0.064
9.265,-0.066
9.266,-0.064
9.267,-0.063
9.268,-0.066
9.269,-0.066
9.270,-0.064
9.271,-0.069
9.272,-0.068
9.273,-0.069
9.274,-0.069
9.275,-0.066
9.276,-0.066
9.277,-0.066
9.278,-0.067
9.279,-0.069
9.280,-0.069
9.281,-0.072
9.282,-0.072
9.283,-0.075
9.284,-0.073
9.285,-0.075
9.286,-0.075
9.287,-0.072
9.288,-0.072
9.289,-0.069
9.290,-0.069
9.291,-0.066
9.292,-0.069
9.293,-0.069
9.294,-0.067
9.295,-0.069
9.296,-0.069
9.297,-0.069
9.298,-0.069
9.299,-0.069
9.300,-0.069
9.301,-0.069
9.302,-0.070
9.303,-0.072
9.304,-0.076
9.305,-0.075
9.306,-0.075
9.307,-0.075
9.308,-0.074
9.309,-0.072
9.310,-0.072
9.311,-0.072
9.312,-0.069
9.313,-0.069
9.314,-0.072
9.315,-0.069
9.316,-0.069
9.317,-0.069
9.318,-0.069
9.319,-0.069
9.320,-0.067
9.321,-0.069
9.322,-0.070
9.323,-0.072
9.324,-0.071
9.325,-0.069
9.326,-0.070
9.327,-0.072
9.328,-0.069
9.329,-0.072
9.330,-0.071
9.331,-0.072
9.332,-0.070
9.333,-0.072
9.334,-0.074
9.335,-0.069
9.336,-0.068
9.337,-0.066
9.338,-0.066
9.339,-0.066
9.340,-0.053
9.341,-0.041
9.342,-0.018
9.343,-0.003
9.344,-0.002
9.345,0.000
9.346,-0.003
9.347,-0.003
9.348,-0.019
9.349,-0.031
9.350,-0.050
9.351,-0.063
9.352,-0.064
9.353,-0.066
9.354,-0.066
9.355,-0.069
9.356,-0.069
9.357,-0.069
9.358,-0.069
9.359,-0.069
9.360,-0.069
9.361,-0.069
9.362,-0.071
9.363,-0.066
9.364,-0.066
9.365,-0.066
9.366,-0.066
9.367,-0.066
9.368,-0.066
9.369,-0.066
9.370,-0.066
9.371,-0.069
9.372,-0.069
9.373,-0.066
9.374,-0.067
9.375,-0.069
9.376,-0.070
9.377,-0.072
9.378,-0.069
9.379,-0.072
9.380,-0.073
9.381,-0.072
9.382,-0.072
9.383,-0.072
9.384,-0.069
9.385,-0.066
9.386,-0.061
9.387,-0.059
9.388,-0.059
9.389,-0.063
9.390,-0.059
9.391,-0.063
9.392,-0.061
9.393,-0.066
9.394,-0.067
9.395,-0.069
9.396,-0.066
9.397,-0.066
9.398,-0.068
9.399,-0.069
9.400,-0.070
9.401,-0.072
9.402,-0.069
9.403,-0.069
9.404,-0.069
9.405,-0.069
9.406,-0.071
9.407,-0.069
9.408,-0.069
9.409,-0.069
9.410,-0.069
9.411,-0.069
9.412,-0.070
9.413,-0.069
9.414,-0.069
9.415,-0.069
9.416,-0.072
9.417,-0.069
9.418,-0.069
9.419,-0.072
9.420,-0.071
9.421,-0.069
9.422,-0.069
9.423,-0.072
9.424,-0.073
9.425,-0.072
9.426,-0.069
9.427,-0.063
9.428,-0.061
9.429,-0.059
9.430,-0.061
9.431,-0.063
9.432,-0.067
9.433,-0.069
9.434,-0.069
9.435,-0.069
9.436,-0.070
9.437,-0.069
9.438,-0.068
9.439,-0.069
9.440,-0.069
9.441,-0.069
9.442,-0.068
9.443,-0.066
9.444,-0.066
9.445,-0.066
9.446,-0.066
9.447,-0.066
9.448,-0.066
9.449,-0.066
9.450,-0.064
9.451,-0.066
9.452,-0.067
9.453,-0.069
9.454,-0.067
9.455,-0.069
9.456,-0.068
9.457,-0.069
9.458,-0.069
9.459,-0.066
9.460,-0.066
9.461,-0.066
9.462,-0.066
9.463,-0.066
9.464,-0.063
9.465,-0.066
9.466,-0.066
