'Elapsed time','II'
0,-0.014
0.001,0.094
0.002,0.093
0.003,0.094
0.004,0.094
0.005,0.094
0.006,0.095
0.007,0.097
0.008,0.094
0.009,0.094
0.01,0.094
0.011,0.094
0.012,0.098
0.013,0.1
0.014,0.097
0.015,0.1
0.016,0.1
0.017,0.097
0.018,0.098
0.019,0.097
0.02,0.098
0.021,0.097
0.022,0.097
0.023,0.097
0.024,0.098
0.025,0.1
0.026,0.096
0.027,0.091
0.028,0.091
0.029,0.088
0.03,0.08
0.031,0.075
0.032,0.078
0.033,0.078
0.034,0.076
0.035,0.075
0.036,0.073
0.037,0.075
0.038,0.071
0.039,0.069
0.04,0.067
0.041,0.066
0.042,0.061
0.043,0.053
0.044,0.05
0.045,0.047
0.046,0.048
0.047,0.047
0.048,0.039
0.049,0.034
0.05,0.031
0.051,0.031
0.052,0.032
0.053,0.031
0.054,0.028
0.055,0.025
0.056,0.025
0.057,0.022
0.058,0.019
0.059,0.016
0.06,0.014
0.061,0.012
0.062,0.011
0.063,0.009
0.064,0.011
0.065,0.009
0.066,0.011
0.067,0.009
0.068,0.003
0.069,0
0.07,-0.004
0.071,-0.003
0.072,-0.002
0.073,-0.003
0.074,-0.003
0.075,-0.006
0.076,-0.008
0.077,-0.012
0.078,-0.011
0.079,-0.012
0.08,-0.017
0.081,-0.019
0.082,-0.023
0.083,-0.025
0.084,-0.025
0.085,-0.028
0.086,-0.021
0.087,-0.016
0.088,-0.014
0.089,-0.012
0.09,-0.012
0.091,-0.012
0.092,-0.019
0.093,-0.025
0.094,-0.028
0.095,-0.031
0.096,-0.03
0.097,-0.031
0.098,-0.036
0.099,-0.041
0.1,-0.041
0.101,-0.041
0.102,-0.036
0.103,-0.037
0.104,-0.037
0.105,-0.041
0.106,-0.042
0.107,-0.044
0.108,-0.047
0.109,-0.047
0.11,-0.047
0.111,-0.044
0.112,-0.043
0.113,-0.041
0.114,-0.039
0.115,-0.037
0.116,-0.042
0.117,-0.044
0.118,-0.044
0.119,-0.044
0.12,-0.047
0.121,-0.05
0.122,-0.054
0.123,-0.053
0.124,-0.049
0.125,-0.044
0.126,-0.041
0.127,-0.041
0.128,-0.039
0.129,-0.041
0.13,-0.045
0.131,-0.047
0.132,-0.05
0.133,-0.05
0.134,-0.05
0.135,-0.05
0.136,-0.049
0.137,-0.05
0.138,-0.05
0.139,-0.053
0.14,-0.053
0.141,-0.053
0.142,-0.056
0.143,-0.059
0.144,-0.059
0.145,-0.059
0.146,-0.059
0.147,-0.056
0.148,-0.055
0.149,-0.056
0.15,-0.056
0.151,-0.056
0.152,-0.056
0.153,-0.056
0.154,-0.055
0.155,-0.056
0.156,-0.053
0.157,-0.053
0.158,-0.059
0.159,-0.066
0.16,-0.063
0.161,-0.063
0.162,-0.066
0.163,-0.066
0.164,-0.063
0.165,-0.056
0.166,-0.061
0.167,-0.066
0.168,-0.059
0.169,-0.056
0.17,-0.049
0.171,-0.044
0.172,-0.039
0.173,-0.034
0.174,-0.032
0.175,-0.028
0.176,-0.023
0.177,-0.019
0.178,-0.011
0.179,0
0.18,0.008
0.181,0.016
0.182,0.017
0.183,0.019
0.184,0.021
0.185,0.025
0.186,0.028
0.187,0.034
0.188,0.037
0.189,0.037
0.19,0.039
0.191,0.034
0.192,0.033
0.193,0.034
0.194,0.045
0.195,0.053
0.196,0.054
0.197,0.062
0.198,0.062
0.199,0.069
0.2,0.072
0.201,0.075
0.202,0.084
0.203,0.091
0.204,0.099
0.205,0.106
0.206,0.116
0.207,0.125
0.208,0.133
0.209,0.137
0.21,0.146
0.211,0.147
0.212,0.148
0.213,0.15
0.214,0.151
0.215,0.156
0.216,0.159
0.217,0.159
0.218,0.161
0.219,0.159
0.22,0.159
0.221,0.156
0.222,0.15
0.223,0.141
0.224,0.142
0.225,0.134
0.226,0.129
0.227,0.122
0.228,0.117
0.229,0.116
0.23,0.111
0.231,0.109
0.232,0.105
0.233,0.1
0.234,0.088
0.235,0.078
0.236,0.068
0.237,0.056
0.238,0.048
0.239,0.044
0.24,0.034
0.241,0.028
0.242,0.023
0.243,0.016
0.244,0.002
0.245,-0.006
0.246,-0.016
0.247,-0.022
0.248,-0.031
0.249,-0.037
0.25,-0.044
0.251,-0.047
0.252,-0.047
0.253,-0.05
0.254,-0.061
0.255,-0.072
0.256,-0.079
0.257,-0.084
0.258,-0.089
0.259,-0.094
0.26,-0.098
0.261,-0.106
0.262,-0.116
0.263,-0.122
0.264,-0.126
0.265,-0.131
0.266,-0.133
0.267,-0.131
0.268,-0.131
0.269,-0.131
0.27,-0.133
0.271,-0.131
0.272,-0.133
0.273,-0.128
0.274,-0.127
0.275,-0.128
0.276,-0.127
0.277,-0.125
0.278,-0.127
0.279,-0.125
0.28,-0.126
0.281,-0.128
0.282,-0.13
0.283,-0.128
0.284,-0.131
0.285,-0.134
0.286,-0.134
0.287,-0.137
0.288,-0.139
0.289,-0.141
0.29,-0.139
0.291,-0.137
0.292,-0.134
0.293,-0.131
0.294,-0.131
0.295,-0.131
0.296,-0.134
0.297,-0.141
0.298,-0.139
0.299,-0.141
0.3,-0.141
0.301,-0.141
0.302,-0.139
0.303,-0.141
0.304,-0.137
0.305,-0.131
0.306,-0.131
0.307,-0.131
0.308,-0.131
0.309,-0.134
0.31,-0.131
0.311,-0.125
0.312,-0.125
0.313,-0.128
0.314,-0.128
0.315,-0.131
0.316,-0.13
0.317,-0.131
0.318,-0.129
0.319,-0.134
0.32,-0.144
0.321,-0.153
0.322,-0.158
0.323,-0.162
0.324,-0.17
0.325,-0.175
0.326,-0.172
0.327,-0.166
0.328,-0.149
0.329,-0.131
0.33,-0.12
0.331,-0.113
0.332,-0.088
0.333,-0.059
0.334,-0.016
0.335,0.031
0.336,0.073
0.337,0.119
0.338,0.169
0.339,0.225
0.34,0.294
0.341,0.366
0.342,0.456
0.343,0.55
0.344,0.648
0.345,0.75
0.346,0.844
0.347,0.937
0.348,1.034
0.349,1.131
0.35,1.23
0.351,1.322
0.352,1.389
0.353,1.456
0.354,1.509
0.355,1.559
0.356,1.55
0.357,1.522
0.358,1.446
0.359,1.359
0.36,1.252
0.361,1.144
0.362,1.011
0.363,0.869
0.364,0.706
0.365,0.544
0.366,0.397
0.367,0.259
0.368,0.144
0.369,0.031
0.37,-0.047
0.371,-0.113
0.372,-0.147
0.373,-0.169
0.374,-0.161
0.375,-0.159
0.376,-0.149
0.377,-0.141
0.378,-0.139
0.379,-0.134
0.38,-0.13
0.381,-0.128
0.382,-0.125
0.383,-0.122
0.384,-0.111
0.385,-0.1
0.386,-0.099
0.387,-0.097
0.388,-0.091
0.389,-0.088
0.39,-0.091
0.391,-0.091
0.392,-0.088
0.393,-0.088
0.394,-0.088
0.395,-0.088
0.396,-0.097
0.397,-0.103
0.398,-0.1
0.399,-0.094
0.4,-0.098
0.401,-0.097
0.402,-0.098
0.403,-0.1
0.404,-0.1
0.405,-0.1
0.406,-0.101
0.407,-0.103
0.408,-0.099
0.409,-0.097
0.41,-0.097
0.411,-0.1
0.412,-0.096
0.413,-0.094
0.414,-0.094
0.415,-0.094
0.416,-0.095
0.417,-0.097
0.418,-0.094
0.419,-0.094
0.42,-0.095
0.421,-0.094
0.422,-0.094
0.423,-0.094
0.424,-0.094
0.425,-0.094
0.426,-0.094
0.427,-0.094
0.428,-0.097
0.429,-0.097
0.43,-0.093
0.431,-0.094
0.432,-0.091
0.433,-0.091
0.434,-0.088
0.435,-0.088
0.436,-0.086
0.437,-0.081
0.438,-0.078
0.439,-0.078
0.44,-0.083
0.441,-0.081
0.442,-0.083
0.443,-0.084
0.444,-0.086
0.445,-0.088
0.446,-0.089
0.447,-0.091
0.448,-0.084
0.449,-0.081
0.45,-0.079
0.451,-0.078
0.452,-0.081
0.453,-0.078
0.454,-0.078
0.455,-0.078
0.456,-0.081
0.457,-0.081
0.458,-0.083
0.459,-0.084
0.46,-0.08
0.461,-0.075
0.462,-0.072
0.463,-0.072
0.464,-0.073
0.465,-0.072
0.466,-0.072
0.467,-0.072
0.468,-0.07
0.469,-0.072
0.47,-0.075
0.471,-0.072
0.472,-0.071
0.473,-0.066
0.474,-0.069
0.475,-0.069
0.476,-0.066
0.477,-0.066
0.478,-0.066
0.479,-0.066
0.48,-0.067
0.481,-0.066
0.482,-0.069
0.483,-0.069
0.484,-0.066
0.485,-0.066
0.486,-0.066
0.487,-0.066
0.488,-0.063
0.489,-0.066
0.49,-0.067
0.491,-0.069
0.492,-0.066
0.493,-0.066
0.494,-0.063
0.495,-0.056
0.496,-0.057
0.497,-0.063
0.498,-0.063
0.499,-0.063
0.5,-0.063
0.501,-0.063
0.502,-0.066
0.503,-0.066
0.504,-0.061
0.505,-0.063
0.506,-0.059
0.507,-0.053
0.508,-0.052
0.509,-0.05
0.51,-0.05
0.511,-0.047
0.512,-0.041
0.513,-0.037
0.514,-0.041
0.515,-0.044
0.516,-0.042
0.517,-0.044
0.518,-0.041
0.519,-0.044
0.52,-0.039
0.521,-0.037
0.522,-0.036
0.523,-0.034
0.524,-0.037
0.525,-0.037
0.526,-0.033
0.527,-0.031
0.528,-0.029
0.529,-0.028
0.53,-0.022
0.531,-0.016
0.532,-0.012
0.533,-0.012
0.534,-0.014
0.535,-0.012
0.536,-0.012
0.537,-0.012
0.538,-0.012
0.539,-0.009
0.54,-0.005
0.541,-0.003
0.542,0
0.543,0.003
0.544,0.008
0.545,0.009
0.546,0.011
0.547,0.009
0.548,0.016
0.549,0.022
0.55,0.025
0.551,0.025
0.552,0.031
0.553,0.031
0.554,0.032
0.555,0.037
0.556,0.039
0.557,0.037
0.558,0.039
0.559,0.037
0.56,0.039
0.561,0.037
0.562,0.039
0.563,0.041
0.564,0.041
0.565,0.041
0.566,0.045
0.567,0.047
0.568,0.044
0.569,0.041
0.57,0.037
0.571,0.037
0.572,0.044
0.573,0.047
0.574,0.048
0.575,0.05
0.576,0.052
0.577,0.05
0.578,0.05
0.579,0.05
0.58,0.042
0.581,0.041
0.582,0.041
0.583,0.041
0.584,0.041
0.585,0.041
0.586,0.045
0.587,0.05
0.588,0.049
0.589,0.047
0.59,0.047
0.591,0.05
0.592,0.052
0.593,0.05
0.594,0.049
0.595,0.047
0.596,0.046
0.597,0.044
0.598,0.047
0.599,0.044
0.6,0.044
0.601,0.044
0.602,0.044
0.603,0.044
0.604,0.05
0.605,0.053
0.606,0.055
0.607,0.053
0.608,0.053
0.609,0.053
0.61,0.05
0.611,0.047
0.612,0.048
0.613,0.053
0.614,0.054
0.615,0.056
0.616,0.056
0.617,0.056
0.618,0.055
0.619,0.053
0.62,0.055
0.621,0.056
0.622,0.056
0.623,0.056
0.624,0.057
0.625,0.062
0.626,0.067
0.627,0.066
0.628,0.067
0.629,0.069
0.63,0.066
0.631,0.066
0.632,0.068
0.633,0.066
0.634,0.069
0.635,0.075
0.636,0.075
0.637,0.078
0.638,0.081
0.639,0.078
0.64,0.072
0.641,0.069
0.642,0.069
0.643,0.069
0.644,0.064
0.645,0.062
0.646,0.061
0.647,0.062
0.648,0.062
0.649,0.066
0.65,0.061
0.651,0.059
0.652,0.059
0.653,0.056
0.654,0.054
0.655,0.056
0.656,0.056
0.657,0.056
0.658,0.053
0.659,0.05
0.66,0.047
0.661,0.044
0.662,0.039
0.663,0.037
0.664,0.036
0.665,0.034
0.666,0.034
0.667,0.031
0.668,0.027
0.669,0.022
0.67,0.019
0.671,0.012
0.672,0.012
0.673,0.009
0.674,0.006
0.675,0.003
0.676,0.003
0.677,0.003
0.678,-0.001
0.679,-0.006
0.68,-0.011
0.681,-0.012
0.682,-0.014
0.683,-0.012
0.684,-0.017
0.685,-0.019
0.686,-0.022
0.687,-0.022
0.688,-0.025
0.689,-0.028
0.69,-0.032
0.691,-0.041
0.692,-0.039
0.693,-0.037
0.694,-0.036
0.695,-0.037
0.696,-0.039
0.697,-0.041
0.698,-0.037
0.699,-0.037
0.7,-0.041
0.701,-0.041
0.702,-0.041
0.703,-0.041
0.704,-0.042
0.705,-0.044
0.706,-0.043
0.707,-0.041
0.708,-0.044
0.709,-0.044
0.71,-0.044
0.711,-0.047
0.712,-0.047
0.713,-0.047
0.714,-0.047
0.715,-0.05
0.716,-0.053
0.717,-0.056
0.718,-0.054
0.719,-0.059
0.72,-0.063
0.721,-0.066
0.722,-0.067
0.723,-0.069
0.724,-0.069
0.725,-0.069
0.726,-0.068
0.727,-0.066
0.728,-0.064
0.729,-0.066
0.73,-0.066
0.731,-0.072
0.732,-0.072
0.733,-0.069
0.734,-0.066
0.735,-0.066
0.736,-0.068
0.737,-0.066
0.738,-0.063
0.739,-0.063
0.74,-0.067
0.741,-0.069
0.742,-0.072
0.743,-0.078
0.744,-0.074
0.745,-0.072
0.746,-0.073
0.747,-0.075
0.748,-0.078
0.749,-0.075
0.75,-0.069
0.751,-0.066
0.752,-0.064
0.753,-0.066
0.754,-0.067
0.755,-0.069
0.756,-0.068
0.757,-0.066
0.758,-0.068
0.759,-0.066
0.76,-0.07
0.761,-0.072
0.762,-0.073
0.763,-0.075
0.764,-0.075
0.765,-0.075
0.766,-0.076
0.767,-0.081
0.768,-0.081
0.769,-0.081
0.77,-0.084
0.771,-0.084
0.772,-0.083
0.773,-0.081
0.774,-0.081
0.775,-0.081
0.776,-0.086
0.777,-0.084
0.778,-0.083
0.779,-0.084
0.78,-0.086
0.781,-0.081
0.782,-0.084
0.783,-0.091
0.784,-0.091
0.785,-0.091
0.786,-0.088
0.787,-0.088
0.788,-0.089
0.789,-0.088
0.79,-0.089
0.791,-0.088
0.792,-0.089
0.793,-0.084
0.794,-0.074
0.795,-0.066
0.796,-0.059
0.797,-0.053
0.798,-0.046
0.799,-0.037
0.8,-0.029
0.801,-0.022
0.802,-0.016
0.803,-0.016
0.804,-0.012
0.805,-0.009
0.806,-0.006
0.807,-0.006
0.808,0.001
0.809,0.006
0.81,0.008
0.811,0.009
0.812,0.003
0.813,0.003
0.814,0.005
0.815,0.009
0.816,0.016
0.817,0.019
0.818,0.026
0.819,0.028
0.82,0.033
0.821,0.037
0.822,0.044
0.823,0.053
0.824,0.056
0.825,0.062
0.826,0.075
0.827,0.084
0.828,0.089
0.829,0.097
0.83,0.104
0.831,0.116
0.832,0.12
0.833,0.122
0.834,0.125
0.835,0.128
0.836,0.133
0.837,0.134
0.838,0.13
0.839,0.131
0.84,0.13
0.841,0.128
0.842,0.126
0.843,0.125
0.844,0.117
0.845,0.116
0.846,0.105
0.847,0.097
0.848,0.089
0.849,0.088
0.85,0.086
0.851,0.078
0.852,0.076
0.853,0.075
0.854,0.073
0.855,0.066
0.856,0.058
0.857,0.047
0.858,0.041
0.859,0.031
0.86,0.019
0.861,0.006
0.862,-0.001
0.863,-0.009
0.864,-0.017
0.865,-0.025
0.866,-0.027
0.867,-0.037
0.868,-0.048
0.869,-0.059
0.87,-0.066
0.871,-0.075
0.872,-0.081
0.873,-0.084
0.874,-0.089
0.875,-0.094
0.876,-0.101
0.877,-0.109
0.878,-0.111
0.879,-0.116
0.88,-0.121
0.881,-0.122
0.882,-0.129
0.883,-0.137
0.884,-0.144
0.885,-0.15
0.886,-0.156
0.887,-0.162
0.888,-0.159
0.889,-0.159
0.89,-0.162
0.891,-0.162
0.892,-0.156
0.893,-0.156
0.894,-0.154
0.895,-0.156
0.896,-0.161
0.897,-0.162
0.898,-0.159
0.899,-0.159
0.9,-0.159
0.901,-0.159
0.902,-0.159
0.903,-0.162
0.904,-0.161
0.905,-0.162
0.906,-0.167
0.907,-0.166
0.908,-0.166
0.909,-0.166
0.91,-0.167
0.911,-0.169
0.912,-0.168
0.913,-0.166
0.914,-0.167
0.915,-0.169
0.916,-0.169
0.917,-0.169
0.918,-0.171
0.919,-0.166
0.92,-0.167
0.921,-0.169
0.922,-0.173
0.923,-0.175
0.924,-0.174
0.925,-0.172
0.926,-0.169
0.927,-0.169
0.928,-0.168
0.929,-0.166
0.93,-0.169
0.931,-0.169
0.932,-0.166
0.933,-0.166
0.934,-0.168
0.935,-0.162
0.936,-0.162
0.937,-0.162
0.938,-0.166
0.939,-0.162
0.94,-0.167
0.941,-0.175
0.942,-0.181
0.943,-0.188
0.944,-0.193
0.945,-0.197
0.946,-0.204
0.947,-0.206
0.948,-0.2
0.949,-0.188
0.95,-0.174
0.951,-0.156
0.952,-0.142
0.953,-0.122
0.954,-0.099
0.955,-0.059
0.956,-0.017
0.957,0.025
0.958,0.07
0.959,0.125
0.96,0.194
0.961,0.269
0.962,0.341
0.963,0.434
0.964,0.531
0.965,0.631
0.966,0.725
0.967,0.822
0.968,0.914
0.969,1.003
0.97,1.097
0.971,1.191
0.972,1.278
0.973,1.341
0.974,1.409
0.975,1.459
0.976,1.52
0.977,1.538
0.978,1.519
0.979,1.45
0.98,1.371
0.981,1.259
0.982,1.147
0.983,1.019
0.984,0.877
0.985,0.716
0.986,0.561
0.987,0.403
0.988,0.255
0.989,0.128
0.99,0.011
0.991,-0.072
0.992,-0.137
0.993,-0.169
0.994,-0.189
0.995,-0.184
0.996,-0.189
0.997,-0.178
0.998,-0.166
0.999,-0.162
1,-0.159
1.001,-0.153
1.002,-0.149
1.003,-0.141
1.004,-0.136
1.005,-0.128
1.006,-0.123
1.007,-0.125
1.008,-0.128
1.009,-0.125
1.01,-0.123
1.011,-0.125
1.012,-0.123
1.013,-0.122
1.014,-0.121
1.015,-0.122
1.016,-0.122
1.017,-0.125
1.018,-0.125
1.019,-0.125
1.02,-0.121
1.021,-0.119
1.022,-0.117
1.023,-0.119
1.024,-0.12
1.025,-0.122
1.026,-0.121
1.027,-0.119
1.028,-0.119
1.029,-0.119
1.03,-0.123
1.031,-0.125
1.032,-0.129
1.033,-0.128
1.034,-0.124
1.035,-0.119
1.036,-0.119
1.037,-0.119
1.038,-0.122
1.039,-0.122
1.04,-0.122
1.041,-0.122
1.042,-0.12
1.043,-0.122
1.044,-0.122
1.045,-0.122
1.046,-0.122
1.047,-0.122
1.048,-0.121
1.049,-0.122
1.05,-0.121
1.051,-0.116
1.052,-0.12
1.053,-0.119
1.054,-0.12
1.055,-0.119
1.056,-0.12
1.057,-0.122
1.058,-0.117
1.059,-0.113
1.06,-0.113
1.061,-0.116
1.062,-0.114
1.063,-0.116
1.064,-0.113
1.065,-0.109
1.066,-0.109
1.067,-0.109
1.068,-0.111
1.069,-0.109
1.07,-0.113
1.071,-0.113
1.072,-0.109
1.073,-0.113
1.074,-0.103
1.075,-0.097
1.076,-0.098
1.077,-0.1
1.078,-0.098
1.079,-0.1
1.08,-0.103
1.081,-0.106
1.082,-0.108
1.083,-0.106
1.084,-0.103
1.085,-0.1
1.086,-0.096
1.087,-0.094
1.088,-0.093
1.089,-0.088
1.09,-0.086
1.091,-0.088
1.092,-0.083
1.093,-0.081
1.094,-0.078
1.095,-0.081
1.096,-0.086
1.097,-0.088
1.098,-0.089
1.099,-0.091
1.1,-0.088
1.101,-0.084
1.102,-0.078
1.103,-0.078
1.104,-0.083
1.105,-0.084
1.106,-0.086
1.107,-0.088
1.108,-0.086
1.109,-0.081
1.11,-0.083
1.111,-0.081
1.112,-0.083
1.113,-0.081
1.114,-0.08
1.115,-0.081
1.116,-0.084
1.117,-0.084
1.118,-0.086
1.119,-0.088
1.12,-0.088
1.121,-0.088
1.122,-0.084
1.123,-0.081
1.124,-0.077
1.125,-0.072
1.126,-0.074
1.127,-0.072
1.128,-0.07
1.129,-0.072
1.13,-0.071
1.131,-0.069
1.132,-0.064
1.133,-0.059
1.134,-0.059
1.135,-0.059
1.136,-0.063
1.137,-0.063
1.138,-0.063
1.139,-0.059
1.14,-0.064
1.141,-0.063
1.142,-0.063
1.143,-0.059
1.144,-0.052
1.145,-0.047
1.146,-0.044
1.147,-0.041
1.148,-0.044
1.149,-0.044
1.15,-0.042
1.151,-0.041
1.152,-0.039
1.153,-0.037
1.154,-0.036
1.155,-0.034
1.156,-0.032
1.157,-0.031
1.158,-0.028
1.159,-0.028
1.16,-0.022
1.161,-0.016
1.162,-0.017
1.163,-0.016
1.164,-0.011
1.165,-0.006
1.166,-0.006
1.167,-0.003
1.168,-0.004
1.169,-0.003
1.17,-0.003
1.171,-0.003
1.172,-0.006
1.173,-0.003
1.174,0.001
1.175,0.006
1.176,0.008
1.177,0.009
1.178,0.008
1.179,0.009
1.18,0.011
1.181,0.016
1.182,0.016
1.183,0.019
1.184,0.021
1.185,0.019
1.186,0.017
1.187,0.019
1.188,0.023
1.189,0.028
1.19,0.027
1.191,0.025
1.192,0.027
1.193,0.028
1.194,0.028
1.195,0.028
1.196,0.028
1.197,0.031
1.198,0.036
1.199,0.041
1.2,0.041
1.201,0.037
1.202,0.037
1.203,0.034
1.204,0.034
1.205,0.034
1.206,0.036
1.207,0.037
1.208,0.037
1.209,0.037
1.21,0.036
1.211,0.031
1.212,0.03
1.213,0.031
1.214,0.031
1.215,0.031
1.216,0.031
1.217,0.031
1.218,0.031
1.219,0.034
1.22,0.031
1.221,0.031
1.222,0.031
1.223,0.031
1.224,0.03
1.225,0.031
1.226,0.034
1.227,0.041
1.228,0.039
1.229,0.037
1.23,0.036
1.231,0.034
1.232,0.037
1.233,0.041
1.234,0.044
1.235,0.044
1.236,0.048
1.237,0.053
1.238,0.052
1.239,0.05
1.24,0.044
1.241,0.041
1.242,0.044
1.243,0.044
1.244,0.047
1.245,0.05
1.246,0.054
1.247,0.059
1.248,0.055
1.249,0.053
1.25,0.054
1.251,0.053
1.252,0.054
1.253,0.059
1.254,0.058
1.255,0.056
1.256,0.058
1.257,0.053
1.258,0.052
1.259,0.053
1.26,0.053
1.261,0.053
1.262,0.054
1.263,0.056
1.264,0.053
1.265,0.047
1.266,0.048
1.267,0.047
1.268,0.046
1.269,0.041
1.27,0.039
1.271,0.034
1.272,0.033
1.273,0.031
1.274,0.028
1.275,0.025
1.276,0.026
1.277,0.025
1.278,0.021
1.279,0.016
1.28,0.016
1.281,0.016
1.282,0.012
1.283,0.009
1.284,0.011
1.285,0.009
1.286,0.006
1.287,0.006
1.288,0.003
1.289,0
1.29,-0.002
1.291,-0.003
1.292,-0.009
1.293,-0.006
1.294,-0.008
1.295,-0.012
1.296,-0.019
1.297,-0.025
1.298,-0.027
1.299,-0.028
1.3,-0.03
1.301,-0.031
1.302,-0.03
1.303,-0.031
1.304,-0.031
1.305,-0.034
1.306,-0.034
1.307,-0.037
1.308,-0.039
1.309,-0.044
1.31,-0.046
1.311,-0.044
1.312,-0.05
1.313,-0.053
1.314,-0.052
1.315,-0.05
1.316,-0.053
1.317,-0.053
1.318,-0.054
1.319,-0.056
1.32,-0.061
1.321,-0.066
1.322,-0.066
1.323,-0.066
1.324,-0.066
1.325,-0.066
1.326,-0.066
1.327,-0.066
1.328,-0.064
1.329,-0.066
1.33,-0.066
1.331,-0.066
1.332,-0.068
1.333,-0.066
1.334,-0.066
1.335,-0.066
1.336,-0.069
1.337,-0.069
1.338,-0.069
1.339,-0.066
1.34,-0.069
1.341,-0.069
1.342,-0.07
1.343,-0.072
1.344,-0.076
1.345,-0.081
1.346,-0.081
1.347,-0.081
1.348,-0.078
1.349,-0.075
1.35,-0.078
1.351,-0.075
1.352,-0.078
1.353,-0.078
1.354,-0.075
1.355,-0.075
1.356,-0.079
1.357,-0.084
1.358,-0.084
1.359,-0.084
1.36,-0.084
1.361,-0.088
1.362,-0.086
1.363,-0.088
1.364,-0.088
1.365,-0.088
1.366,-0.092
1.367,-0.091
1.368,-0.089
1.369,-0.091
1.37,-0.088
1.371,-0.088
1.372,-0.089
1.373,-0.091
1.374,-0.091
1.375,-0.091
1.376,-0.094
1.377,-0.094
1.378,-0.097
1.379,-0.097
1.38,-0.098
1.381,-0.1
1.382,-0.096
1.383,-0.091
1.384,-0.089
1.385,-0.091
1.386,-0.097
1.387,-0.103
1.388,-0.108
1.389,-0.109
1.39,-0.109
1.391,-0.109
1.392,-0.108
1.393,-0.106
1.394,-0.111
1.395,-0.109
1.396,-0.106
1.397,-0.106
1.398,-0.111
1.399,-0.109
1.4,-0.108
1.401,-0.109
1.402,-0.109
1.403,-0.109
1.404,-0.108
1.405,-0.109
1.406,-0.113
1.407,-0.113
1.408,-0.111
1.409,-0.106
1.41,-0.108
1.411,-0.103
1.412,-0.097
1.413,-0.094
1.414,-0.088
1.415,-0.081
1.416,-0.075
1.417,-0.069
1.418,-0.063
1.419,-0.056
1.42,-0.044
1.421,-0.037
1.422,-0.039
1.423,-0.041
1.424,-0.031
1.425,-0.025
1.426,-0.016
1.427,-0.009
1.428,-0.011
1.429,-0.012
1.43,-0.016
1.431,-0.012
1.432,-0.008
1.433,0
1.434,0.003
1.435,0.003
1.436,0.008
1.437,0.006
1.438,0.012
1.439,0.019
1.44,0.024
1.441,0.031
1.442,0.041
1.443,0.053
1.444,0.062
1.445,0.069
1.446,0.074
1.447,0.081
1.448,0.084
1.449,0.091
1.45,0.097
1.451,0.1
1.452,0.1
1.453,0.1
1.454,0.103
1.455,0.103
1.456,0.099
1.457,0.1
1.458,0.1
1.459,0.1
1.46,0.098
1.461,0.097
1.462,0.089
1.463,0.088
1.464,0.082
1.465,0.081
1.466,0.071
1.467,0.066
1.468,0.064
1.469,0.056
1.47,0.054
1.471,0.053
1.472,0.051
1.473,0.044
1.474,0.036
1.475,0.025
1.476,0.016
1.477,0.003
1.478,-0.008
1.479,-0.019
1.48,-0.026
1.481,-0.034
1.482,-0.043
1.483,-0.05
1.484,-0.05
1.485,-0.059
1.486,-0.068
1.487,-0.075
1.488,-0.086
1.489,-0.1
1.49,-0.106
1.491,-0.109
1.492,-0.114
1.493,-0.119
1.494,-0.122
1.495,-0.125
1.496,-0.131
1.497,-0.141
1.498,-0.15
1.499,-0.156
1.5,-0.162
1.501,-0.169
1.502,-0.175
1.503,-0.181
1.504,-0.188
1.505,-0.194
1.506,-0.188
1.507,-0.184
1.508,-0.189
1.509,-0.191
1.51,-0.186
1.511,-0.188
1.512,-0.183
1.513,-0.181
1.514,-0.184
1.515,-0.184
1.516,-0.183
1.517,-0.184
1.518,-0.184
1.519,-0.184
1.52,-0.186
1.521,-0.191
1.522,-0.191
1.523,-0.194
1.524,-0.198
1.525,-0.197
1.526,-0.197
1.527,-0.197
1.528,-0.197
1.529,-0.197
1.53,-0.197
1.531,-0.197
1.532,-0.198
1.533,-0.2
1.534,-0.2
1.535,-0.2
1.536,-0.203
1.537,-0.2
1.538,-0.2
1.539,-0.2
1.54,-0.196
1.541,-0.188
1.542,-0.189
1.543,-0.191
1.544,-0.188
1.545,-0.188
1.546,-0.188
1.547,-0.188
1.548,-0.191
1.549,-0.191
1.55,-0.189
1.551,-0.191
1.552,-0.193
1.553,-0.188
1.554,-0.188
1.555,-0.188
1.556,-0.194
1.557,-0.194
1.558,-0.193
1.559,-0.194
1.56,-0.201
1.561,-0.209
1.562,-0.211
1.563,-0.213
1.564,-0.219
1.565,-0.219
1.566,-0.211
1.567,-0.197
1.568,-0.184
1.569,-0.169
1.57,-0.153
1.571,-0.131
1.572,-0.108
1.573,-0.069
1.574,-0.025
1.575,0.019
1.576,0.069
1.577,0.128
1.578,0.197
1.579,0.272
1.58,0.348
1.581,0.447
1.582,0.542
1.583,0.641
1.584,0.741
1.585,0.844
1.586,0.946
1.587,1.044
1.588,1.134
1.589,1.225
1.59,1.314
1.591,1.378
1.592,1.446
1.593,1.494
1.594,1.531
1.595,1.525
1.596,1.496
1.597,1.416
1.598,1.333
1.599,1.219
1.6,1.108
1.601,0.981
1.602,0.843
1.603,0.684
1.604,0.531
1.605,0.375
1.606,0.231
1.607,0.109
1.608,0.001
1.609,-0.072
1.61,-0.134
1.611,-0.162
1.612,-0.181
1.613,-0.175
1.614,-0.18
1.615,-0.169
1.616,-0.162
1.617,-0.166
1.618,-0.167
1.619,-0.166
1.62,-0.166
1.621,-0.162
1.622,-0.162
1.623,-0.159
1.624,-0.149
1.625,-0.144
1.626,-0.141
1.627,-0.131
1.628,-0.128
1.629,-0.128
1.63,-0.128
1.631,-0.128
1.632,-0.127
1.633,-0.128
1.634,-0.131
1.635,-0.137
1.636,-0.141
1.637,-0.144
1.638,-0.142
1.639,-0.144
1.64,-0.144
1.641,-0.147
1.642,-0.147
1.643,-0.147
1.644,-0.147
1.645,-0.147
1.646,-0.147
1.647,-0.147
1.648,-0.149
1.649,-0.147
1.65,-0.151
1.651,-0.15
1.652,-0.15
1.653,-0.15
1.654,-0.149
1.655,-0.147
1.656,-0.151
1.657,-0.153
1.658,-0.154
1.659,-0.156
1.66,-0.152
1.661,-0.15
1.662,-0.15
1.663,-0.15
1.664,-0.15
1.665,-0.15
1.666,-0.149
1.667,-0.15
1.668,-0.149
1.669,-0.144
1.67,-0.148
1.671,-0.147
1.672,-0.148
1.673,-0.147
1.674,-0.146
1.675,-0.144
1.676,-0.142
1.677,-0.141
1.678,-0.139
1.679,-0.141
1.68,-0.141
1.681,-0.144
1.682,-0.144
1.683,-0.144
1.684,-0.142
1.685,-0.141
1.686,-0.144
1.687,-0.144
1.688,-0.142
1.689,-0.137
1.69,-0.133
1.691,-0.134
1.692,-0.133
1.693,-0.134
1.694,-0.133
1.695,-0.131
1.696,-0.129
1.697,-0.131
1.698,-0.131
1.699,-0.131
1.7,-0.133
1.701,-0.131
1.702,-0.13
1.703,-0.128
1.704,-0.126
1.705,-0.128
1.706,-0.129
1.707,-0.128
1.708,-0.127
1.709,-0.128
1.71,-0.125
1.711,-0.125
1.712,-0.119
1.713,-0.119
1.714,-0.12
1.715,-0.119
1.716,-0.12
1.717,-0.122
1.718,-0.122
1.719,-0.122
1.72,-0.119
1.721,-0.122
1.722,-0.123
1.723,-0.122
1.724,-0.122
1.725,-0.122
1.726,-0.122
1.727,-0.119
1.728,-0.121
1.729,-0.119
1.73,-0.12
1.731,-0.119
1.732,-0.119
1.733,-0.122
1.734,-0.125
1.735,-0.125
1.736,-0.124
1.737,-0.122
1.738,-0.121
1.739,-0.119
1.74,-0.119
1.741,-0.119
1.742,-0.116
1.743,-0.113
1.744,-0.116
1.745,-0.116
1.746,-0.113
1.747,-0.113
1.748,-0.113
1.749,-0.113
1.75,-0.111
1.751,-0.109
1.752,-0.113
1.753,-0.116
1.754,-0.113
1.755,-0.106
1.756,-0.105
1.757,-0.1
1.758,-0.104
1.759,-0.103
1.76,-0.102
1.761,-0.097
1.762,-0.094
1.763,-0.094
1.764,-0.091
1.765,-0.088
1.766,-0.089
1.767,-0.088
1.768,-0.084
1.769,-0.081
1.77,-0.079
1.771,-0.078
1.772,-0.077
1.773,-0.075
1.774,-0.073
1.775,-0.072
1.776,-0.069
1.777,-0.069
1.778,-0.063
1.779,-0.056
1.78,-0.056
1.781,-0.053
1.782,-0.051
1.783,-0.05
1.784,-0.049
1.785,-0.044
1.786,-0.043
1.787,-0.037
1.788,-0.036
1.789,-0.034
1.79,-0.037
1.791,-0.034
1.792,-0.034
1.793,-0.034
1.794,-0.031
1.795,-0.028
1.796,-0.025
1.797,-0.019
1.798,-0.019
1.799,-0.016
1.8,-0.017
1.801,-0.016
1.802,-0.012
1.803,-0.012
1.804,-0.009
1.805,-0.003
1.806,0.001
1.807,0.006
1.808,0.005
1.809,0.003
1.81,0.003
1.811,0.003
1.812,0
1.813,-0.003
1.814,-0.003
1.815,0
1.816,0.001
1.817,0.003
1.818,0.006
1.819,0.006
1.82,0.009
1.821,0.009
1.822,0.009
1.823,0.009
1.824,0.009
1.825,0.009
1.826,0.009
1.827,0.009
1.828,0.011
1.829,0.009
1.83,0.008
1.831,0.009
1.832,0.009
1.833,0.009
1.834,0.009
1.835,0.009
1.836,0.009
1.837,0.012
1.838,0.012
1.839,0.016
1.84,0.016
1.841,0.016
1.842,0.014
1.843,0.016
1.844,0.019
1.845,0.025
1.846,0.025
1.847,0.025
1.848,0.025
1.849,0.025
1.85,0.025
1.851,0.025
1.852,0.027
1.853,0.025
1.854,0.025
1.855,0.025
1.856,0.025
1.857,0.025
1.858,0.025
1.859,0.028
1.86,0.031
1.861,0.031
1.862,0.031
1.863,0.031
1.864,0.036
1.865,0.041
1.866,0.039
1.867,0.041
1.868,0.041
1.869,0.037
1.87,0.037
1.871,0.041
1.872,0.039
1.873,0.037
1.874,0.039
1.875,0.034
1.876,0.031
1.877,0.031
1.878,0.031
1.879,0.031
1.88,0.031
1.881,0.031
1.882,0.037
1.883,0.041
1.884,0.039
1.885,0.034
1.886,0.033
1.887,0.028
1.888,0.029
1.889,0.028
1.89,0.029
1.891,0.031
1.892,0.028
1.893,0.025
1.894,0.022
1.895,0.016
1.896,0.016
1.897,0.016
1.898,0.012
1.899,0.009
1.9,0.008
1.901,0.006
1.902,0.006
1.903,0.003
1.904,-0.004
1.905,-0.009
1.906,-0.009
1.907,-0.009
1.908,-0.009
1.909,-0.009
1.91,-0.016
1.911,-0.012
1.912,-0.014
1.913,-0.019
1.914,-0.023
1.915,-0.028
1.916,-0.028
1.917,-0.028
1.918,-0.03
1.919,-0.031
1.92,-0.031
1.921,-0.034
1.922,-0.034
1.923,-0.037
1.924,-0.036
1.925,-0.037
1.926,-0.039
1.927,-0.044
1.928,-0.046
1.929,-0.044
1.93,-0.047
1.931,-0.047
1.932,-0.048
1.933,-0.05
1.934,-0.054
1.935,-0.056
1.936,-0.056
1.937,-0.056
1.938,-0.058
1.939,-0.059
1.94,-0.061
1.941,-0.063
1.942,-0.059
1.943,-0.056
1.944,-0.061
1.945,-0.066
1.946,-0.066
1.947,-0.069
1.948,-0.068
1.949,-0.066
1.95,-0.07
1.951,-0.072
1.952,-0.071
1.953,-0.069
1.954,-0.072
1.955,-0.072
1.956,-0.072
1.957,-0.069
1.958,-0.069
1.959,-0.066
1.96,-0.066
1.961,-0.066
1.962,-0.066
1.963,-0.066
1.964,-0.069
1.965,-0.072
1.966,-0.072
1.967,-0.072
1.968,-0.075
1.969,-0.072
1.97,-0.074
1.971,-0.072
1.972,-0.07
1.973,-0.072
1.974,-0.072
1.975,-0.072
1.976,-0.073
1.977,-0.072
1.978,-0.074
1.979,-0.075
1.98,-0.074
1.981,-0.072
1.982,-0.076
1.983,-0.075
1.984,-0.075
1.985,-0.075
1.986,-0.074
1.987,-0.075
1.988,-0.072
1.989,-0.072
1.99,-0.078
1.991,-0.081
1.992,-0.084
1.993,-0.084
1.994,-0.083
1.995,-0.081
1.996,-0.08
1.997,-0.081
1.998,-0.083
1.999,-0.088
2,-0.089
2.001,-0.091
2.002,-0.091
2.003,-0.091
2.004,-0.089
2.005,-0.088
2.006,-0.091
2.007,-0.091
2.008,-0.092
2.009,-0.097
2.01,-0.098
2.011,-0.1
2.012,-0.101
2.013,-0.103
2.014,-0.103
2.015,-0.106
2.016,-0.103
2.017,-0.103
2.018,-0.105
2.019,-0.106
2.02,-0.103
2.021,-0.103
2.022,-0.106
2.023,-0.106
2.024,-0.108
2.025,-0.106
2.026,-0.103
2.027,-0.1
2.028,-0.096
2.029,-0.094
2.03,-0.092
2.031,-0.094
2.032,-0.089
2.033,-0.084
2.034,-0.081
2.035,-0.075
2.036,-0.072
2.037,-0.069
2.038,-0.058
2.039,-0.044
2.04,-0.031
2.041,-0.019
2.042,-0.012
2.043,-0.006
2.044,-0.003
2.045,0.003
2.046,0.005
2.047,0.009
2.048,0.012
2.049,0.012
2.05,0.011
2.051,0.003
2.052,0.002
2.053,0.003
2.054,0.009
2.055,0.012
2.056,0.016
2.057,0.025
2.058,0.024
2.059,0.028
2.06,0.036
2.061,0.044
2.062,0.056
2.063,0.066
2.064,0.076
2.065,0.088
2.066,0.094
2.067,0.1
2.068,0.105
2.069,0.106
2.07,0.116
2.071,0.119
2.072,0.117
2.073,0.116
2.074,0.114
2.075,0.116
2.076,0.119
2.077,0.119
2.078,0.121
2.079,0.119
2.08,0.119
2.081,0.116
2.082,0.113
2.083,0.106
2.084,0.107
2.085,0.1
2.086,0.094
2.087,0.084
2.088,0.077
2.089,0.072
2.09,0.07
2.091,0.072
2.092,0.069
2.093,0.066
2.094,0.055
2.095,0.047
2.096,0.034
2.097,0.022
2.098,0.006
2.099,-0.006
2.1,-0.016
2.101,-0.022
2.102,-0.025
2.103,-0.031
2.104,-0.037
2.105,-0.037
2.106,-0.049
2.107,-0.056
2.108,-0.067
2.109,-0.075
2.11,-0.084
2.111,-0.091
2.112,-0.098
2.113,-0.109
2.114,-0.116
2.115,-0.122
2.116,-0.128
2.117,-0.131
2.118,-0.136
2.119,-0.141
2.12,-0.142
2.121,-0.147
2.122,-0.149
2.123,-0.147
2.124,-0.151
2.125,-0.156
2.126,-0.162
2.127,-0.166
2.128,-0.172
2.129,-0.178
2.13,-0.179
2.131,-0.178
2.132,-0.182
2.133,-0.181
2.134,-0.178
2.135,-0.178
2.136,-0.178
2.137,-0.178
2.138,-0.18
2.139,-0.178
2.14,-0.178
2.141,-0.178
2.142,-0.177
2.143,-0.172
2.144,-0.175
2.145,-0.178
2.146,-0.179
2.147,-0.184
2.148,-0.186
2.149,-0.188
2.15,-0.188
2.151,-0.188
2.152,-0.184
2.153,-0.181
2.154,-0.18
2.155,-0.178
2.156,-0.178
2.157,-0.181
2.158,-0.179
2.159,-0.181
2.16,-0.181
2.161,-0.181
2.162,-0.175
2.163,-0.172
2.164,-0.176
2.165,-0.178
2.166,-0.175
2.167,-0.172
2.168,-0.171
2.169,-0.172
2.17,-0.175
2.171,-0.175
2.172,-0.172
2.173,-0.172
2.174,-0.17
2.175,-0.172
2.176,-0.172
2.177,-0.175
2.178,-0.171
2.179,-0.172
2.18,-0.179
2.181,-0.188
2.182,-0.194
2.183,-0.2
2.184,-0.203
2.185,-0.203
2.186,-0.199
2.187,-0.191
2.188,-0.181
2.189,-0.172
2.19,-0.159
2.191,-0.15
2.192,-0.128
2.193,-0.103
2.194,-0.069
2.195,-0.031
2.196,0.014
2.197,0.062
2.198,0.119
2.199,0.181
2.2,0.254
2.201,0.331
2.202,0.422
2.203,0.516
2.204,0.62
2.205,0.728
2.206,0.839
2.207,0.95
2.208,1.053
2.209,1.156
2.21,1.256
2.211,1.35
2.212,1.413
2.213,1.475
2.214,1.525
2.215,1.572
2.216,1.569
2.217,1.547
2.218,1.48
2.219,1.403
2.22,1.296
2.221,1.187
2.222,1.067
2.223,0.937
2.224,0.781
2.225,0.625
2.226,0.471
2.227,0.325
2.228,0.203
2.229,0.084
2.23,0.008
2.231,-0.056
2.232,-0.093
2.233,-0.116
2.234,-0.117
2.235,-0.125
2.236,-0.12
2.237,-0.119
2.238,-0.123
2.239,-0.125
2.24,-0.125
2.241,-0.128
2.242,-0.128
2.243,-0.128
2.244,-0.121
2.245,-0.113
2.246,-0.113
2.247,-0.113
2.248,-0.105
2.249,-0.1
2.25,-0.103
2.251,-0.103
2.252,-0.103
2.253,-0.106
2.254,-0.113
2.255,-0.119
2.256,-0.122
2.257,-0.122
2.258,-0.124
2.259,-0.122
2.26,-0.128
2.261,-0.128
2.262,-0.131
2.263,-0.134
2.264,-0.134
2.265,-0.134
2.266,-0.133
2.267,-0.131
2.268,-0.13
2.269,-0.131
2.27,-0.128
2.271,-0.128
2.272,-0.125
2.273,-0.125
2.274,-0.126
2.275,-0.128
2.276,-0.131
2.277,-0.134
2.278,-0.13
2.279,-0.128
2.28,-0.128
2.281,-0.125
2.282,-0.125
2.283,-0.125
2.284,-0.125
2.285,-0.125
2.286,-0.124
2.287,-0.122
2.288,-0.125
2.289,-0.125
2.29,-0.122
2.291,-0.125
2.292,-0.125
2.293,-0.128
2.294,-0.125
2.295,-0.125
2.296,-0.128
2.297,-0.128
2.298,-0.124
2.299,-0.122
2.3,-0.125
2.301,-0.122
2.302,-0.122
2.303,-0.122
2.304,-0.121
2.305,-0.119
2.306,-0.117
2.307,-0.116
2.308,-0.114
2.309,-0.116
2.31,-0.111
2.311,-0.106
2.312,-0.108
2.313,-0.103
2.314,-0.102
2.315,-0.1
2.316,-0.1
2.317,-0.097
2.318,-0.097
2.319,-0.097
2.32,-0.098
2.321,-0.1
2.322,-0.098
2.323,-0.1
2.324,-0.103
2.325,-0.103
2.326,-0.099
2.327,-0.094
2.328,-0.092
2.329,-0.094
2.33,-0.097
2.331,-0.094
2.332,-0.094
2.333,-0.091
2.334,-0.095
2.335,-0.097
2.336,-0.094
2.337,-0.094
2.338,-0.093
2.339,-0.091
2.34,-0.091
2.341,-0.088
2.342,-0.092
2.343,-0.094
2.344,-0.092
2.345,-0.094
2.346,-0.093
2.347,-0.091
2.348,-0.086
2.349,-0.088
2.35,-0.089
2.351,-0.091
2.352,-0.086
2.353,-0.084
2.354,-0.089
2.355,-0.091
2.356,-0.088
2.357,-0.088
2.358,-0.088
2.359,-0.088
2.36,-0.088
2.361,-0.088
2.362,-0.086
2.363,-0.081
2.364,-0.079
2.365,-0.084
2.366,-0.088
2.367,-0.088
2.368,-0.084
2.369,-0.081
2.37,-0.084
2.371,-0.084
2.372,-0.083
2.373,-0.084
2.374,-0.083
2.375,-0.081
2.376,-0.078
2.377,-0.078
2.378,-0.075
2.379,-0.078
2.38,-0.075
2.381,-0.075
2.382,-0.072
2.383,-0.069
2.384,-0.07
2.385,-0.069
2.386,-0.063
2.387,-0.059
2.388,-0.057
2.389,-0.056
2.39,-0.054
2.391,-0.053
2.392,-0.05
2.393,-0.05
2.394,-0.046
2.395,-0.037
2.396,-0.037
2.397,-0.037
2.398,-0.041
2.399,-0.041
2.4,-0.036
2.401,-0.034
2.402,-0.03
2.403,-0.025
2.404,-0.021
2.405,-0.019
2.406,-0.016
2.407,-0.016
2.408,-0.014
2.409,-0.012
2.41,-0.006
2.411,-0.003
2.412,0.003
2.413,0.003
2.414,0.002
2.415,0.003
2.416,0.006
2.417,0.006
2.418,0.009
2.419,0.009
2.42,0.012
2.421,0.012
2.422,0.012
2.423,0.012
2.424,0.012
2.425,0.012
2.426,0.016
2.427,0.016
2.428,0.02
2.429,0.025
2.43,0.022
2.431,0.022
2.432,0.025
2.433,0.025
2.434,0.025
2.435,0.025
2.436,0.027
2.437,0.025
2.438,0.025
2.439,0.025
2.44,0.025
2.441,0.031
2.442,0.036
2.443,0.041
2.444,0.039
2.445,0.037
2.446,0.033
2.447,0.028
2.448,0.028
2.449,0.028
2.45,0.025
2.451,0.025
2.452,0.027
2.453,0.025
2.454,0.028
2.455,0.031
2.456,0.034
2.457,0.037
2.458,0.041
2.459,0.037
2.46,0.036
2.461,0.034
2.462,0.034
2.463,0.034
2.464,0.036
2.465,0.034
2.466,0.036
2.467,0.034
2.468,0.034
2.469,0.034
2.47,0.037
2.471,0.041
2.472,0.039
2.473,0.041
2.474,0.041
2.475,0.041
2.476,0.041
2.477,0.041
2.478,0.041
2.479,0.041
2.48,0.041
2.481,0.041
2.482,0.044
2.483,0.047
2.484,0.044
2.485,0.044
2.486,0.048
2.487,0.047
2.488,0.047
2.489,0.047
2.49,0.047
2.491,0.05
2.492,0.052
2.493,0.05
2.494,0.05
2.495,0.053
2.496,0.05
2.497,0.05
2.498,0.053
2.499,0.05
2.5,0.048
2.501,0.05
2.502,0.049
2.503,0.047
2.504,0.045
2.505,0.047
2.506,0.044
2.507,0.044
2.508,0.039
2.509,0.037
2.51,0.034
2.511,0.034
2.512,0.033
2.513,0.028
2.514,0.025
2.515,0.025
2.516,0.023
2.517,0.022
2.518,0.019
2.519,0.016
2.52,0.012
2.521,0.009
2.522,0.008
2.523,0.009
2.524,0.008
2.525,0.006
2.526,0.006
2.527,0.003
2.528,0.003
2.529,0.003
2.53,-0.001
2.531,-0.009
2.532,-0.008
2.533,-0.009
2.534,-0.011
2.535,-0.012
2.536,-0.019
2.537,-0.025
2.538,-0.028
2.539,-0.031
2.54,-0.033
2.541,-0.031
2.542,-0.034
2.543,-0.034
2.544,-0.036
2.545,-0.034
2.546,-0.042
2.547,-0.047
2.548,-0.049
2.549,-0.05
2.55,-0.049
2.551,-0.05
2.552,-0.051
2.553,-0.053
2.554,-0.052
2.555,-0.053
2.556,-0.053
2.557,-0.053
2.558,-0.052
2.559,-0.053
2.56,-0.057
2.561,-0.059
2.562,-0.058
2.563,-0.056
2.564,-0.057
2.565,-0.059
2.566,-0.059
2.567,-0.059
2.568,-0.063
2.569,-0.063
2.57,-0.061
2.571,-0.063
2.572,-0.063
2.573,-0.063
2.574,-0.064
2.575,-0.069
2.576,-0.066
2.577,-0.063
2.578,-0.061
2.579,-0.066
2.58,-0.067
2.581,-0.069
2.582,-0.069
2.583,-0.069
2.584,-0.068
2.585,-0.066
2.586,-0.066
2.587,-0.066
2.588,-0.066
2.589,-0.069
2.59,-0.066
2.591,-0.069
2.592,-0.069
2.593,-0.066
2.594,-0.063
2.595,-0.063
2.596,-0.066
2.597,-0.066
2.598,-0.064
2.599,-0.066
2.6,-0.069
2.601,-0.069
2.602,-0.067
2.603,-0.066
2.604,-0.064
2.605,-0.063
2.606,-0.067
2.607,-0.066
2.608,-0.069
2.609,-0.072
2.61,-0.072
2.611,-0.075
2.612,-0.073
2.613,-0.075
2.614,-0.077
2.615,-0.075
2.616,-0.075
2.617,-0.072
2.618,-0.072
2.619,-0.072
2.62,-0.075
2.621,-0.081
2.622,-0.08
2.623,-0.081
2.624,-0.083
2.625,-0.084
2.626,-0.086
2.627,-0.088
2.628,-0.089
2.629,-0.091
2.63,-0.094
2.631,-0.094
2.632,-0.093
2.633,-0.094
2.634,-0.094
2.635,-0.094
2.636,-0.094
2.637,-0.094
2.638,-0.094
2.639,-0.097
2.64,-0.097
2.641,-0.1
2.642,-0.1
2.643,-0.1
2.644,-0.097
2.645,-0.097
2.646,-0.1
2.647,-0.1
2.648,-0.103
2.649,-0.103
2.65,-0.102
2.651,-0.1
2.652,-0.097
2.653,-0.097
2.654,-0.093
2.655,-0.091
2.656,-0.083
2.657,-0.075
2.658,-0.071
2.659,-0.063
2.66,-0.055
2.661,-0.047
2.662,-0.039
2.663,-0.028
2.664,-0.019
2.665,-0.009
2.666,-0.006
2.667,-0.003
2.668,-0.003
2.669,0
2.67,0.003
2.671,0.009
2.672,0.012
2.673,0.012
2.674,0.016
2.675,0.012
2.676,0.012
2.677,0.016
2.678,0.022
2.679,0.025
2.68,0.028
2.681,0.037
2.682,0.037
2.683,0.044
2.684,0.05
2.685,0.056
2.686,0.064
2.687,0.069
2.688,0.078
2.689,0.088
2.69,0.094
2.691,0.1
2.692,0.106
2.693,0.109
2.694,0.116
2.695,0.116
2.696,0.114
2.697,0.113
2.698,0.113
2.699,0.116
2.7,0.117
2.701,0.116
2.702,0.117
2.703,0.116
2.704,0.117
2.705,0.116
2.706,0.109
2.707,0.1
2.708,0.099
2.709,0.088
2.71,0.081
2.711,0.072
2.712,0.069
2.713,0.069
2.714,0.064
2.715,0.062
2.716,0.052
2.717,0.041
2.718,0.03
2.719,0.022
2.72,0.012
2.721,0.003
2.722,-0.008
2.723,-0.016
2.724,-0.025
2.725,-0.031
2.726,-0.036
2.727,-0.044
2.728,-0.053
2.729,-0.056
2.73,-0.069
2.731,-0.078
2.732,-0.086
2.733,-0.091
2.734,-0.099
2.735,-0.103
2.736,-0.108
2.737,-0.116
2.738,-0.119
2.739,-0.122
2.74,-0.133
2.741,-0.141
2.742,-0.147
2.743,-0.153
2.744,-0.153
2.745,-0.156
2.746,-0.164
2.747,-0.169
2.748,-0.169
2.749,-0.169
2.75,-0.169
2.751,-0.166
2.752,-0.168
2.753,-0.169
2.754,-0.17
2.755,-0.169
2.756,-0.176
2.757,-0.178
2.758,-0.178
2.759,-0.181
2.76,-0.181
2.761,-0.181
2.762,-0.181
2.763,-0.178
2.764,-0.178
2.765,-0.178
2.766,-0.18
2.767,-0.178
2.768,-0.175
2.769,-0.172
2.77,-0.172
2.771,-0.175
2.772,-0.175
2.773,-0.175
2.774,-0.175
2.775,-0.175
2.776,-0.178
2.777,-0.181
2.778,-0.182
2.779,-0.184
2.78,-0.184
2.781,-0.188
2.782,-0.184
2.783,-0.184
2.784,-0.183
2.785,-0.181
2.786,-0.178
2.787,-0.178
2.788,-0.175
2.789,-0.169
2.79,-0.17
2.791,-0.172
2.792,-0.172
2.793,-0.175
2.794,-0.176
2.795,-0.175
2.796,-0.172
2.797,-0.172
2.798,-0.17
2.799,-0.172
2.8,-0.172
2.801,-0.175
2.802,-0.172
2.803,-0.175
2.804,-0.178
2.805,-0.181
2.806,-0.189
2.807,-0.197
2.808,-0.202
2.809,-0.203
2.81,-0.199
2.811,-0.191
2.812,-0.181
2.813,-0.172
2.814,-0.156
2.815,-0.144
2.816,-0.114
2.817,-0.081
2.818,-0.045
2.819,-0.006
2.82,0.039
2.821,0.088
2.822,0.15
2.823,0.219
2.824,0.297
2.825,0.378
2.826,0.478
2.827,0.581
2.828,0.686
2.829,0.794
2.83,0.901
2.831,1.009
2.832,1.112
2.833,1.216
2.834,1.3
2.835,1.378
2.836,1.434
2.837,1.491
2.838,1.516
2.839,1.538
2.84,1.514
2.841,1.472
2.842,1.391
2.843,1.3
2.844,1.183
2.845,1.066
2.846,0.936
2.847,0.797
2.848,0.644
2.849,0.491
2.85,0.345
2.851,0.209
2.852,0.109
2.853,0.012
2.854,-0.049
2.855,-0.097
2.856,-0.119
2.857,-0.128
2.858,-0.127
2.859,-0.131
2.86,-0.126
2.861,-0.125
2.862,-0.133
2.863,-0.137
2.864,-0.133
2.865,-0.131
2.866,-0.128
2.867,-0.125
2.868,-0.12
2.869,-0.116
2.87,-0.113
2.871,-0.109
2.872,-0.104
2.873,-0.103
2.874,-0.106
2.875,-0.106
2.876,-0.108
2.877,-0.113
2.878,-0.116
2.879,-0.119
2.88,-0.125
2.881,-0.128
2.882,-0.134
2.883,-0.137
2.884,-0.141
2.885,-0.137
2.886,-0.134
2.887,-0.131
2.888,-0.131
2.889,-0.131
2.89,-0.133
2.891,-0.134
2.892,-0.131
2.893,-0.131
2.894,-0.131
2.895,-0.134
2.896,-0.131
2.897,-0.131
2.898,-0.128
2.899,-0.125
2.9,-0.128
2.901,-0.131
2.902,-0.129
2.903,-0.131
2.904,-0.133
2.905,-0.131
2.906,-0.128
2.907,-0.125
2.908,-0.125
2.909,-0.125
2.91,-0.125
2.911,-0.125
2.912,-0.127
2.913,-0.125
2.914,-0.122
2.915,-0.125
2.916,-0.123
2.917,-0.125
2.918,-0.123
2.919,-0.125
2.92,-0.128
2.921,-0.128
2.922,-0.125
2.923,-0.125
2.924,-0.128
2.925,-0.125
2.926,-0.122
2.927,-0.119
2.928,-0.116
2.929,-0.113
2.93,-0.116
2.931,-0.119
2.932,-0.114
2.933,-0.113
2.934,-0.111
2.935,-0.109
2.936,-0.111
2.937,-0.106
2.938,-0.1
2.939,-0.094
2.94,-0.098
2.941,-0.1
2.942,-0.101
2.943,-0.103
2.944,-0.104
2.945,-0.106
2.946,-0.103
2.947,-0.103
2.948,-0.1
2.949,-0.094
2.95,-0.094
2.951,-0.094
2.952,-0.089
2.953,-0.088
2.954,-0.091
2.955,-0.088
2.956,-0.089
2.957,-0.088
2.958,-0.092
2.959,-0.094
2.96,-0.091
2.961,-0.091
2.962,-0.091
2.963,-0.091
2.964,-0.092
2.965,-0.091
2.966,-0.094
2.967,-0.094
2.968,-0.089
2.969,-0.088
2.97,-0.089
2.971,-0.091
2.972,-0.088
2.973,-0.091
2.974,-0.091
2.975,-0.091
2.976,-0.088
2.977,-0.088
2.978,-0.091
2.979,-0.091
2.98,-0.089
2.981,-0.091
2.982,-0.091
2.983,-0.091
2.984,-0.091
2.985,-0.091
2.986,-0.088
2.987,-0.081
2.988,-0.079
2.989,-0.084
2.99,-0.086
2.991,-0.084
2.992,-0.084
2.993,-0.084
2.994,-0.084
2.995,-0.081
2.996,-0.079
2.997,-0.081
2.998,-0.08
2.999,-0.078
3,-0.075
3.001,-0.075
3.002,-0.072
3.003,-0.075
3.004,-0.071
3.005,-0.069
3.006,-0.061
3.007,-0.053
3.008,-0.056
3.009,-0.056
3.01,-0.053
3.011,-0.053
3.012,-0.051
3.013,-0.05
3.014,-0.05
3.015,-0.05
3.016,-0.047
3.017,-0.047
3.018,-0.043
3.019,-0.034
3.02,-0.031
3.021,-0.028
3.022,-0.027
3.023,-0.022
3.024,-0.019
3.025,-0.019
3.026,-0.017
3.027,-0.016
3.028,-0.014
3.029,-0.016
3.03,-0.008
3.031,-0.003
3.032,0
3.033,0.003
3.034,0.003
3.035,0
3.036,0.006
3.037,0.006
3.038,0.006
3.039,0.009
3.04,0.016
3.041,0.019
3.042,0.021
3.043,0.019
3.044,0.021
3.045,0.019
3.046,0.023
3.047,0.028
3.048,0.031
3.049,0.034
3.05,0.034
3.051,0.031
3.052,0.031
3.053,0.031
3.054,0.03
3.055,0.031
3.056,0.033
3.057,0.031
3.058,0.032
3.059,0.034
3.06,0.041
3.061,0.044
3.062,0.044
3.063,0.044
3.064,0.037
3.065,0.037
3.066,0.039
3.067,0.041
3.068,0.037
3.069,0.034
3.07,0.034
3.071,0.034
3.072,0.041
3.073,0.047
3.074,0.042
3.075,0.041
3.076,0.042
3.077,0.041
3.078,0.039
3.079,0.037
3.08,0.037
3.081,0.037
3.082,0.042
3.083,0.041
3.084,0.042
3.085,0.044
3.086,0.045
3.087,0.047
3.088,0.049
3.089,0.047
3.09,0.051
3.091,0.053
3.092,0.053
3.093,0.053
3.094,0.056
3.095,0.059
3.096,0.058
3.097,0.059
3.098,0.059
3.099,0.059
3.1,0.059
3.101,0.059
3.102,0.058
3.103,0.056
3.104,0.059
3.105,0.062
3.106,0.064
3.107,0.066
3.108,0.064
3.109,0.066
3.11,0.07
3.111,0.069
3.112,0.07
3.113,0.072
3.114,0.069
3.115,0.069
3.116,0.071
3.117,0.069
3.118,0.069
3.119,0.072
3.12,0.07
3.121,0.072
3.122,0.075
3.123,0.072
3.124,0.068
3.125,0.066
3.126,0.067
3.127,0.069
3.128,0.067
3.129,0.069
3.13,0.064
3.131,0.062
3.132,0.061
3.133,0.062
3.134,0.059
3.135,0.059
3.136,0.059
3.137,0.056
3.138,0.052
3.139,0.05
3.14,0.046
3.141,0.041
3.142,0.041
3.143,0.041
3.144,0.039
3.145,0.037
3.146,0.031
3.147,0.028
3.148,0.026
3.149,0.025
3.15,0.025
3.151,0.022
3.152,0.017
3.153,0.012
3.154,0.008
3.155,0
3.156,0.003
3.157,0.003
3.158,0.003
3.159,0.003
3.16,-0.001
3.161,-0.006
3.162,-0.006
3.163,-0.006
3.164,-0.009
3.165,-0.009
3.166,-0.011
3.167,-0.009
3.168,-0.016
3.169,-0.019
3.17,-0.022
3.171,-0.022
3.172,-0.024
3.173,-0.025
3.174,-0.025
3.175,-0.028
3.176,-0.029
3.177,-0.031
3.178,-0.03
3.179,-0.031
3.18,-0.031
3.181,-0.031
3.182,-0.028
3.183,-0.028
3.184,-0.03
3.185,-0.028
3.186,-0.029
3.187,-0.031
3.188,-0.034
3.189,-0.037
3.19,-0.036
3.191,-0.034
3.192,-0.039
3.193,-0.041
3.194,-0.039
3.195,-0.041
3.196,-0.044
3.197,-0.047
3.198,-0.046
3.199,-0.047
3.2,-0.048
3.201,-0.05
3.202,-0.046
3.203,-0.047
3.204,-0.048
3.205,-0.05
3.206,-0.05
3.207,-0.05
3.208,-0.05
3.209,-0.05
3.21,-0.05
3.211,-0.05
3.212,-0.049
3.213,-0.05
3.214,-0.047
3.215,-0.05
3.216,-0.051
3.217,-0.05
3.218,-0.047
3.219,-0.047
3.22,-0.051
3.221,-0.053
3.222,-0.05
3.223,-0.05
3.224,-0.05
3.225,-0.05
3.226,-0.054
3.227,-0.053
3.228,-0.053
3.229,-0.053
3.23,-0.052
3.231,-0.053
3.232,-0.05
3.233,-0.05
3.234,-0.053
3.235,-0.053
3.236,-0.059
3.237,-0.063
3.238,-0.064
3.239,-0.066
3.24,-0.064
3.241,-0.066
3.242,-0.064
3.243,-0.066
3.244,-0.066
3.245,-0.066
3.246,-0.066
3.247,-0.066
3.248,-0.067
3.249,-0.069
3.25,-0.072
3.251,-0.072
3.252,-0.072
3.253,-0.075
3.254,-0.074
3.255,-0.072
3.256,-0.072
3.257,-0.072
3.258,-0.075
3.259,-0.081
3.26,-0.079
3.261,-0.081
3.262,-0.083
3.263,-0.084
3.264,-0.081
3.265,-0.081
3.266,-0.083
3.267,-0.081
3.268,-0.08
3.269,-0.075
3.27,-0.075
3.271,-0.075
3.272,-0.076
3.273,-0.081
3.274,-0.074
3.275,-0.069
3.276,-0.059
3.277,-0.05
3.278,-0.047
3.279,-0.041
3.28,-0.034
3.281,-0.028
3.282,-0.023
3.283,-0.016
3.284,-0.005
3.285,0.006
3.286,0.009
3.287,0.012
3.288,0.017
3.289,0.025
3.29,0.024
3.291,0.025
3.292,0.029
3.293,0.031
3.294,0.034
3.295,0.031
3.296,0.028
3.297,0.028
3.298,0.033
3.299,0.034
3.3,0.034
3.301,0.041
3.302,0.042
3.303,0.05
3.304,0.052
3.305,0.053
3.306,0.062
3.307,0.069
3.308,0.078
3.309,0.088
3.31,0.095
3.311,0.103
3.312,0.113
3.313,0.119
3.314,0.129
3.315,0.134
3.316,0.133
3.317,0.131
3.318,0.13
3.319,0.131
3.32,0.134
3.321,0.134
3.322,0.137
3.323,0.137
3.324,0.139
3.325,0.137
3.326,0.131
3.327,0.122
3.328,0.123
3.329,0.116
3.33,0.109
3.331,0.1
3.332,0.098
3.333,0.1
3.334,0.093
3.335,0.088
3.336,0.084
3.337,0.081
3.338,0.069
3.339,0.059
3.34,0.051
3.341,0.044
3.342,0.031
3.343,0.022
3.344,0.009
3.345,0
3.346,-0.003
3.347,-0.009
3.348,-0.02
3.349,-0.025
3.35,-0.034
3.351,-0.041
3.352,-0.05
3.353,-0.056
3.354,-0.067
3.355,-0.075
3.356,-0.078
3.357,-0.084
3.358,-0.092
3.359,-0.1
3.36,-0.105
3.361,-0.106
3.362,-0.113
3.363,-0.119
3.364,-0.121
3.365,-0.125
3.366,-0.133
3.367,-0.137
3.368,-0.136
3.369,-0.134
3.37,-0.136
3.371,-0.134
3.372,-0.136
3.373,-0.137
3.374,-0.141
3.375,-0.141
3.376,-0.144
3.377,-0.141
3.378,-0.139
3.379,-0.141
3.38,-0.145
3.381,-0.15
3.382,-0.154
3.383,-0.156
3.384,-0.152
3.385,-0.147
3.386,-0.15
3.387,-0.15
3.388,-0.15
3.389,-0.15
3.39,-0.15
3.391,-0.153
3.392,-0.154
3.393,-0.156
3.394,-0.155
3.395,-0.153
3.396,-0.156
3.397,-0.159
3.398,-0.161
3.399,-0.162
3.4,-0.162
3.401,-0.166
3.402,-0.162
3.403,-0.162
3.404,-0.162
3.405,-0.162
3.406,-0.158
3.407,-0.156
3.408,-0.153
3.409,-0.147
3.41,-0.15
3.411,-0.153
3.412,-0.153
3.413,-0.156
3.414,-0.155
3.415,-0.15
3.416,-0.149
3.417,-0.15
3.418,-0.148
3.419,-0.15
3.42,-0.149
3.421,-0.15
3.422,-0.146
3.423,-0.147
3.424,-0.153
3.425,-0.159
3.426,-0.167
3.427,-0.175
3.428,-0.182
3.429,-0.188
3.43,-0.189
3.431,-0.188
3.432,-0.174
3.433,-0.159
3.434,-0.144
3.435,-0.131
3.436,-0.109
3.437,-0.084
3.438,-0.048
3.439,-0.009
3.44,0.036
3.441,0.084
3.442,0.131
3.443,0.184
3.444,0.249
3.445,0.316
3.446,0.405
3.447,0.497
3.448,0.591
3.449,0.687
3.45,0.787
3.451,0.888
3.452,0.994
3.453,1.1
3.454,1.201
3.455,1.297
3.456,1.37
3.457,1.444
3.458,1.497
3.459,1.547
3.46,1.553
3.461,1.541
3.462,1.472
3.463,1.394
3.464,1.288
3.465,1.181
3.466,1.058
3.467,0.925
3.468,0.766
3.469,0.606
3.47,0.454
3.471,0.312
3.472,0.184
3.473,0.059
3.474,-0.031
3.475,-0.109
3.476,-0.146
3.477,-0.169
3.478,-0.166
3.479,-0.169
3.48,-0.156
3.481,-0.147
3.482,-0.147
3.483,-0.144
3.484,-0.139
3.485,-0.137
3.486,-0.134
3.487,-0.131
3.488,-0.126
3.489,-0.122
3.49,-0.119
3.491,-0.116
3.492,-0.108
3.493,-0.103
3.494,-0.106
3.495,-0.106
3.496,-0.103
3.497,-0.103
3.498,-0.102
3.499,-0.1
3.5,-0.102
3.501,-0.1
3.502,-0.103
3.503,-0.103
3.504,-0.108
3.505,-0.106
3.506,-0.106
3.507,-0.106
3.508,-0.108
3.509,-0.109
3.51,-0.109
3.511,-0.109
3.512,-0.113
3.513,-0.119
3.514,-0.119
3.515,-0.122
3.516,-0.116
3.517,-0.113
3.518,-0.113
3.519,-0.113
3.52,-0.109
3.521,-0.106
3.522,-0.103
3.523,-0.103
3.524,-0.104
3.525,-0.103
3.526,-0.103
3.527,-0.103
3.528,-0.099
3.529,-0.094
3.53,-0.094
3.531,-0.094
3.532,-0.101
3.533,-0.106
3.534,-0.103
3.535,-0.106
3.536,-0.099
3.537,-0.094
3.538,-0.089
3.539,-0.088
3.54,-0.089
3.541,-0.088
3.542,-0.084
3.543,-0.084
3.544,-0.086
3.545,-0.081
3.546,-0.086
3.547,-0.091
3.548,-0.091
3.549,-0.091
3.55,-0.089
3.551,-0.088
3.552,-0.083
3.553,-0.081
3.554,-0.077
3.555,-0.072
3.556,-0.076
3.557,-0.075
3.558,-0.074
3.559,-0.072
3.56,-0.076
3.561,-0.078
3.562,-0.079
3.563,-0.081
3.564,-0.08
3.565,-0.078
3.566,-0.075
3.567,-0.075
3.568,-0.074
3.569,-0.069
3.57,-0.07
3.571,-0.072
3.572,-0.073
3.573,-0.078
3.574,-0.083
3.575,-0.081
3.576,-0.078
3.577,-0.072
3.578,-0.072
3.579,-0.069
3.58,-0.067
3.581,-0.069
3.582,-0.069
3.583,-0.069
3.584,-0.066
3.585,-0.059
3.586,-0.064
3.587,-0.066
3.588,-0.066
3.589,-0.069
3.59,-0.069
3.591,-0.069
3.592,-0.064
3.593,-0.066
3.594,-0.063
3.595,-0.059
3.596,-0.056
3.597,-0.056
3.598,-0.059
3.599,-0.059
3.6,-0.057
3.601,-0.059
3.602,-0.059
3.603,-0.059
3.604,-0.058
3.605,-0.056
3.606,-0.056
3.607,-0.053
3.608,-0.049
3.609,-0.05
3.61,-0.051
3.611,-0.05
3.612,-0.05
3.613,-0.05
3.614,-0.05
3.615,-0.047
3.616,-0.045
3.617,-0.047
3.618,-0.046
3.619,-0.044
3.62,-0.039
3.621,-0.037
3.622,-0.036
3.623,-0.041
3.624,-0.039
3.625,-0.041
3.626,-0.041
3.627,-0.041
3.628,-0.037
3.629,-0.031
3.63,-0.025
3.631,-0.022
3.632,-0.02
3.633,-0.019
3.634,-0.017
3.635,-0.016
3.636,-0.011
3.637,-0.009
3.638,-0.005
3.639,0.003
3.64,0.005
3.641,0.006
3.642,0.005
3.643,0.006
3.644,0.008
3.645,0.006
3.646,0.006
3.647,0.006
3.648,0.012
3.649,0.016
3.65,0.02
3.651,0.022
3.652,0.024
3.653,0.025
3.654,0.028
3.655,0.028
3.656,0.031
3.657,0.028
3.658,0.029
3.659,0.034
3.66,0.041
3.661,0.044
3.662,0.047
3.663,0.047
3.664,0.049
3.665,0.047
3.666,0.05
3.667,0.053
3.668,0.054
3.669,0.056
3.67,0.061
3.671,0.062
3.672,0.059
3.673,0.056
3.674,0.057
3.675,0.062
3.676,0.066
3.677,0.066
3.678,0.064
3.679,0.062
3.68,0.064
3.681,0.062
3.682,0.064
3.683,0.066
3.684,0.064
3.685,0.069
3.686,0.068
3.687,0.066
3.688,0.067
3.689,0.069
3.69,0.069
3.691,0.069
3.692,0.066
3.693,0.062
3.694,0.061
3.695,0.062
3.696,0.07
3.697,0.075
3.698,0.075
3.699,0.075
3.7,0.074
3.701,0.072
3.702,0.075
3.703,0.072
3.704,0.075
3.705,0.078
3.706,0.075
3.707,0.072
3.708,0.075
3.709,0.075
3.71,0.081
3.711,0.084
3.712,0.084
3.713,0.084
3.714,0.084
3.715,0.084
3.716,0.081
3.717,0.081
3.718,0.081
3.719,0.081
3.72,0.081
3.721,0.081
3.722,0.081
3.723,0.081
3.724,0.081
3.725,0.081
3.726,0.081
3.727,0.081
3.728,0.084
3.729,0.091
3.73,0.097
3.731,0.097
3.732,0.094
3.733,0.091
3.734,0.088
3.735,0.088
3.736,0.089
3.737,0.088
3.738,0.086
3.739,0.088
3.74,0.091
3.741,0.097
3.742,0.1
3.743,0.097
3.744,0.094
3.745,0.094
3.746,0.091
3.747,0.088
3.748,0.084
3.749,0.084
3.75,0.082
3.751,0.084
3.752,0.082
3.753,0.084
3.754,0.08
3.755,0.078
3.756,0.075
3.757,0.069
3.758,0.067
3.759,0.069
3.76,0.067
3.761,0.066
3.762,0.062
3.763,0.059
3.764,0.055
3.765,0.05
3.766,0.047
3.767,0.047
3.768,0.044
3.769,0.041
3.77,0.039
3.771,0.034
3.772,0.034
3.773,0.034
3.774,0.037
3.775,0.037
3.776,0.039
3.777,0.037
3.778,0.034
3.779,0.031
3.78,0.028
3.781,0.025
3.782,0.019
3.783,0.012
3.784,0.009
3.785,0.009
3.786,0.002
3.787,-0.003
3.788,-0.006
3.789,-0.006
3.79,-0.006
3.791,-0.003
3.792,-0.005
3.793,-0.006
3.794,-0.006
3.795,-0.009
3.796,-0.008
3.797,-0.006
3.798,-0.006
3.799,-0.009
3.8,-0.011
3.801,-0.012
3.802,-0.011
3.803,-0.012
3.804,-0.016
3.805,-0.016
3.806,-0.019
3.807,-0.022
3.808,-0.023
3.809,-0.025
3.81,-0.022
3.811,-0.019
3.812,-0.023
3.813,-0.025
3.814,-0.025
3.815,-0.028
3.816,-0.031
3.817,-0.034
3.818,-0.034
3.819,-0.037
3.82,-0.037
3.821,-0.037
3.822,-0.033
3.823,-0.034
3.824,-0.036
3.825,-0.037
3.826,-0.037
3.827,-0.037
3.828,-0.037
3.829,-0.037
3.83,-0.037
3.831,-0.037
3.832,-0.037
3.833,-0.041
3.834,-0.037
3.835,-0.041
3.836,-0.039
3.837,-0.034
3.838,-0.031
3.839,-0.028
3.84,-0.029
3.841,-0.031
3.842,-0.041
3.843,-0.044
3.844,-0.045
3.845,-0.047
3.846,-0.046
3.847,-0.047
3.848,-0.041
3.849,-0.037
3.85,-0.042
3.851,-0.044
3.852,-0.047
3.853,-0.047
3.854,-0.047
3.855,-0.047
3.856,-0.046
3.857,-0.047
3.858,-0.046
3.859,-0.047
3.86,-0.05
3.861,-0.053
3.862,-0.054
3.863,-0.056
3.864,-0.056
3.865,-0.056
3.866,-0.058
3.867,-0.056
3.868,-0.055
3.869,-0.056
3.87,-0.056
3.871,-0.056
3.872,-0.056
3.873,-0.056
3.874,-0.056
3.875,-0.059
3.876,-0.055
3.877,-0.053
3.878,-0.056
3.879,-0.059
3.88,-0.057
3.881,-0.059
3.882,-0.064
3.883,-0.066
3.884,-0.067
3.885,-0.066
3.886,-0.066
3.887,-0.066
3.888,-0.064
3.889,-0.066
3.89,-0.059
3.891,-0.056
3.892,-0.05
3.893,-0.044
3.894,-0.041
3.895,-0.034
3.896,-0.027
3.897,-0.019
3.898,-0.016
3.899,-0.009
3.9,-0.004
3.901,0
3.902,0.002
3.903,0.003
3.904,0.008
3.905,0.016
3.906,0.02
3.907,0.028
3.908,0.031
3.909,0.031
3.91,0.034
3.911,0.031
3.912,0.028
3.913,0.028
3.914,0.033
3.915,0.034
3.916,0.037
3.917,0.047
3.918,0.048
3.919,0.056
3.92,0.059
3.921,0.062
3.922,0.072
3.923,0.078
3.924,0.089
3.925,0.1
3.926,0.105
3.927,0.109
3.928,0.12
3.929,0.128
3.93,0.136
3.931,0.137
3.932,0.139
3.933,0.141
3.934,0.139
3.935,0.141
3.936,0.145
3.937,0.147
3.938,0.15
3.939,0.15
3.94,0.15
3.941,0.147
3.942,0.142
3.943,0.134
3.944,0.134
3.945,0.125
3.946,0.119
3.947,0.109
3.948,0.106
3.949,0.106
3.95,0.099
3.951,0.094
3.952,0.091
3.953,0.088
3.954,0.077
3.955,0.069
3.956,0.058
3.957,0.047
3.958,0.039
3.959,0.034
3.96,0.024
3.961,0.016
3.962,0.009
3.963,0
3.964,-0.009
3.965,-0.012
3.966,-0.025
3.967,-0.034
3.968,-0.047
3.969,-0.056
3.97,-0.063
3.971,-0.066
3.972,-0.07
3.973,-0.078
3.974,-0.083
3.975,-0.088
3.976,-0.094
3.977,-0.097
3.978,-0.102
3.979,-0.106
3.98,-0.108
3.981,-0.113
3.982,-0.12
3.983,-0.125
3.984,-0.127
3.985,-0.128
3.986,-0.134
3.987,-0.137
3.988,-0.141
3.989,-0.144
3.99,-0.144
3.991,-0.141
3.992,-0.144
3.993,-0.141
3.994,-0.139
3.995,-0.141
3.996,-0.141
3.997,-0.141
3.998,-0.144
3.999,-0.144
4,-0.145
4.001,-0.147
4.002,-0.151
4.003,-0.153
4.004,-0.155
4.005,-0.156
4.006,-0.156
4.007,-0.159
4.008,-0.159
4.009,-0.159
4.01,-0.159
4.011,-0.159
4.012,-0.161
4.013,-0.162
4.014,-0.162
4.015,-0.162
4.016,-0.161
4.017,-0.162
4.018,-0.159
4.019,-0.159
4.02,-0.161
4.021,-0.162
4.022,-0.159
4.023,-0.159
4.024,-0.159
4.025,-0.156
4.026,-0.156
4.027,-0.156
4.028,-0.155
4.029,-0.156
4.03,-0.157
4.031,-0.156
4.032,-0.155
4.033,-0.156
4.034,-0.156
4.035,-0.159
4.036,-0.159
4.037,-0.162
4.038,-0.159
4.039,-0.162
4.04,-0.169
4.041,-0.175
4.042,-0.184
4.043,-0.194
4.044,-0.201
4.045,-0.206
4.046,-0.204
4.047,-0.2
4.048,-0.183
4.049,-0.166
4.05,-0.15
4.051,-0.137
4.052,-0.111
4.053,-0.081
4.054,-0.043
4.055,0
4.056,0.044
4.057,0.091
4.058,0.145
4.059,0.206
4.06,0.278
4.061,0.353
4.062,0.447
4.063,0.544
4.064,0.638
4.065,0.734
4.066,0.828
4.067,0.922
4.068,1.017
4.069,1.112
4.07,1.203
4.071,1.288
4.072,1.353
4.073,1.419
4.074,1.472
4.075,1.522
4.076,1.511
4.077,1.481
4.078,1.399
4.079,1.306
4.08,1.194
4.081,1.081
4.082,0.95
4.083,0.809
4.084,0.647
4.085,0.484
4.086,0.341
4.087,0.206
4.088,0.095
4.089,-0.012
4.09,-0.086
4.091,-0.147
4.092,-0.174
4.093,-0.188
4.094,-0.178
4.095,-0.175
4.096,-0.166
4.097,-0.159
4.098,-0.156
4.099,-0.15
4.1,-0.147
4.101,-0.147
4.102,-0.144
4.103,-0.141
4.104,-0.133
4.105,-0.125
4.106,-0.126
4.107,-0.128
4.108,-0.126
4.109,-0.128
4.11,-0.129
4.111,-0.128
4.112,-0.125
4.113,-0.125
4.114,-0.125
4.115,-0.125
4.116,-0.127
4.117,-0.125
4.118,-0.129
4.119,-0.131
4.12,-0.136
4.121,-0.134
4.122,-0.134
4.123,-0.134
4.124,-0.136
4.125,-0.137
4.126,-0.133
4.127,-0.128
4.128,-0.128
4.129,-0.131
4.13,-0.133
4.131,-0.137
4.132,-0.137
4.133,-0.141
4.134,-0.137
4.135,-0.134
4.136,-0.131
4.137,-0.128
4.138,-0.125
4.139,-0.125
4.14,-0.128
4.141,-0.128
4.142,-0.127
4.143,-0.125
4.144,-0.125
4.145,-0.125
4.146,-0.128
4.147,-0.131
4.148,-0.136
4.149,-0.137
4.15,-0.131
4.151,-0.131
4.152,-0.124
4.153,-0.119
4.154,-0.114
4.155,-0.113
4.156,-0.114
4.157,-0.113
4.158,-0.111
4.159,-0.113
4.16,-0.12
4.161,-0.122
4.162,-0.122
4.163,-0.122
4.164,-0.119
4.165,-0.116
4.166,-0.119
4.167,-0.122
4.168,-0.119
4.169,-0.119
4.17,-0.116
4.171,-0.113
4.172,-0.113
4.173,-0.106
4.174,-0.106
4.175,-0.106
4.176,-0.108
4.177,-0.106
4.178,-0.106
4.179,-0.106
4.18,-0.106
4.181,-0.106
4.182,-0.104
4.183,-0.106
4.184,-0.108
4.185,-0.106
4.186,-0.1
4.187,-0.094
4.188,-0.092
4.189,-0.094
4.19,-0.098
4.191,-0.097
4.192,-0.098
4.193,-0.097
4.194,-0.099
4.195,-0.097
4.196,-0.097
4.197,-0.1
4.198,-0.099
4.199,-0.097
4.2,-0.096
4.201,-0.091
4.202,-0.094
4.203,-0.094
4.204,-0.092
4.205,-0.094
4.206,-0.093
4.207,-0.091
4.208,-0.086
4.209,-0.088
4.21,-0.091
4.211,-0.094
4.212,-0.095
4.213,-0.1
4.214,-0.103
4.215,-0.103
4.216,-0.097
4.217,-0.094
4.218,-0.091
4.219,-0.088
4.22,-0.088
4.221,-0.088
4.222,-0.086
4.223,-0.081
4.224,-0.075
4.225,-0.075
4.226,-0.079
4.227,-0.081
4.228,-0.081
4.229,-0.081
4.23,-0.08
4.231,-0.075
4.232,-0.073
4.233,-0.075
4.234,-0.074
4.235,-0.072
4.236,-0.069
4.237,-0.069
4.238,-0.061
4.239,-0.059
4.24,-0.055
4.241,-0.053
4.242,-0.051
4.243,-0.05
4.244,-0.053
4.245,-0.053
4.246,-0.051
4.247,-0.053
4.248,-0.047
4.249,-0.041
4.25,-0.039
4.251,-0.037
4.252,-0.034
4.253,-0.034
4.254,-0.036
4.255,-0.034
4.256,-0.028
4.257,-0.022
4.258,-0.023
4.259,-0.022
4.26,-0.02
4.261,-0.022
4.262,-0.022
4.263,-0.022
4.264,-0.017
4.265,-0.016
4.266,-0.009
4.267,-0.006
4.268,-0.004
4.269,-0.003
4.27,0.001
4.271,0.003
4.272,0.009
4.273,0.009
4.274,0.006
4.275,0.006
4.276,0.008
4.277,0.006
4.278,0.009
4.279,0.009
4.28,0.016
4.281,0.019
4.282,0.022
4.283,0.025
4.284,0.026
4.285,0.028
4.286,0.031
4.287,0.031
4.288,0.03
4.289,0.028
4.29,0.025
4.291,0.025
4.292,0.028
4.293,0.028
4.294,0.027
4.295,0.025
4.296,0.034
4.297,0.041
4.298,0.039
4.299,0.037
4.3,0.033
4.301,0.034
4.302,0.034
4.303,0.034
4.304,0.034
4.305,0.034
4.306,0.039
4.307,0.044
4.308,0.041
4.309,0.037
4.31,0.033
4.311,0.031
4.312,0.033
4.313,0.031
4.314,0.031
4.315,0.031
4.316,0.034
4.317,0.037
4.318,0.041
4.319,0.037
4.32,0.037
4.321,0.037
4.322,0.037
4.323,0.037
4.324,0.039
4.325,0.037
4.326,0.041
4.327,0.041
4.328,0.044
4.329,0.047
4.33,0.047
4.331,0.047
4.332,0.046
4.333,0.047
4.334,0.047
4.335,0.047
4.336,0.046
4.337,0.044
4.338,0.044
4.339,0.044
4.34,0.046
4.341,0.047
4.342,0.047
4.343,0.047
4.344,0.048
4.345,0.053
4.346,0.057
4.347,0.056
4.348,0.055
4.349,0.053
4.35,0.051
4.351,0.053
4.352,0.056
4.353,0.056
4.354,0.056
4.355,0.059
4.356,0.056
4.357,0.056
4.358,0.061
4.359,0.059
4.36,0.056
4.361,0.056
4.362,0.057
4.363,0.059
4.364,0.055
4.365,0.053
4.366,0.049
4.367,0.047
4.368,0.045
4.369,0.047
4.37,0.044
4.371,0.044
4.372,0.044
4.373,0.041
4.374,0.034
4.375,0.031
4.376,0.028
4.377,0.025
4.378,0.021
4.379,0.016
4.38,0.016
4.381,0.016
4.382,0.012
4.383,0.012
4.384,0.011
4.385,0.009
4.386,0.011
4.387,0.009
4.388,0.006
4.389,0.003
4.39,-0.001
4.391,-0.009
4.392,-0.008
4.393,-0.009
4.394,-0.012
4.395,-0.016
4.396,-0.02
4.397,-0.025
4.398,-0.027
4.399,-0.028
4.4,-0.032
4.401,-0.034
4.402,-0.036
4.403,-0.034
4.404,-0.036
4.405,-0.034
4.406,-0.041
4.407,-0.044
4.408,-0.046
4.409,-0.047
4.41,-0.05
4.411,-0.056
4.412,-0.057
4.413,-0.059
4.414,-0.056
4.415,-0.056
4.416,-0.057
4.417,-0.059
4.418,-0.059
4.419,-0.063
4.42,-0.066
4.421,-0.066
4.422,-0.066
4.423,-0.066
4.424,-0.067
4.425,-0.069
4.426,-0.07
4.427,-0.072
4.428,-0.072
4.429,-0.069
4.43,-0.069
4.431,-0.072
4.432,-0.072
4.433,-0.072
4.434,-0.071
4.435,-0.072
4.436,-0.075
4.437,-0.078
4.438,-0.074
4.439,-0.075
4.44,-0.076
4.441,-0.078
4.442,-0.079
4.443,-0.081
4.444,-0.081
4.445,-0.081
4.446,-0.083
4.447,-0.084
4.448,-0.084
4.449,-0.088
4.45,-0.083
4.451,-0.084
4.452,-0.086
4.453,-0.084
4.454,-0.084
4.455,-0.084
4.456,-0.081
4.457,-0.081
4.458,-0.079
4.459,-0.081
4.46,-0.081
4.461,-0.081
4.462,-0.086
4.463,-0.084
4.464,-0.086
4.465,-0.091
4.466,-0.091
4.467,-0.094
4.468,-0.093
4.469,-0.091
4.47,-0.089
4.471,-0.088
4.472,-0.089
4.473,-0.088
4.474,-0.091
4.475,-0.091
4.476,-0.094
4.477,-0.097
4.478,-0.096
4.479,-0.094
4.48,-0.094
4.481,-0.097
4.482,-0.098
4.483,-0.1
4.484,-0.103
4.485,-0.103
4.486,-0.103
4.487,-0.103
4.488,-0.102
4.489,-0.1
4.49,-0.104
4.491,-0.103
4.492,-0.1
4.493,-0.1
4.494,-0.104
4.495,-0.103
4.496,-0.102
4.497,-0.103
4.498,-0.103
4.499,-0.103
4.5,-0.101
4.501,-0.103
4.502,-0.104
4.503,-0.103
4.504,-0.1
4.505,-0.094
4.506,-0.093
4.507,-0.084
4.508,-0.078
4.509,-0.075
4.51,-0.072
4.511,-0.069
4.512,-0.059
4.513,-0.05
4.514,-0.042
4.515,-0.034
4.516,-0.025
4.517,-0.022
4.518,-0.019
4.519,-0.016
4.52,-0.008
4.521,-0.003
4.522,0
4.523,0
4.524,-0.001
4.525,-0.003
4.526,-0.009
4.527,-0.009
4.528,-0.006
4.529,0
4.53,0.004
4.531,0.006
4.532,0.011
4.533,0.009
4.534,0.016
4.535,0.022
4.536,0.029
4.537,0.041
4.538,0.047
4.539,0.056
4.54,0.062
4.541,0.066
4.542,0.075
4.543,0.088
4.544,0.095
4.545,0.106
4.546,0.113
4.547,0.116
4.548,0.116
4.549,0.116
4.55,0.117
4.551,0.116
4.552,0.111
4.553,0.113
4.554,0.114
4.555,0.116
4.556,0.116
4.557,0.116
4.558,0.108
4.559,0.106
4.56,0.097
4.561,0.091
4.562,0.077
4.563,0.069
4.564,0.07
4.565,0.066
4.566,0.066
4.567,0.066
4.568,0.066
4.569,0.059
4.57,0.052
4.571,0.041
4.572,0.028
4.573,0.012
4.574,0.002
4.575,-0.009
4.576,-0.014
4.577,-0.019
4.578,-0.025
4.579,-0.031
4.58,-0.034
4.581,-0.047
4.582,-0.059
4.583,-0.072
4.584,-0.077
4.585,-0.084
4.586,-0.091
4.587,-0.094
4.588,-0.1
4.589,-0.106
4.59,-0.114
4.591,-0.122
4.592,-0.125
4.593,-0.131
4.594,-0.139
4.595,-0.144
4.596,-0.15
4.597,-0.156
4.598,-0.159
4.599,-0.162
4.6,-0.164
4.601,-0.166
4.602,-0.166
4.603,-0.169
4.604,-0.173
4.605,-0.175
4.606,-0.172
4.607,-0.175
4.608,-0.175
4.609,-0.178
4.61,-0.181
4.611,-0.181
4.612,-0.18
4.613,-0.181
4.614,-0.181
4.615,-0.181
4.616,-0.184
4.617,-0.191
4.618,-0.188
4.619,-0.188
4.62,-0.191
4.621,-0.188
4.622,-0.188
4.623,-0.188
4.624,-0.189
4.625,-0.191
4.626,-0.191
4.627,-0.191
4.628,-0.191
4.629,-0.191
4.63,-0.189
4.631,-0.188
4.632,-0.192
4.633,-0.191
4.634,-0.191
4.635,-0.191
4.636,-0.192
4.637,-0.191
4.638,-0.191
4.639,-0.191
4.64,-0.189
4.641,-0.191
4.642,-0.189
4.643,-0.188
4.644,-0.189
4.645,-0.188
4.646,-0.184
4.647,-0.184
4.648,-0.189
4.649,-0.188
4.65,-0.186
4.651,-0.184
4.652,-0.188
4.653,-0.184
4.654,-0.188
4.655,-0.194
4.656,-0.2
4.657,-0.206
4.658,-0.214
4.659,-0.222
4.66,-0.225
4.661,-0.222
4.662,-0.216
4.663,-0.203
4.664,-0.191
4.665,-0.175
4.666,-0.162
4.667,-0.144
4.668,-0.117
4.669,-0.075
4.67,-0.034
4.671,0.006
4.672,0.054
4.673,0.113
4.674,0.173
4.675,0.241
4.676,0.309
4.677,0.4
4.678,0.497
4.679,0.597
4.68,0.696
4.681,0.797
4.682,0.9
4.683,1
4.684,1.094
4.685,1.187
4.686,1.278
4.687,1.344
4.688,1.413
4.689,1.462
4.69,1.509
4.691,1.512
4.692,1.494
4.693,1.425
4.694,1.346
4.695,1.234
4.696,1.121
4.697,0.991
4.698,0.853
4.699,0.697
4.7,0.544
4.701,0.388
4.702,0.244
4.703,0.122
4.704,0.008
4.705,-0.072
4.706,-0.139
4.707,-0.172
4.708,-0.188
4.709,-0.178
4.71,-0.183
4.711,-0.172
4.712,-0.167
4.713,-0.172
4.714,-0.172
4.715,-0.169
4.716,-0.166
4.717,-0.159
4.718,-0.156
4.719,-0.15
4.72,-0.144
4.721,-0.144
4.722,-0.147
4.723,-0.144
4.724,-0.137
4.725,-0.134
4.726,-0.13
4.727,-0.125
4.728,-0.124
4.729,-0.125
4.73,-0.128
4.731,-0.134
4.732,-0.139
4.733,-0.144
4.734,-0.142
4.735,-0.144
4.736,-0.141
4.737,-0.141
4.738,-0.141
4.739,-0.141
4.74,-0.142
4.741,-0.144
4.742,-0.145
4.743,-0.147
4.744,-0.149
4.745,-0.147
4.746,-0.15
4.747,-0.147
4.748,-0.147
4.749,-0.147
4.75,-0.147
4.751,-0.147
4.752,-0.147
4.753,-0.144
4.754,-0.145
4.755,-0.147
4.756,-0.142
4.757,-0.141
4.758,-0.141
4.759,-0.141
4.76,-0.141
4.761,-0.141
4.762,-0.139
4.763,-0.141
4.764,-0.142
4.765,-0.141
4.766,-0.144
4.767,-0.141
4.768,-0.142
4.769,-0.141
4.77,-0.139
4.771,-0.137
4.772,-0.134
4.773,-0.131
4.774,-0.13
4.775,-0.131
4.776,-0.129
4.777,-0.131
4.778,-0.128
4.779,-0.125
4.78,-0.125
4.781,-0.125
4.782,-0.126
4.783,-0.125
4.784,-0.128
4.785,-0.128
4.786,-0.122
4.787,-0.122
4.788,-0.117
4.789,-0.116
4.79,-0.116
4.791,-0.116
4.792,-0.111
4.793,-0.109
4.794,-0.109
4.795,-0.109
4.796,-0.111
4.797,-0.109
4.798,-0.109
4.799,-0.109
4.8,-0.108
4.801,-0.109
4.802,-0.111
4.803,-0.109
4.804,-0.108
4.805,-0.109
4.806,-0.108
4.807,-0.109
4.808,-0.106
4.809,-0.109
4.81,-0.108
4.811,-0.103
4.812,-0.104
4.813,-0.106
4.814,-0.106
4.815,-0.106
4.816,-0.102
4.817,-0.103
4.818,-0.1
4.819,-0.094
4.82,-0.093
4.821,-0.091
4.822,-0.092
4.823,-0.091
4.824,-0.094
4.825,-0.094
4.826,-0.095
4.827,-0.094
4.828,-0.093
4.829,-0.094
4.83,-0.095
4.831,-0.094
4.832,-0.094
4.833,-0.094
4.834,-0.091
4.835,-0.088
4.836,-0.089
4.837,-0.091
4.838,-0.089
4.839,-0.088
4.84,-0.091
4.841,-0.091
4.842,-0.088
4.843,-0.088
4.844,-0.084
4.845,-0.081
4.846,-0.079
4.847,-0.078
4.848,-0.078
4.849,-0.078
4.85,-0.079
4.851,-0.078
4.852,-0.077
4.853,-0.072
4.854,-0.075
4.855,-0.072
4.856,-0.072
4.857,-0.069
4.858,-0.067
4.859,-0.069
4.86,-0.067
4.861,-0.066
4.862,-0.067
4.863,-0.066
4.864,-0.063
4.865,-0.059
4.866,-0.055
4.867,-0.05
4.868,-0.05
4.869,-0.05
4.87,-0.047
4.871,-0.044
4.872,-0.041
4.873,-0.041
4.874,-0.037
4.875,-0.034
4.876,-0.034
4.877,-0.031
4.878,-0.025
4.879,-0.019
4.88,-0.019
4.881,-0.016
4.882,-0.017
4.883,-0.016
4.884,-0.014
4.885,-0.012
4.886,-0.008
4.887,0.003
4.888,0.003
4.889,0.003
4.89,0.003
4.891,0.003
4.892,0.003
4.893,0.006
4.894,0.005
4.895,0.006
4.896,0.008
4.897,0.012
4.898,0.017
4.899,0.019
4.9,0.017
4.901,0.019
4.902,0.019
4.903,0.019
4.904,0.02
4.905,0.022
4.906,0.026
4.907,0.031
4.908,0.031
4.909,0.031
4.91,0.028
4.911,0.028
4.912,0.028
4.913,0.028
4.914,0.028
4.915,0.025
4.916,0.027
4.917,0.025
4.918,0.028
4.919,0.031
4.92,0.03
4.921,0.028
4.922,0.027
4.923,0.025
4.924,0.025
4.925,0.022
4.926,0.019
4.927,0.019
4.928,0.02
4.929,0.022
4.93,0.022
4.931,0.022
4.932,0.019
4.933,0.019
4.934,0.016
4.935,0.016
4.936,0.019
4.937,0.022
4.938,0.022
4.939,0.025
4.94,0.026
4.941,0.031
4.942,0.03
4.943,0.028
4.944,0.027
4.945,0.025
4.946,0.026
4.947,0.028
4.948,0.03
4.949,0.028
4.95,0.028
4.951,0.028
4.952,0.027
4.953,0.025
4.954,0.026
4.955,0.031
4.956,0.033
4.957,0.031
4.958,0.031
4.959,0.031
4.96,0.034
4.961,0.037
4.962,0.037
4.963,0.041
4.964,0.041
4.965,0.037
4.966,0.034
4.967,0.034
4.968,0.034
4.969,0.034
4.97,0.039
4.971,0.037
4.972,0.037
4.973,0.041
4.974,0.037
4.975,0.034
4.976,0.033
4.977,0.031
4.978,0.032
4.979,0.031
4.98,0.032
4.981,0.031
4.982,0.031
4.983,0.028
4.984,0.028
4.985,0.025
4.986,0.024
4.987,0.022
4.988,0.019
4.989,0.016
4.99,0.019
4.991,0.019
4.992,0.014
4.993,0.009
4.994,0.008
4.995,0.006
4.996,0.003
4.997,0
4.998,0.003
4.999,0.003
5,-0.004
5.001,-0.009
5.002,-0.016
5.003,-0.022
5.004,-0.024
5.005,-0.025
5.006,-0.032
5.007,-0.031
5.008,-0.03
5.009,-0.031
5.01,-0.034
5.011,-0.037
5.012,-0.039
5.013,-0.041
5.014,-0.044
5.015,-0.047
5.016,-0.046
5.017,-0.047
5.018,-0.046
5.019,-0.047
5.02,-0.047
5.021,-0.05
5.022,-0.05
5.023,-0.053
5.024,-0.057
5.025,-0.059
5.026,-0.059
5.027,-0.056
5.028,-0.055
5.029,-0.053
5.03,-0.056
5.031,-0.056
5.032,-0.056
5.033,-0.056
5.034,-0.061
5.035,-0.066
5.036,-0.067
5.037,-0.069
5.038,-0.069
5.039,-0.069
5.04,-0.068
5.041,-0.066
5.042,-0.069
5.043,-0.075
5.044,-0.072
5.045,-0.069
5.046,-0.072
5.047,-0.072
5.048,-0.072
5.049,-0.072
5.05,-0.075
5.051,-0.075
5.052,-0.075
5.053,-0.072
5.054,-0.074
5.055,-0.072
5.056,-0.075
5.057,-0.078
5.058,-0.077
5.059,-0.075
5.06,-0.075
5.061,-0.075
5.062,-0.075
5.063,-0.075
5.064,-0.079
5.065,-0.078
5.066,-0.077
5.067,-0.072
5.068,-0.069
5.069,-0.069
5.07,-0.071
5.071,-0.072
5.072,-0.073
5.073,-0.072
5.074,-0.073
5.075,-0.078
5.076,-0.077
5.077,-0.075
5.078,-0.077
5.079,-0.075
5.08,-0.074
5.081,-0.075
5.082,-0.073
5.083,-0.075
5.084,-0.075
5.085,-0.075
5.086,-0.078
5.087,-0.075
5.088,-0.072
5.089,-0.072
5.09,-0.073
5.091,-0.078
5.092,-0.079
5.093,-0.081
5.094,-0.08
5.095,-0.078
5.096,-0.083
5.097,-0.084
5.098,-0.088
5.099,-0.088
5.1,-0.088
5.101,-0.088
5.102,-0.089
5.103,-0.091
5.104,-0.089
5.105,-0.091
5.106,-0.091
5.107,-0.091
5.108,-0.095
5.109,-0.097
5.11,-0.097
5.111,-0.097
5.112,-0.096
5.113,-0.094
5.114,-0.098
5.115,-0.097
5.116,-0.097
5.117,-0.1
5.118,-0.104
5.119,-0.103
5.12,-0.103
5.121,-0.106
5.122,-0.106
5.123,-0.106
5.124,-0.102
5.125,-0.1
5.126,-0.099
5.127,-0.094
5.128,-0.093
5.129,-0.088
5.13,-0.092
5.131,-0.091
5.132,-0.081
5.133,-0.075
5.134,-0.066
5.135,-0.056
5.136,-0.051
5.137,-0.047
5.138,-0.037
5.139,-0.028
5.14,-0.02
5.141,-0.019
5.142,-0.016
5.143,-0.012
5.144,-0.005
5.145,0
5.146,0.008
5.147,0.012
5.148,0.012
5.149,0.012
5.15,0.006
5.151,0.006
5.152,0.005
5.153,0.006
5.154,0.012
5.155,0.016
5.156,0.022
5.157,0.022
5.158,0.028
5.159,0.034
5.16,0.041
5.161,0.05
5.162,0.059
5.163,0.072
5.164,0.081
5.165,0.088
5.166,0.093
5.167,0.1
5.168,0.105
5.169,0.113
5.17,0.122
5.171,0.128
5.172,0.127
5.173,0.125
5.174,0.124
5.175,0.119
5.176,0.116
5.177,0.119
5.178,0.12
5.179,0.122
5.18,0.122
5.181,0.122
5.182,0.113
5.183,0.109
5.184,0.099
5.185,0.091
5.186,0.08
5.187,0.075
5.188,0.074
5.189,0.066
5.19,0.064
5.191,0.062
5.192,0.059
5.193,0.05
5.194,0.045
5.195,0.037
5.196,0.028
5.197,0.016
5.198,0.011
5.199,0.006
5.2,-0.003
5.201,-0.012
5.202,-0.022
5.203,-0.031
5.204,-0.033
5.205,-0.044
5.206,-0.053
5.207,-0.063
5.208,-0.07
5.209,-0.081
5.21,-0.088
5.211,-0.091
5.212,-0.097
5.213,-0.103
5.214,-0.106
5.215,-0.109
5.216,-0.116
5.217,-0.125
5.218,-0.133
5.219,-0.137
5.22,-0.139
5.221,-0.141
5.222,-0.145
5.223,-0.15
5.224,-0.154
5.225,-0.159
5.226,-0.159
5.227,-0.162
5.228,-0.166
5.229,-0.166
5.23,-0.161
5.231,-0.162
5.232,-0.159
5.233,-0.159
5.234,-0.162
5.235,-0.162
5.236,-0.162
5.237,-0.166
5.238,-0.166
5.239,-0.166
5.24,-0.167
5.241,-0.172
5.242,-0.171
5.243,-0.172
5.244,-0.175
5.245,-0.172
5.246,-0.172
5.247,-0.172
5.248,-0.172
5.249,-0.172
5.25,-0.173
5.251,-0.175
5.252,-0.175
5.253,-0.175
5.254,-0.174
5.255,-0.172
5.256,-0.174
5.257,-0.169
5.258,-0.17
5.259,-0.172
5.26,-0.172
5.261,-0.169
5.262,-0.168
5.263,-0.166
5.264,-0.162
5.265,-0.162
5.266,-0.162
5.267,-0.162
5.268,-0.166
5.269,-0.166
5.27,-0.161
5.271,-0.159
5.272,-0.164
5.273,-0.162
5.274,-0.161
5.275,-0.159
5.276,-0.164
5.277,-0.162
5.278,-0.161
5.279,-0.162
5.28,-0.169
5.281,-0.175
5.282,-0.181
5.283,-0.188
5.284,-0.195
5.285,-0.197
5.286,-0.189
5.287,-0.175
5.288,-0.161
5.289,-0.144
5.29,-0.128
5.291,-0.106
5.292,-0.083
5.293,-0.044
5.294,-0.003
5.295,0.037
5.296,0.082
5.297,0.137
5.298,0.197
5.299,0.262
5.3,0.331
5.301,0.422
5.302,0.519
5.303,0.619
5.304,0.722
5.305,0.828
5.306,0.934
5.307,1.038
5.308,1.139
5.309,1.241
5.31,1.333
5.311,1.4
5.312,1.467
5.313,1.516
5.314,1.553
5.315,1.547
5.316,1.528
5.317,1.459
5.318,1.384
5.319,1.278
5.32,1.166
5.321,1.038
5.322,0.906
5.323,0.756
5.324,0.609
5.325,0.459
5.326,0.312
5.327,0.187
5.328,0.072
5.329,-0.009
5.33,-0.075
5.331,-0.106
5.332,-0.128
5.333,-0.125
5.334,-0.134
5.335,-0.128
5.336,-0.123
5.337,-0.128
5.338,-0.131
5.339,-0.131
5.34,-0.13
5.341,-0.125
5.342,-0.122
5.343,-0.116
5.344,-0.109
5.345,-0.109
5.346,-0.108
5.347,-0.1
5.348,-0.096
5.349,-0.094
5.35,-0.092
5.351,-0.091
5.352,-0.092
5.353,-0.097
5.354,-0.1
5.355,-0.106
5.356,-0.108
5.357,-0.109
5.358,-0.109
5.359,-0.113
5.36,-0.109
5.361,-0.109
5.362,-0.109
5.363,-0.109
5.364,-0.109
5.365,-0.109
5.366,-0.109
5.367,-0.109
5.368,-0.109
5.369,-0.106
5.37,-0.111
5.371,-0.109
5.372,-0.109
5.373,-0.109
5.374,-0.109
5.375,-0.109
5.376,-0.108
5.377,-0.103
5.378,-0.103
5.379,-0.103
5.38,-0.101
5.381,-0.103
5.382,-0.103
5.383,-0.103
5.384,-0.103
5.385,-0.103
5.386,-0.103
5.387,-0.106
5.388,-0.108
5.389,-0.106
5.39,-0.111
5.391,-0.109
5.392,-0.105
5.393,-0.097
5.394,-0.1
5.395,-0.103
5.396,-0.103
5.397,-0.103
5.398,-0.103
5.399,-0.106
5.4,-0.099
5.401,-0.094
5.402,-0.093
5.403,-0.091
5.404,-0.088
5.405,-0.084
5.406,-0.086
5.407,-0.084
5.408,-0.089
5.409,-0.091
5.41,-0.089
5.411,-0.094
5.412,-0.091
5.413,-0.091
5.414,-0.088
5.415,-0.084
5.416,-0.08
5.417,-0.078
5.418,-0.079
5.419,-0.081
5.42,-0.08
5.421,-0.075
5.422,-0.076
5.423,-0.078
5.424,-0.076
5.425,-0.078
5.426,-0.077
5.427,-0.072
5.428,-0.071
5.429,-0.072
5.43,-0.07
5.431,-0.072
5.432,-0.069
5.433,-0.072
5.434,-0.073
5.435,-0.072
5.436,-0.072
5.437,-0.072
5.438,-0.072
5.439,-0.072
5.44,-0.069
5.441,-0.072
5.442,-0.073
5.443,-0.072
5.444,-0.072
5.445,-0.072
5.446,-0.073
5.447,-0.072
5.448,-0.074
5.449,-0.072
5.45,-0.073
5.451,-0.072
5.452,-0.069
5.453,-0.069
5.454,-0.07
5.455,-0.069
5.456,-0.069
5.457,-0.069
5.458,-0.068
5.459,-0.066
5.46,-0.067
5.461,-0.069
5.462,-0.067
5.463,-0.066
5.464,-0.068
5.465,-0.066
5.466,-0.064
5.467,-0.066
5.468,-0.066
5.469,-0.066
5.47,-0.066
5.471,-0.066
5.472,-0.066
5.473,-0.066
5.474,-0.063
5.475,-0.056
5.476,-0.056
5.477,-0.053
5.478,-0.057
5.479,-0.056
5.48,-0.056
5.481,-0.053
5.482,-0.051
5.483,-0.053
5.484,-0.051
5.485,-0.05
5.486,-0.049
5.487,-0.044
5.488,-0.041
5.489,-0.037
5.49,-0.037
5.491,-0.037
5.492,-0.034
5.493,-0.031
5.494,-0.027
5.495,-0.022
5.496,-0.02
5.497,-0.022
5.498,-0.019
5.499,-0.016
5.5,-0.016
5.501,-0.012
5.502,-0.006
5.503,0
5.504,-0.001
5.505,0
5.506,0
5.507,0.003
5.508,0.006
5.509,0.009
5.51,0.009
5.511,0.016
5.512,0.017
5.513,0.019
5.514,0.021
5.515,0.022
5.516,0.022
5.517,0.025
5.518,0.025
5.519,0.028
5.52,0.027
5.521,0.028
5.522,0.031
5.523,0.031
5.524,0.034
5.525,0.041
5.526,0.039
5.527,0.037
5.528,0.034
5.529,0.031
5.53,0.031
5.531,0.031
5.532,0.037
5.533,0.044
5.534,0.044
5.535,0.047
5.536,0.047
5.537,0.047
5.538,0.047
5.539,0.044
5.54,0.047
5.541,0.047
5.542,0.046
5.543,0.044
5.544,0.045
5.545,0.047
5.546,0.047
5.547,0.047
5.548,0.047
5.549,0.044
5.55,0.047
5.551,0.053
5.552,0.054
5.553,0.056
5.554,0.056
5.555,0.056
5.556,0.053
5.557,0.053
5.558,0.05
5.559,0.05
5.56,0.05
5.561,0.05
5.562,0.049
5.563,0.05
5.564,0.049
5.565,0.05
5.566,0.05
5.567,0.05
5.568,0.054
5.569,0.059
5.57,0.058
5.571,0.056
5.572,0.058
5.573,0.056
5.574,0.059
5.575,0.062
5.576,0.062
5.577,0.062
5.578,0.061
5.579,0.062
5.58,0.066
5.581,0.066
5.582,0.069
5.583,0.072
5.584,0.076
5.585,0.081
5.586,0.074
5.587,0.069
5.588,0.07
5.589,0.069
5.59,0.066
5.591,0.066
5.592,0.066
5.593,0.066
5.594,0.07
5.595,0.069
5.596,0.068
5.597,0.069
5.598,0.072
5.599,0.075
5.6,0.074
5.601,0.072
5.602,0.072
5.603,0.069
5.604,0.068
5.605,0.062
5.606,0.062
5.607,0.059
5.608,0.061
5.609,0.059
5.61,0.056
5.611,0.053
5.612,0.051
5.613,0.05
5.614,0.051
5.615,0.05
5.616,0.048
5.617,0.047
5.618,0.037
5.619,0.028
5.62,0.025
5.621,0.022
5.622,0.025
5.623,0.025
5.624,0.023
5.625,0.025
5.626,0.022
5.627,0.019
5.628,0.016
5.629,0.012
5.63,0.005
5.631,0.006
5.632,0.008
5.633,0.006
5.634,0.003
5.635,0
5.636,-0.004
5.637,-0.009
5.638,-0.012
5.639,-0.016
5.64,-0.012
5.641,-0.012
5.642,-0.014
5.643,-0.019
5.644,-0.02
5.645,-0.025
5.646,-0.021
5.647,-0.019
5.648,-0.021
5.649,-0.019
5.65,-0.025
5.651,-0.028
5.652,-0.031
5.653,-0.034
5.654,-0.036
5.655,-0.034
5.656,-0.034
5.657,-0.034
5.658,-0.034
5.659,-0.034
5.66,-0.036
5.661,-0.037
5.662,-0.037
5.663,-0.037
5.664,-0.037
5.665,-0.037
5.666,-0.037
5.667,-0.041
5.668,-0.042
5.669,-0.044
5.67,-0.046
5.671,-0.044
5.672,-0.039
5.673,-0.034
5.674,-0.037
5.675,-0.037
5.676,-0.042
5.677,-0.044
5.678,-0.047
5.679,-0.047
5.68,-0.047
5.681,-0.047
5.682,-0.047
5.683,-0.047
5.684,-0.047
5.685,-0.047
5.686,-0.048
5.687,-0.05
5.688,-0.053
5.689,-0.05
5.69,-0.053
5.691,-0.053
5.692,-0.05
5.693,-0.05
5.694,-0.052
5.695,-0.053
5.696,-0.054
5.697,-0.053
5.698,-0.052
5.699,-0.053
5.7,-0.052
5.701,-0.05
5.702,-0.053
5.703,-0.05
5.704,-0.053
5.705,-0.059
5.706,-0.058
5.707,-0.056
5.708,-0.055
5.709,-0.056
5.71,-0.054
5.711,-0.056
5.712,-0.055
5.713,-0.053
5.714,-0.059
5.715,-0.059
5.716,-0.059
5.717,-0.063
5.718,-0.063
5.719,-0.066
5.72,-0.067
5.721,-0.069
5.722,-0.068
5.723,-0.066
5.724,-0.069
5.725,-0.069
5.726,-0.072
5.727,-0.072
5.728,-0.075
5.729,-0.078
5.73,-0.078
5.731,-0.078
5.732,-0.075
5.733,-0.075
5.734,-0.072
5.735,-0.069
5.736,-0.072
5.737,-0.072
5.738,-0.073
5.739,-0.075
5.74,-0.076
5.741,-0.078
5.742,-0.083
5.743,-0.081
5.744,-0.08
5.745,-0.081
5.746,-0.086
5.747,-0.084
5.748,-0.083
5.749,-0.084
5.75,-0.083
5.751,-0.081
5.752,-0.078
5.753,-0.078
5.754,-0.081
5.755,-0.081
5.756,-0.08
5.757,-0.075
5.758,-0.074
5.759,-0.066
5.76,-0.059
5.761,-0.056
5.762,-0.049
5.763,-0.041
5.764,-0.034
5.765,-0.028
5.766,-0.017
5.767,-0.006
5.768,0.003
5.769,0.006
5.77,0.006
5.771,0.006
5.772,0.011
5.773,0.012
5.774,0.017
5.775,0.019
5.776,0.02
5.777,0.022
5.778,0.017
5.779,0.019
5.78,0.019
5.781,0.022
5.782,0.026
5.783,0.028
5.784,0.036
5.785,0.037
5.786,0.045
5.787,0.053
5.788,0.061
5.789,0.072
5.79,0.077
5.791,0.084
5.792,0.097
5.793,0.106
5.794,0.111
5.795,0.119
5.796,0.122
5.797,0.128
5.798,0.13
5.799,0.128
5.8,0.124
5.801,0.119
5.802,0.122
5.803,0.122
5.804,0.119
5.805,0.122
5.806,0.123
5.807,0.125
5.808,0.125
5.809,0.125
5.81,0.113
5.811,0.106
5.812,0.094
5.813,0.084
5.814,0.075
5.815,0.072
5.816,0.073
5.817,0.069
5.818,0.069
5.819,0.069
5.82,0.064
5.821,0.053
5.822,0.048
5.823,0.041
5.824,0.03
5.825,0.016
5.826,0.008
5.827,0
5.828,-0.005
5.829,-0.009
5.83,-0.019
5.831,-0.028
5.832,-0.032
5.833,-0.047
5.834,-0.055
5.835,-0.063
5.836,-0.068
5.837,-0.075
5.838,-0.088
5.839,-0.097
5.84,-0.1
5.841,-0.103
5.842,-0.109
5.843,-0.116
5.844,-0.12
5.845,-0.128
5.846,-0.133
5.847,-0.134
5.848,-0.142
5.849,-0.15
5.85,-0.153
5.851,-0.156
5.852,-0.159
5.853,-0.162
5.854,-0.161
5.855,-0.162
5.856,-0.166
5.857,-0.166
5.858,-0.162
5.859,-0.166
5.86,-0.162
5.861,-0.162
5.862,-0.166
5.863,-0.166
5.864,-0.164
5.865,-0.166
5.866,-0.167
5.867,-0.169
5.868,-0.17
5.869,-0.175
5.87,-0.175
5.871,-0.178
5.872,-0.18
5.873,-0.175
5.874,-0.176
5.875,-0.178
5.876,-0.178
5.877,-0.178
5.878,-0.174
5.879,-0.169
5.88,-0.169
5.881,-0.169
5.882,-0.169
5.883,-0.169
5.884,-0.175
5.885,-0.175
5.886,-0.175
5.887,-0.175
5.888,-0.175
5.889,-0.172
5.89,-0.172
5.891,-0.172
5.892,-0.169
5.893,-0.169
5.894,-0.168
5.895,-0.166
5.896,-0.169
5.897,-0.169
5.898,-0.166
5.899,-0.166
5.9,-0.169
5.901,-0.166
5.902,-0.167
5.903,-0.169
5.904,-0.173
5.905,-0.172
5.906,-0.174
5.907,-0.178
5.908,-0.184
5.909,-0.191
5.91,-0.193
5.911,-0.194
5.912,-0.198
5.913,-0.197
5.914,-0.188
5.915,-0.172
5.916,-0.162
5.917,-0.15
5.918,-0.134
5.919,-0.113
5.92,-0.088
5.921,-0.047
5.922,-0.005
5.923,0.037
5.924,0.082
5.925,0.137
5.926,0.206
5.927,0.281
5.928,0.354
5.929,0.45
5.93,0.548
5.931,0.65
5.932,0.756
5.933,0.866
5.934,0.97
5.935,1.072
5.936,1.169
5.937,1.266
5.938,1.35
5.939,1.409
5.94,1.467
5.941,1.506
5.942,1.531
5.943,1.512
5.944,1.486
5.945,1.409
5.946,1.327
5.947,1.212
5.948,1.106
5.949,0.984
5.95,0.85
5.951,0.697
5.952,0.551
5.953,0.403
5.954,0.264
5.955,0.147
5.956,0.045
5.957,-0.022
5.958,-0.078
5.959,-0.1
5.96,-0.119
5.961,-0.113
5.962,-0.125
5.963,-0.122
5.964,-0.122
5.965,-0.131
5.966,-0.134
5.967,-0.134
5.968,-0.134
5.969,-0.131
5.97,-0.133
5.971,-0.131
5.972,-0.125
5.973,-0.125
5.974,-0.122
5.975,-0.113
5.976,-0.109
5.977,-0.109
5.978,-0.109
5.979,-0.109
5.98,-0.111
5.981,-0.116
5.982,-0.119
5.983,-0.125
5.984,-0.129
5.985,-0.134
5.986,-0.134
5.987,-0.137
5.988,-0.134
5.989,-0.134
5.99,-0.134
5.991,-0.134
5.992,-0.134
5.993,-0.134
5.994,-0.134
5.995,-0.134
5.996,-0.136
5.997,-0.134
5.998,-0.139
5.999,-0.137
6,-0.137
6.001,-0.137
6.002,-0.137
6.003,-0.137
6.004,-0.139
6.005,-0.137
6.006,-0.137
6.007,-0.137
6.008,-0.134
6.009,-0.134
6.01,-0.133
6.011,-0.131
6.012,-0.131
6.013,-0.131
6.014,-0.13
6.015,-0.131
6.016,-0.13
6.017,-0.125
6.018,-0.128
6.019,-0.125
6.02,-0.128
6.021,-0.128
6.022,-0.128
6.023,-0.128
6.024,-0.126
6.025,-0.125
6.026,-0.124
6.027,-0.125
6.028,-0.123
6.029,-0.125
6.03,-0.125
6.031,-0.125
6.032,-0.119
6.033,-0.113
6.034,-0.114
6.035,-0.113
6.036,-0.116
6.037,-0.116
6.038,-0.113
6.039,-0.116
6.04,-0.114
6.041,-0.116
6.042,-0.117
6.043,-0.119
6.044,-0.114
6.045,-0.113
6.046,-0.111
6.047,-0.109
6.048,-0.111
6.049,-0.109
6.05,-0.108
6.051,-0.106
6.052,-0.103
6.053,-0.103
6.054,-0.104
6.055,-0.103
6.056,-0.102
6.057,-0.103
6.058,-0.099
6.059,-0.097
6.06,-0.094
6.061,-0.097
6.062,-0.097
6.063,-0.094
6.064,-0.095
6.065,-0.097
6.066,-0.098
6.067,-0.1
6.068,-0.097
6.069,-0.1
6.07,-0.099
6.071,-0.094
6.072,-0.094
6.073,-0.094
6.074,-0.094
6.075,-0.091
6.076,-0.097
6.077,-0.1
6.078,-0.099
6.079,-0.094
6.08,-0.093
6.081,-0.094
6.082,-0.095
6.083,-0.094
6.084,-0.094
6.085,-0.094
6.086,-0.094
6.087,-0.094
6.088,-0.094
6.089,-0.094
6.09,-0.092
6.091,-0.091
6.092,-0.093
6.093,-0.091
6.094,-0.089
6.095,-0.091
6.096,-0.089
6.097,-0.088
6.098,-0.084
6.099,-0.081
6.1,-0.08
6.101,-0.078
6.102,-0.079
6.103,-0.078
6.104,-0.077
6.105,-0.072
6.106,-0.075
6.107,-0.072
6.108,-0.073
6.109,-0.072
6.11,-0.069
6.111,-0.069
6.112,-0.067
6.113,-0.066
6.114,-0.064
6.115,-0.059
6.116,-0.056
6.117,-0.053
6.118,-0.049
6.119,-0.044
6.12,-0.044
6.121,-0.044
6.122,-0.044
6.123,-0.044
6.124,-0.039
6.125,-0.037
6.126,-0.033
6.127,-0.028
6.128,-0.027
6.129,-0.022
6.13,-0.022
6.131,-0.022
6.132,-0.023
6.133,-0.022
6.134,-0.022
6.135,-0.019
6.136,-0.017
6.137,-0.016
6.138,-0.014
6.139,-0.006
6.14,-0.005
6.141,-0.003
6.142,-0.001
6.143,0
6.144,-0.001
6.145,0
6.146,0.001
6.147,0.006
6.148,0.005
6.149,0.006
6.15,0.011
6.151,0.012
6.152,0.011
6.153,0.012
6.154,0.012
6.155,0.012
6.156,0.012
6.157,0.012
6.158,0.014
6.159,0.016
6.16,0.019
6.161,0.022
6.162,0.021
6.163,0.022
6.164,0.022
6.165,0.022
6.166,0.023
6.167,0.022
6.168,0.024
6.169,0.022
6.17,0.022
6.171,0.022
6.172,0.017
6.173,0.012
6.174,0.012
6.175,0.012
6.176,0.016
6.177,0.016
6.178,0.016
6.179,0.019
6.18,0.019
6.181,0.019
6.182,0.019
6.183,0.019
6.184,0.02
6.185,0.025
6.186,0.025
6.187,0.028
6.188,0.028
6.189,0.028
6.19,0.025
6.191,0.025
6.192,0.024
6.193,0.025
6.194,0.025
6.195,0.025
6.196,0.025
6.197,0.025
6.198,0.026
6.199,0.028
6.2,0.032
6.201,0.034
6.202,0.034
6.203,0.034
6.204,0.034
6.205,0.034
6.206,0.033
6.207,0.034
6.208,0.037
6.209,0.037
6.21,0.037
6.211,0.037
6.212,0.041
6.213,0.044
6.214,0.041
6.215,0.041
6.216,0.042
6.217,0.041
6.218,0.037
6.219,0.037
6.22,0.039
6.221,0.041
6.222,0.047
6.223,0.047
6.224,0.046
6.225,0.047
6.226,0.045
6.227,0.044
6.228,0.041
6.229,0.037
6.23,0.037
6.231,0.034
6.232,0.036
6.233,0.034
6.234,0.036
6.235,0.034
6.236,0.034
6.237,0.031
6.238,0.031
6.239,0.031
6.24,0.028
6.241,0.025
6.242,0.022
6.243,0.016
6.244,0.012
6.245,0.009
6.246,0.009
6.247,0.009
6.248,0.003
6.249,-0.003
6.25,-0.003
6.251,-0.006
6.252,-0.011
6.253,-0.012
6.254,-0.012
6.255,-0.012
6.256,-0.019
6.257,-0.025
6.258,-0.032
6.259,-0.031
6.26,-0.031
6.261,-0.034
6.262,-0.034
6.263,-0.034
6.264,-0.039
6.265,-0.044
6.266,-0.046
6.267,-0.047
6.268,-0.046
6.269,-0.047
6.27,-0.047
6.271,-0.05
6.272,-0.05
6.273,-0.053
6.274,-0.05
6.275,-0.05
6.276,-0.052
6.277,-0.05
6.278,-0.056
6.279,-0.059
6.28,-0.059
6.281,-0.059
6.282,-0.063
6.283,-0.063
6.284,-0.061
6.285,-0.059
6.286,-0.063
6.287,-0.066
6.288,-0.067
6.289,-0.069
6.29,-0.069
6.291,-0.069
6.292,-0.069
6.293,-0.069
6.294,-0.068
6.295,-0.069
6.296,-0.072
6.297,-0.075
6.298,-0.077
6.299,-0.075
6.3,-0.074
6.301,-0.072
6.302,-0.075
6.303,-0.075
6.304,-0.076
6.305,-0.075
6.306,-0.077
6.307,-0.075
6.308,-0.074
6.309,-0.072
6.31,-0.073
6.311,-0.075
6.312,-0.075
6.313,-0.075
6.314,-0.075
6.315,-0.075
6.316,-0.083
6.317,-0.084
6.318,-0.086
6.319,-0.084
6.32,-0.078
6.321,-0.075
6.322,-0.079
6.323,-0.084
6.324,-0.086
6.325,-0.084
6.326,-0.083
6.327,-0.084
6.328,-0.084
6.329,-0.084
6.33,-0.089
6.331,-0.088
6.332,-0.089
6.333,-0.091
6.334,-0.091
6.335,-0.094
6.336,-0.091
6.337,-0.091
6.338,-0.091
6.339,-0.091
6.34,-0.094
6.341,-0.091
6.342,-0.089
6.343,-0.091
6.344,-0.091
6.345,-0.094
6.346,-0.094
6.347,-0.094
6.348,-0.097
6.349,-0.1
6.35,-0.103
6.351,-0.103
6.352,-0.106
6.353,-0.106
6.354,-0.106
6.355,-0.106
6.356,-0.106
6.357,-0.106
6.358,-0.105
6.359,-0.106
6.36,-0.108
6.361,-0.109
6.362,-0.113
6.363,-0.113
6.364,-0.113
6.365,-0.113
6.366,-0.113
6.367,-0.113
6.368,-0.117
6.369,-0.116
6.37,-0.116
6.371,-0.119
6.372,-0.122
6.373,-0.119
6.374,-0.116
6.375,-0.116
6.376,-0.116
6.377,-0.116
6.378,-0.116
6.379,-0.119
6.38,-0.117
6.381,-0.113
6.382,-0.111
6.383,-0.106
6.384,-0.111
6.385,-0.109
6.386,-0.1
6.387,-0.094
6.388,-0.089
6.389,-0.084
6.39,-0.081
6.391,-0.078
6.392,-0.069
6.393,-0.059
6.394,-0.046
6.395,-0.037
6.396,-0.033
6.397,-0.028
6.398,-0.022
6.399,-0.019
6.4,-0.009
6.401,-0.003
6.402,-0.002
6.403,0
6.404,-0.011
6.405,-0.016
6.406,-0.017
6.407,-0.016
6.408,-0.011
6.409,-0.009
6.41,-0.002
6.411,0
6.412,0.005
6.413,0.009
6.414,0.012
6.415,0.019
6.416,0.024
6.417,0.031
6.418,0.042
6.419,0.05
6.42,0.057
6.421,0.069
6.422,0.076
6.423,0.088
6.424,0.094
6.425,0.097
6.426,0.096
6.427,0.094
6.428,0.097
6.429,0.097
6.43,0.093
6.431,0.094
6.432,0.095
6.433,0.097
6.434,0.095
6.435,0.094
6.436,0.089
6.437,0.091
6.438,0.081
6.439,0.075
6.44,0.062
6.441,0.056
6.442,0.056
6.443,0.05
6.444,0.05
6.445,0.05
6.446,0.051
6.447,0.047
6.448,0.039
6.449,0.028
6.45,0.022
6.451,0.012
6.452,-0.001
6.453,-0.016
6.454,-0.021
6.455,-0.025
6.456,-0.036
6.457,-0.047
6.458,-0.05
6.459,-0.063
6.46,-0.072
6.461,-0.081
6.462,-0.086
6.463,-0.094
6.464,-0.1
6.465,-0.103
6.466,-0.106
6.467,-0.109
6.468,-0.117
6.469,-0.125
6.47,-0.131
6.471,-0.141
6.472,-0.146
6.473,-0.147
6.474,-0.15
6.475,-0.153
6.476,-0.159
6.477,-0.166
6.478,-0.17
6.479,-0.175
6.48,-0.175
6.481,-0.178
6.482,-0.181
6.483,-0.181
6.484,-0.178
6.485,-0.181
6.486,-0.178
6.487,-0.178
6.488,-0.181
6.489,-0.181
6.49,-0.181
6.491,-0.184
6.492,-0.183
6.493,-0.181
6.494,-0.18
6.495,-0.181
6.496,-0.18
6.497,-0.181
6.498,-0.186
6.499,-0.184
6.5,-0.184
6.501,-0.184
6.502,-0.184
6.503,-0.184
6.504,-0.184
6.505,-0.184
6.506,-0.184
6.507,-0.184
6.508,-0.186
6.509,-0.188
6.51,-0.191
6.511,-0.188
6.512,-0.183
6.513,-0.178
6.514,-0.179
6.515,-0.178
6.516,-0.179
6.517,-0.181
6.518,-0.179
6.519,-0.181
6.52,-0.181
6.521,-0.181
6.522,-0.184
6.523,-0.184
6.524,-0.182
6.525,-0.184
6.526,-0.188
6.527,-0.184
6.528,-0.181
6.529,-0.178
6.53,-0.18
6.531,-0.175
6.532,-0.175
6.533,-0.178
6.534,-0.186
6.535,-0.194
6.536,-0.199
6.537,-0.203
6.538,-0.209
6.539,-0.209
6.54,-0.209
6.541,-0.203
6.542,-0.194
6.543,-0.181
6.544,-0.172
6.545,-0.156
6.546,-0.15
6.547,-0.128
6.548,-0.094
6.549,-0.059
6.55,-0.025
6.551,0.019
6.552,0.064
6.553,0.116
6.554,0.174
6.555,0.253
6.556,0.337
6.557,0.425
6.558,0.522
6.559,0.622
6.56,0.729
6.561,0.834
6.562,0.945
6.563,1.056
6.564,1.17
6.565,1.259
6.566,1.344
6.567,1.409
6.568,1.492
6.569,1.531
6.57,1.554
6.571,1.528
6.572,1.481
6.573,1.403
6.574,1.314
6.575,1.209
6.576,1.1
6.577,0.972
6.578,0.821
6.579,0.666
6.58,0.505
6.581,0.366
6.582,0.216
6.583,0.1
6.584,-0.009
6.585,-0.084
6.586,-0.129
6.587,-0.15
6.588,-0.161
6.589,-0.156
6.59,-0.149
6.591,-0.15
6.592,-0.153
6.593,-0.153
6.594,-0.154
6.595,-0.153
6.596,-0.149
6.597,-0.141
6.598,-0.133
6.599,-0.131
6.6,-0.131
6.601,-0.125
6.602,-0.121
6.603,-0.119
6.604,-0.114
6.605,-0.109
6.606,-0.106
6.607,-0.106
6.608,-0.108
6.609,-0.113
6.61,-0.119
6.611,-0.125
6.612,-0.128
6.613,-0.134
6.614,-0.134
6.615,-0.137
6.616,-0.134
6.617,-0.131
6.618,-0.131
6.619,-0.131
6.62,-0.13
6.621,-0.128
6.622,-0.134
6.623,-0.137
6.624,-0.142
6.625,-0.141
6.626,-0.141
6.627,-0.141
6.628,-0.141
6.629,-0.141
6.63,-0.137
6.631,-0.131
6.632,-0.133
6.633,-0.134
6.634,-0.133
6.635,-0.134
6.636,-0.133
6.637,-0.131
6.638,-0.131
6.639,-0.131
6.64,-0.131
6.641,-0.134
6.642,-0.134
6.643,-0.131
6.644,-0.134
6.645,-0.131
6.646,-0.133
6.647,-0.131
6.648,-0.131
6.649,-0.131
6.65,-0.128
6.651,-0.125
6.652,-0.125
6.653,-0.128
6.654,-0.125
6.655,-0.125
6.656,-0.126
6.657,-0.128
6.658,-0.125
6.659,-0.122
6.66,-0.123
6.661,-0.122
6.662,-0.125
6.663,-0.125
6.664,-0.119
6.665,-0.119
6.666,-0.116
6.667,-0.116
6.668,-0.117
6.669,-0.119
6.67,-0.114
6.671,-0.113
6.672,-0.111
6.673,-0.109
6.674,-0.111
6.675,-0.109
6.676,-0.111
6.677,-0.113
6.678,-0.108
6.679,-0.106
6.68,-0.102
6.681,-0.094
6.682,-0.094
6.683,-0.097
6.684,-0.095
6.685,-0.097
6.686,-0.094
6.687,-0.097
6.688,-0.1
6.689,-0.1
6.69,-0.097
6.691,-0.094
6.692,-0.094
6.693,-0.094
6.694,-0.091
6.695,-0.094
6.696,-0.094
6.697,-0.091
6.698,-0.091
6.699,-0.091
6.7,-0.089
6.701,-0.084
6.702,-0.086
6.703,-0.084
6.704,-0.088
6.705,-0.088
6.706,-0.086
6.707,-0.088
6.708,-0.089
6.709,-0.088
6.71,-0.086
6.711,-0.084
6.712,-0.084
6.713,-0.084
6.714,-0.086
6.715,-0.088
6.716,-0.086
6.717,-0.084
6.718,-0.084
6.719,-0.081
6.72,-0.078
6.721,-0.078
6.722,-0.078
6.723,-0.078
6.724,-0.075
6.725,-0.072
6.726,-0.072
6.727,-0.072
6.728,-0.071
6.729,-0.066
6.73,-0.066
6.731,-0.063
6.732,-0.066
6.733,-0.063
6.734,-0.063
6.735,-0.059
6.736,-0.057
6.737,-0.059
6.738,-0.055
6.739,-0.05
6.74,-0.049
6.741,-0.044
6.742,-0.037
6.743,-0.031
6.744,-0.031
6.745,-0.031
6.746,-0.031
6.747,-0.031
6.748,-0.027
6.749,-0.022
6.75,-0.017
6.751,-0.016
6.752,-0.014
6.753,-0.012
6.754,-0.016
6.755,-0.016
6.756,-0.009
6.757,-0.003
6.758,-0.003
6.759,0
6.76,0
6.761,0.003
6.762,0.005
6.763,0.006
6.764,0.009
6.765,0.019
6.766,0.022
6.767,0.025
6.768,0.028
6.769,0.031
6.77,0.028
6.771,0.028
6.772,0.027
6.773,0.028
6.774,0.027
6.775,0.028
6.776,0.036
6.777,0.041
6.778,0.042
6.779,0.047
6.78,0.047
6.781,0.047
6.782,0.046
6.783,0.044
6.784,0.046
6.785,0.047
6.786,0.047
6.787,0.047
6.788,0.048
6.789,0.053
6.79,0.054
6.791,0.056
6.792,0.057
6.793,0.056
6.794,0.058
6.795,0.056
6.796,0.053
6.797,0.05
6.798,0.051
6.799,0.053
6.8,0.057
6.801,0.062
6.802,0.061
6.803,0.056
6.804,0.053
6.805,0.053
6.806,0.052
6.807,0.05
6.808,0.049
6.809,0.047
6.81,0.047
6.811,0.05
6.812,0.047
6.813,0.047
6.814,0.047
6.815,0.047
6.816,0.046
6.817,0.047
6.818,0.046
6.819,0.047
6.82,0.05
6.821,0.053
6.822,0.053
6.823,0.053
6.824,0.054
6.825,0.056
6.826,0.059
6.827,0.059
6.828,0.059
6.829,0.059
6.83,0.062
6.831,0.066
6.832,0.064
6.833,0.066
6.834,0.068
6.835,0.066
6.836,0.066
6.837,0.066
6.838,0.068
6.839,0.069
6.84,0.067
6.841,0.069
6.842,0.07
6.843,0.069
6.844,0.068
6.845,0.069
6.846,0.069
6.847,0.069
6.848,0.072
6.849,0.069
6.85,0.069
6.851,0.072
6.852,0.07
6.853,0.069
6.854,0.068
6.855,0.066
6.856,0.066
6.857,0.062
6.858,0.062
6.859,0.059
6.86,0.061
6.861,0.059
6.862,0.061
6.863,0.059
6.864,0.055
6.865,0.05
6.866,0.048
6.867,0.047
6.868,0.046
6.869,0.041
6.87,0.036
6.871,0.031
6.872,0.029
6.873,0.028
6.874,0.026
6.875,0.025
6.876,0.025
6.877,0.022
6.878,0.017
6.879,0.016
6.88,0.012
6.881,0.009
6.882,0.008
6.883,0.006
6.884,-0.003
6.885,-0.003
6.886,0
6.887,0
6.888,-0.003
6.889,-0.006
6.89,-0.012
6.891,-0.019
6.892,-0.022
6.893,-0.025
6.894,-0.025
6.895,-0.028
6.896,-0.027
6.897,-0.028
6.898,-0.027
6.899,-0.028
6.9,-0.027
6.901,-0.028
6.902,-0.03
6.903,-0.028
6.904,-0.036
6.905,-0.041
6.906,-0.042
6.907,-0.044
6.908,-0.048
6.909,-0.05
6.91,-0.05
6.911,-0.05
6.912,-0.052
6.913,-0.053
6.914,-0.054
6.915,-0.056
6.916,-0.057
6.917,-0.059
6.918,-0.061
6.919,-0.063
6.92,-0.063
6.921,-0.066
6.922,-0.061
6.923,-0.056
6.924,-0.059
6.925,-0.059
6.926,-0.061
6.927,-0.063
6.928,-0.067
6.929,-0.069
6.93,-0.07
6.931,-0.069
6.932,-0.072
6.933,-0.072
6.934,-0.073
6.935,-0.075
6.936,-0.072
6.937,-0.069
6.938,-0.068
6.939,-0.066
6.94,-0.064
6.941,-0.063
6.942,-0.066
6.943,-0.063
6.944,-0.066
6.945,-0.066
6.946,-0.066
6.947,-0.069
6.948,-0.072
6.949,-0.075
6.95,-0.074
6.951,-0.069
6.952,-0.068
6.953,-0.069
6.954,-0.073
6.955,-0.078
6.956,-0.077
6.957,-0.075
6.958,-0.075
6.959,-0.069
6.96,-0.069
6.961,-0.069
6.962,-0.069
6.963,-0.072
6.964,-0.069
6.965,-0.069
6.966,-0.073
6.967,-0.075
6.968,-0.079
6.969,-0.081
6.97,-0.078
6.971,-0.075
6.972,-0.075
6.973,-0.078
6.974,-0.081
6.975,-0.088
6.976,-0.088
6.977,-0.088
6.978,-0.088
6.979,-0.088
6.98,-0.088
6.981,-0.088
6.982,-0.091
6.983,-0.091
6.984,-0.083
6.985,-0.078
6.986,-0.078
6.987,-0.078
6.988,-0.079
6.989,-0.081
6.99,-0.081
6.991,-0.084
6.992,-0.084
6.993,-0.088
6.994,-0.089
6.995,-0.091
6.996,-0.088
6.997,-0.088
6.998,-0.084
6.999,-0.078
7,-0.083
7.001,-0.084
7.002,-0.088
7.003,-0.091
7.004,-0.089
7.005,-0.091
7.006,-0.089
7.007,-0.091
7.008,-0.086
7.009,-0.081
7.01,-0.079
7.011,-0.075
7.012,-0.069
7.013,-0.063
7.014,-0.057
7.015,-0.05
7.016,-0.044
7.017,-0.037
7.018,-0.028
7.019,-0.019
7.02,-0.017
7.021,-0.012
7.022,-0.011
7.023,-0.006
7.024,0
7.025,0.003
7.026,0.006
7.027,0.003
7.028,0.003
7.029,0.006
7.03,0.009
7.031,0.009
7.032,0.009
7.033,0.016
7.034,0.016
7.035,0.022
7.036,0.027
7.037,0.031
7.038,0.036
7.039,0.037
7.04,0.046
7.041,0.053
7.042,0.059
7.043,0.066
7.044,0.076
7.045,0.084
7.046,0.095
7.047,0.1
7.048,0.107
7.049,0.116
7.05,0.117
7.051,0.122
7.052,0.123
7.053,0.122
7.054,0.124
7.055,0.122
7.056,0.125
7.057,0.125
7.058,0.125
7.059,0.122
7.06,0.128
7.061,0.125
7.062,0.122
7.063,0.116
7.064,0.108
7.065,0.103
7.066,0.094
7.067,0.088
7.068,0.086
7.069,0.084
7.07,0.078
7.071,0.075
7.072,0.073
7.073,0.072
7.074,0.059
7.075,0.05
7.076,0.037
7.077,0.028
7.078,0.022
7.079,0.012
7.08,0.004
7.081,0.003
7.082,-0.008
7.083,-0.016
7.084,-0.022
7.085,-0.025
7.086,-0.041
7.087,-0.053
7.088,-0.063
7.089,-0.075
7.09,-0.081
7.091,-0.088
7.092,-0.094
7.093,-0.097
7.094,-0.102
7.095,-0.106
7.096,-0.106
7.097,-0.109
7.098,-0.116
7.099,-0.119
7.1,-0.122
7.101,-0.125
7.102,-0.134
7.103,-0.141
7.104,-0.144
7.105,-0.147
7.106,-0.148
7.107,-0.147
7.108,-0.149
7.109,-0.144
7.11,-0.142
7.111,-0.144
7.112,-0.144
7.113,-0.144
7.114,-0.147
7.115,-0.147
7.116,-0.147
7.117,-0.147
7.118,-0.149
7.119,-0.147
7.12,-0.154
7.121,-0.162
7.122,-0.158
7.123,-0.156
7.124,-0.155
7.125,-0.153
7.126,-0.153
7.127,-0.153
7.128,-0.153
7.129,-0.153
7.13,-0.153
7.131,-0.153
7.132,-0.152
7.133,-0.153
7.134,-0.153
7.135,-0.156
7.136,-0.157
7.137,-0.159
7.138,-0.156
7.139,-0.156
7.14,-0.156
7.141,-0.153
7.142,-0.152
7.143,-0.15
7.144,-0.149
7.145,-0.15
7.146,-0.151
7.147,-0.15
7.148,-0.149
7.149,-0.15
7.15,-0.147
7.151,-0.147
7.152,-0.146
7.153,-0.147
7.154,-0.142
7.155,-0.144
7.156,-0.147
7.157,-0.15
7.158,-0.155
7.159,-0.159
7.16,-0.17
7.161,-0.178
7.162,-0.184
7.163,-0.188
7.164,-0.189
7.165,-0.191
7.166,-0.178
7.167,-0.169
7.168,-0.161
7.169,-0.15
7.17,-0.126
7.171,-0.1
7.172,-0.066
7.173,-0.028
7.174,0.011
7.175,0.056
7.176,0.103
7.177,0.153
7.178,0.222
7.179,0.294
7.18,0.378
7.181,0.466
7.182,0.569
7.183,0.672
7.184,0.767
7.185,0.862
7.186,0.973
7.187,1.078
7.188,1.172
7.189,1.266
7.19,1.347
7.191,1.425
7.192,1.506
7.193,1.569
7.194,1.57
7.195,1.562
7.196,1.489
7.197,1.416
7.198,1.32
7.199,1.216
7.2,1.084
7.201,0.953
7.202,0.786
7.203,0.628
7.204,0.475
7.205,0.325
7.206,0.187
7.207,0.062
7.208,-0.032
7.209,-0.116
7.21,-0.141
7.211,-0.172
7.212,-0.166
7.213,-0.162
7.214,-0.159
7.215,-0.153
7.216,-0.151
7.217,-0.153
7.218,-0.147
7.219,-0.141
7.22,-0.13
7.221,-0.119
7.222,-0.114
7.223,-0.109
7.224,-0.104
7.225,-0.103
7.226,-0.104
7.227,-0.103
7.228,-0.096
7.229,-0.091
7.23,-0.093
7.231,-0.094
7.232,-0.099
7.233,-0.1
7.234,-0.1
7.235,-0.097
7.236,-0.101
7.237,-0.1
7.238,-0.1
7.239,-0.1
7.24,-0.099
7.241,-0.097
7.242,-0.097
7.243,-0.097
7.244,-0.097
7.245,-0.1
7.246,-0.1
7.247,-0.103
7.248,-0.101
7.249,-0.103
7.25,-0.103
7.251,-0.103
7.252,-0.104
7.253,-0.106
7.254,-0.104
7.255,-0.106
7.256,-0.106
7.257,-0.103
7.258,-0.103
7.259,-0.103
7.26,-0.099
7.261,-0.094
7.262,-0.094
7.263,-0.094
7.264,-0.097
7.265,-0.097
7.266,-0.093
7.267,-0.094
7.268,-0.092
7.269,-0.094
7.27,-0.092
7.271,-0.094
7.272,-0.094
7.273,-0.091
7.274,-0.088
7.275,-0.088
7.276,-0.091
7.277,-0.088
7.278,-0.088
7.279,-0.088
7.28,-0.089
7.281,-0.091
7.282,-0.091
7.283,-0.091
7.284,-0.088
7.285,-0.088
7.286,-0.083
7.287,-0.078
7.288,-0.083
7.289,-0.081
7.29,-0.081
7.291,-0.081
7.292,-0.078
7.293,-0.072
7.294,-0.072
7.295,-0.072
7.296,-0.072
7.297,-0.072
7.298,-0.069
7.299,-0.069
7.3,-0.07
7.301,-0.069
7.302,-0.068
7.303,-0.066
7.304,-0.064
7.305,-0.066
7.306,-0.07
7.307,-0.069
7.308,-0.069
7.309,-0.066
7.31,-0.069
7.311,-0.069
7.312,-0.061
7.313,-0.056
7.314,-0.056
7.315,-0.056
7.316,-0.056
7.317,-0.053
7.318,-0.057
7.319,-0.059
7.32,-0.055
7.321,-0.053
7.322,-0.05
7.323,-0.047
7.324,-0.041
7.325,-0.041
7.326,-0.044
7.327,-0.047
7.328,-0.044
7.329,-0.044
7.33,-0.048
7.331,-0.05
7.332,-0.05
7.333,-0.053
7.334,-0.053
7.335,-0.053
7.336,-0.052
7.337,-0.05
7.338,-0.046
7.339,-0.037
7.34,-0.036
7.341,-0.041
7.342,-0.044
7.343,-0.044
7.344,-0.045
7.345,-0.047
7.346,-0.046
7.347,-0.041
7.348,-0.036
7.349,-0.034
7.35,-0.034
7.351,-0.034
7.352,-0.031
7.353,-0.031
7.354,-0.027
7.355,-0.028
7.356,-0.025
7.357,-0.025
7.358,-0.023
7.359,-0.022
7.36,-0.023
7.361,-0.022
7.362,-0.014
7.363,-0.009
7.364,-0.005
7.365,0
7.366,0.002
7.367,0.003
7.368,0.006
7.369,0.006
7.37,0.003
7.371,0.003
7.372,0.011
7.373,0.019
7.374,0.017
7.375,0.019
7.376,0.021
7.377,0.019
7.378,0.021
7.379,0.022
7.38,0.024
7.381,0.022
7.382,0.024
7.383,0.022
7.384,0.028
7.385,0.034
7.386,0.039
7.387,0.041
7.388,0.046
7.389,0.044
7.39,0.044
7.391,0.047
7.392,0.053
7.393,0.056
7.394,0.059
7.395,0.059
7.396,0.062
7.397,0.062
7.398,0.062
7.399,0.062
7.4,0.062
7.401,0.062
7.402,0.066
7.403,0.066
7.404,0.066
7.405,0.066
7.406,0.069
7.407,0.075
7.408,0.074
7.409,0.069
7.41,0.068
7.411,0.066
7.412,0.073
7.413,0.078
7.414,0.078
7.415,0.078
7.416,0.074
7.417,0.075
7.418,0.078
7.419,0.081
7.42,0.081
7.421,0.081
7.422,0.08
7.423,0.078
7.424,0.079
7.425,0.081
7.426,0.077
7.427,0.075
7.428,0.079
7.429,0.081
7.43,0.081
7.431,0.081
7.432,0.078
7.433,0.075
7.434,0.079
7.435,0.078
7.436,0.078
7.437,0.078
7.438,0.077
7.439,0.075
7.44,0.077
7.441,0.075
7.442,0.078
7.443,0.078
7.444,0.078
7.445,0.078
7.446,0.079
7.447,0.081
7.448,0.081
7.449,0.084
7.45,0.084
7.451,0.084
7.452,0.084
7.453,0.084
7.454,0.086
7.455,0.088
7.456,0.094
7.457,0.1
7.458,0.103
7.459,0.106
7.46,0.103
7.461,0.103
7.462,0.103
7.463,0.097
7.464,0.097
7.465,0.097
7.466,0.094
7.467,0.094
7.468,0.096
7.469,0.094
7.47,0.094
7.471,0.097
7.472,0.091
7.473,0.088
7.474,0.091
7.475,0.088
7.476,0.088
7.477,0.091
7.478,0.091
7.479,0.091
7.48,0.089
7.481,0.091
7.482,0.086
7.483,0.084
7.484,0.081
7.485,0.081
7.486,0.078
7.487,0.078
7.488,0.079
7.489,0.078
7.49,0.075
7.491,0.075
7.492,0.075
7.493,0.075
7.494,0.075
7.495,0.075
7.496,0.068
7.497,0.059
7.498,0.052
7.499,0.047
7.5,0.047
7.501,0.047
7.502,0.046
7.503,0.041
7.504,0.036
7.505,0.031
7.506,0.031
7.507,0.028
7.508,0.031
7.509,0.031
7.51,0.031
7.511,0.031
7.512,0.024
7.513,0.016
7.514,0.012
7.515,0.009
7.516,0.005
7.517,0.003
7.518,0.001
7.519,0.003
7.52,0.001
7.521,0.003
7.522,0.001
7.523,0.003
7.524,-0.004
7.525,-0.012
7.526,-0.011
7.527,-0.012
7.528,-0.012
7.529,-0.012
7.53,-0.012
7.531,-0.016
7.532,-0.017
7.533,-0.019
7.534,-0.019
7.535,-0.022
7.536,-0.026
7.537,-0.028
7.538,-0.029
7.539,-0.031
7.54,-0.03
7.541,-0.028
7.542,-0.028
7.543,-0.028
7.544,-0.03
7.545,-0.028
7.546,-0.029
7.547,-0.034
7.548,-0.036
7.549,-0.037
7.55,-0.037
7.551,-0.041
7.552,-0.042
7.553,-0.044
7.554,-0.036
7.555,-0.034
7.556,-0.034
7.557,-0.034
7.558,-0.037
7.559,-0.041
7.56,-0.044
7.561,-0.047
7.562,-0.046
7.563,-0.044
7.564,-0.039
7.565,-0.037
7.566,-0.036
7.567,-0.041
7.568,-0.044
7.569,-0.044
7.57,-0.043
7.571,-0.044
7.572,-0.047
7.573,-0.047
7.574,-0.046
7.575,-0.047
7.576,-0.046
7.577,-0.044
7.578,-0.048
7.579,-0.047
7.58,-0.047
7.581,-0.047
7.582,-0.046
7.583,-0.047
7.584,-0.044
7.585,-0.044
7.586,-0.047
7.587,-0.047
7.588,-0.047
7.589,-0.044
7.59,-0.043
7.591,-0.041
7.592,-0.042
7.593,-0.047
7.594,-0.047
7.595,-0.05
7.596,-0.049
7.597,-0.047
7.598,-0.047
7.599,-0.047
7.6,-0.046
7.601,-0.044
7.602,-0.047
7.603,-0.047
7.604,-0.046
7.605,-0.047
7.606,-0.048
7.607,-0.05
7.608,-0.051
7.609,-0.053
7.61,-0.053
7.611,-0.056
7.612,-0.053
7.613,-0.053
7.614,-0.059
7.615,-0.066
7.616,-0.061
7.617,-0.059
7.618,-0.061
7.619,-0.059
7.62,-0.061
7.621,-0.059
7.622,-0.059
7.623,-0.059
7.624,-0.057
7.625,-0.059
7.626,-0.059
7.627,-0.063
7.628,-0.059
7.629,-0.056
7.63,-0.053
7.631,-0.047
7.632,-0.042
7.633,-0.037
7.634,-0.031
7.635,-0.022
7.636,-0.011
7.637,0
7.638,0.006
7.639,0.012
7.64,0.014
7.641,0.019
7.642,0.022
7.643,0.028
7.644,0.036
7.645,0.041
7.646,0.044
7.647,0.041
7.648,0.037
7.649,0.037
7.65,0.039
7.651,0.037
7.652,0.036
7.653,0.041
7.654,0.042
7.655,0.05
7.656,0.049
7.657,0.047
7.658,0.055
7.659,0.059
7.66,0.068
7.661,0.075
7.662,0.086
7.663,0.097
7.664,0.105
7.665,0.109
7.666,0.123
7.667,0.131
7.668,0.137
7.669,0.144
7.67,0.148
7.671,0.156
7.672,0.155
7.673,0.15
7.674,0.153
7.675,0.153
7.676,0.156
7.677,0.156
7.678,0.156
7.679,0.153
7.68,0.156
7.681,0.15
7.682,0.147
7.683,0.141
7.684,0.137
7.685,0.137
7.686,0.13
7.687,0.125
7.688,0.119
7.689,0.113
7.69,0.109
7.691,0.109
7.692,0.107
7.693,0.106
7.694,0.093
7.695,0.081
7.696,0.068
7.697,0.056
7.698,0.049
7.699,0.037
7.7,0.022
7.701,0.012
7.702,0.006
7.703,0.003
7.704,-0.006
7.705,-0.012
7.706,-0.025
7.707,-0.034
7.708,-0.037
7.709,-0.044
7.71,-0.05
7.711,-0.056
7.712,-0.064
7.713,-0.069
7.714,-0.072
7.715,-0.075
7.716,-0.083
7.717,-0.094
7.718,-0.099
7.719,-0.1
7.72,-0.103
7.721,-0.106
7.722,-0.113
7.723,-0.116
7.724,-0.12
7.725,-0.125
7.726,-0.126
7.727,-0.125
7.728,-0.129
7.729,-0.128
7.73,-0.127
7.731,-0.128
7.732,-0.129
7.733,-0.131
7.734,-0.136
7.735,-0.137
7.736,-0.137
7.737,-0.137
7.738,-0.137
7.739,-0.134
7.74,-0.133
7.741,-0.131
7.742,-0.134
7.743,-0.141
7.744,-0.141
7.745,-0.141
7.746,-0.141
7.747,-0.141
7.748,-0.142
7.749,-0.144
7.75,-0.141
7.751,-0.137
7.752,-0.134
7.753,-0.134
7.754,-0.136
7.755,-0.141
7.756,-0.142
7.757,-0.144
7.758,-0.142
7.759,-0.144
7.76,-0.145
7.761,-0.144
7.762,-0.139
7.763,-0.134
7.764,-0.134
7.765,-0.137
7.766,-0.141
7.767,-0.141
7.768,-0.141
7.769,-0.144
7.77,-0.142
7.771,-0.144
7.772,-0.139
7.773,-0.137
7.774,-0.133
7.775,-0.134
7.776,-0.139
7.777,-0.144
7.778,-0.15
7.779,-0.156
7.78,-0.166
7.781,-0.172
7.782,-0.179
7.783,-0.184
7.784,-0.186
7.785,-0.188
7.786,-0.172
7.787,-0.159
7.788,-0.154
7.789,-0.147
7.79,-0.122
7.791,-0.094
7.792,-0.056
7.793,-0.016
7.794,0.024
7.795,0.069
7.796,0.119
7.797,0.172
7.798,0.244
7.799,0.319
7.8,0.411
7.801,0.506
7.802,0.603
7.803,0.7
7.804,0.794
7.805,0.888
7.806,0.991
7.807,1.087
7.808,1.178
7.809,1.269
7.81,1.345
7.811,1.419
7.812,1.501
7.813,1.566
7.814,1.579
7.815,1.584
7.816,1.516
7.817,1.447
7.818,1.35
7.819,1.244
7.82,1.103
7.821,0.962
7.822,0.789
7.823,0.625
7.824,0.468
7.825,0.312
7.826,0.174
7.827,0.047
7.828,-0.041
7.829,-0.116
7.83,-0.136
7.831,-0.162
7.832,-0.152
7.833,-0.144
7.834,-0.137
7.835,-0.128
7.836,-0.125
7.837,-0.125
7.838,-0.128
7.839,-0.131
7.84,-0.125
7.841,-0.119
7.842,-0.114
7.843,-0.109
7.844,-0.103
7.845,-0.1
7.846,-0.1
7.847,-0.097
7.848,-0.091
7.849,-0.088
7.85,-0.083
7.851,-0.078
7.852,-0.083
7.853,-0.084
7.854,-0.091
7.855,-0.094
7.856,-0.098
7.857,-0.097
7.858,-0.1
7.859,-0.103
7.86,-0.103
7.861,-0.103
7.862,-0.103
7.863,-0.103
7.864,-0.103
7.865,-0.106
7.866,-0.102
7.867,-0.1
7.868,-0.101
7.869,-0.106
7.87,-0.108
7.871,-0.109
7.872,-0.106
7.873,-0.103
7.874,-0.099
7.875,-0.097
7.876,-0.098
7.877,-0.097
7.878,-0.098
7.879,-0.1
7.88,-0.1
7.881,-0.1
7.882,-0.1
7.883,-0.1
7.884,-0.103
7.885,-0.103
7.886,-0.103
7.887,-0.109
7.888,-0.106
7.889,-0.106
7.89,-0.103
7.891,-0.103
7.892,-0.104
7.893,-0.103
7.894,-0.097
7.895,-0.094
7.896,-0.094
7.897,-0.088
7.898,-0.086
7.899,-0.084
7.9,-0.086
7.901,-0.088
7.902,-0.089
7.903,-0.091
7.904,-0.089
7.905,-0.091
7.906,-0.088
7.907,-0.084
7.908,-0.089
7.909,-0.088
7.91,-0.088
7.911,-0.088
7.912,-0.089
7.913,-0.088
7.914,-0.081
7.915,-0.075
7.916,-0.074
7.917,-0.072
7.918,-0.07
7.919,-0.072
7.92,-0.076
7.921,-0.078
7.922,-0.078
7.923,-0.078
7.924,-0.074
7.925,-0.072
7.926,-0.074
7.927,-0.069
7.928,-0.069
7.929,-0.066
7.93,-0.07
7.931,-0.072
7.932,-0.064
7.933,-0.059
7.934,-0.061
7.935,-0.063
7.936,-0.063
7.937,-0.059
7.938,-0.061
7.939,-0.059
7.94,-0.057
7.941,-0.059
7.942,-0.063
7.943,-0.066
7.944,-0.061
7.945,-0.063
7.946,-0.058
7.947,-0.053
7.948,-0.046
7.949,-0.041
7.95,-0.045
7.951,-0.047
7.952,-0.045
7.953,-0.047
7.954,-0.05
7.955,-0.053
7.956,-0.054
7.957,-0.056
7.958,-0.057
7.959,-0.056
7.96,-0.053
7.961,-0.056
7.962,-0.055
7.963,-0.05
7.964,-0.047
7.965,-0.044
7.966,-0.048
7.967,-0.05
7.968,-0.046
7.969,-0.044
7.97,-0.043
7.971,-0.041
7.972,-0.039
7.973,-0.041
7.974,-0.037
7.975,-0.041
7.976,-0.037
7.977,-0.037
7.978,-0.036
7.979,-0.034
7.98,-0.034
7.981,-0.031
7.982,-0.029
7.983,-0.031
7.984,-0.024
7.985,-0.016
7.986,-0.014
7.987,-0.012
7.988,-0.011
7.989,-0.012
7.99,-0.014
7.991,-0.012
7.992,-0.012
7.993,-0.012
7.994,-0.006
7.995,0.003
7.996,0.006
7.997,0.006
7.998,0.011
7.999,0.016
8,0.02
8.001,0.022
8.002,0.024
8.003,0.022
8.004,0.024
8.005,0.025
8.006,0.032
8.007,0.037
8.008,0.041
8.009,0.037
8.01,0.034
8.011,0.034
8.012,0.037
8.013,0.037
8.014,0.042
8.015,0.044
8.016,0.05
8.017,0.053
8.018,0.057
8.019,0.062
8.02,0.062
8.021,0.062
8.022,0.064
8.023,0.062
8.024,0.062
8.025,0.062
8.026,0.061
8.027,0.062
8.028,0.069
8.029,0.072
8.03,0.072
8.031,0.072
8.032,0.074
8.033,0.072
8.034,0.071
8.035,0.069
8.036,0.066
8.037,0.069
8.038,0.069
8.039,0.069
8.04,0.07
8.041,0.072
8.042,0.071
8.043,0.069
8.044,0.069
8.045,0.069
8.046,0.066
8.047,0.066
8.048,0.066
8.049,0.062
8.05,0.062
8.051,0.062
8.052,0.062
8.053,0.062
8.054,0.066
8.055,0.062
8.056,0.062
8.057,0.062
8.058,0.061
8.059,0.059
8.06,0.064
8.061,0.066
8.062,0.069
8.063,0.069
8.064,0.066
8.065,0.062
8.066,0.064
8.067,0.066
8.068,0.064
8.069,0.066
8.07,0.069
8.071,0.072
8.072,0.072
8.073,0.072
8.074,0.072
8.075,0.072
8.076,0.072
8.077,0.072
8.078,0.075
8.079,0.078
8.08,0.075
8.081,0.075
8.082,0.075
8.083,0.069
8.084,0.069
8.085,0.069
8.086,0.066
8.087,0.066
8.088,0.069
8.089,0.069
8.09,0.068
8.091,0.069
8.092,0.069
8.093,0.072
8.094,0.078
8.095,0.078
8.096,0.072
8.097,0.069
8.098,0.069
8.099,0.069
8.1,0.066
8.101,0.066
8.102,0.064
8.103,0.066
8.104,0.062
8.105,0.062
8.106,0.059
8.107,0.059
8.108,0.056
8.109,0.05
8.11,0.048
8.111,0.05
8.112,0.046
8.113,0.041
8.114,0.039
8.115,0.037
8.116,0.033
8.117,0.028
8.118,0.022
8.119,0.019
8.12,0.016
8.121,0.012
8.122,0.014
8.123,0.012
8.124,0.011
8.125,0.009
8.126,0.005
8.127,-0.003
8.128,-0.001
8.129,-0.003
8.13,-0.005
8.131,-0.006
8.132,-0.009
8.133,-0.012
8.134,-0.016
8.135,-0.019
8.136,-0.022
8.137,-0.022
8.138,-0.025
8.139,-0.025
8.14,-0.029
8.141,-0.031
8.142,-0.034
8.143,-0.034
8.144,-0.036
8.145,-0.037
8.146,-0.039
8.147,-0.044
8.148,-0.047
8.149,-0.05
8.15,-0.05
8.151,-0.053
8.152,-0.053
8.153,-0.053
8.154,-0.05
8.155,-0.05
8.156,-0.052
8.157,-0.05
8.158,-0.051
8.159,-0.053
8.16,-0.054
8.161,-0.056
8.162,-0.061
8.163,-0.066
8.164,-0.069
8.165,-0.069
8.166,-0.066
8.167,-0.066
8.168,-0.066
8.169,-0.066
8.17,-0.067
8.171,-0.072
8.172,-0.073
8.173,-0.075
8.174,-0.069
8.175,-0.069
8.176,-0.069
8.177,-0.069
8.178,-0.069
8.179,-0.069
8.18,-0.07
8.181,-0.072
8.182,-0.075
8.183,-0.078
8.184,-0.077
8.185,-0.078
8.186,-0.074
8.187,-0.075
8.188,-0.078
8.189,-0.078
8.19,-0.079
8.191,-0.084
8.192,-0.088
8.193,-0.088
8.194,-0.083
8.195,-0.081
8.196,-0.081
8.197,-0.084
8.198,-0.083
8.199,-0.084
8.2,-0.084
8.201,-0.084
8.202,-0.088
8.203,-0.084
8.204,-0.083
8.205,-0.084
8.206,-0.084
8.207,-0.088
8.208,-0.088
8.209,-0.088
8.21,-0.088
8.211,-0.088
8.212,-0.089
8.213,-0.088
8.214,-0.091
8.215,-0.091
8.216,-0.092
8.217,-0.094
8.218,-0.095
8.219,-0.097
8.22,-0.097
8.221,-0.1
8.222,-0.101
8.223,-0.103
8.224,-0.106
8.225,-0.106
8.226,-0.105
8.227,-0.103
8.228,-0.103
8.229,-0.103
8.23,-0.103
8.231,-0.097
8.232,-0.097
8.233,-0.1
8.234,-0.104
8.235,-0.103
8.236,-0.103
8.237,-0.106
8.238,-0.108
8.239,-0.109
8.24,-0.106
8.241,-0.106
8.242,-0.106
8.243,-0.103
8.244,-0.104
8.245,-0.103
8.246,-0.108
8.247,-0.106
8.248,-0.103
8.249,-0.103
8.25,-0.098
8.251,-0.094
8.252,-0.086
8.253,-0.078
8.254,-0.075
8.255,-0.072
8.256,-0.056
8.257,-0.047
8.258,-0.041
8.259,-0.034
8.26,-0.029
8.261,-0.028
8.262,-0.022
8.263,-0.019
8.264,-0.011
8.265,-0.003
8.266,-0.006
8.267,-0.003
8.268,-0.008
8.269,-0.009
8.27,-0.009
8.271,-0.012
8.272,-0.005
8.273,-0.003
8.274,0
8.275,0.003
8.276,0.006
8.277,0.012
8.278,0.014
8.279,0.019
8.28,0.031
8.281,0.041
8.282,0.044
8.283,0.05
8.284,0.059
8.285,0.072
8.286,0.082
8.287,0.091
8.288,0.094
8.289,0.097
8.29,0.103
8.291,0.106
8.292,0.102
8.293,0.103
8.294,0.104
8.295,0.106
8.296,0.106
8.297,0.106
8.298,0.101
8.299,0.103
8.3,0.101
8.301,0.103
8.302,0.091
8.303,0.084
8.304,0.081
8.305,0.072
8.306,0.066
8.307,0.059
8.308,0.059
8.309,0.053
8.31,0.053
8.311,0.05
8.312,0.05
8.313,0.047
8.314,0.036
8.315,0.025
8.316,0.008
8.317,-0.009
8.318,-0.019
8.319,-0.028
8.32,-0.031
8.321,-0.044
8.322,-0.05
8.323,-0.056
8.324,-0.061
8.325,-0.069
8.326,-0.081
8.327,-0.091
8.328,-0.098
8.329,-0.106
8.33,-0.114
8.331,-0.122
8.332,-0.125
8.333,-0.131
8.334,-0.137
8.335,-0.141
8.336,-0.15
8.337,-0.159
8.338,-0.159
8.339,-0.159
8.34,-0.161
8.341,-0.162
8.342,-0.167
8.343,-0.175
8.344,-0.184
8.345,-0.191
8.346,-0.188
8.347,-0.191
8.348,-0.188
8.349,-0.188
8.35,-0.191
8.351,-0.191
8.352,-0.189
8.353,-0.191
8.354,-0.192
8.355,-0.194
8.356,-0.194
8.357,-0.197
8.358,-0.197
8.359,-0.2
8.36,-0.203
8.361,-0.2
8.362,-0.2
8.363,-0.2
8.364,-0.201
8.365,-0.203
8.366,-0.203
8.367,-0.203
8.368,-0.202
8.369,-0.2
8.37,-0.199
8.371,-0.197
8.372,-0.201
8.373,-0.2
8.374,-0.2
8.375,-0.2
8.376,-0.201
8.377,-0.2
8.378,-0.201
8.379,-0.203
8.38,-0.2
8.381,-0.2
8.382,-0.199
8.383,-0.197
8.384,-0.201
8.385,-0.203
8.386,-0.199
8.387,-0.197
8.388,-0.199
8.389,-0.194
8.39,-0.193
8.391,-0.191
8.392,-0.195
8.393,-0.194
8.394,-0.194
8.395,-0.197
8.396,-0.204
8.397,-0.213
8.398,-0.22
8.399,-0.228
8.4,-0.236
8.401,-0.238
8.402,-0.244
8.403,-0.244
8.404,-0.239
8.405,-0.231
8.406,-0.223
8.407,-0.209
8.408,-0.208
8.409,-0.191
8.41,-0.159
8.411,-0.128
8.412,-0.095
8.413,-0.053
8.414,-0.008
8.415,0.044
8.416,0.093
8.417,0.162
8.418,0.244
8.419,0.328
8.42,0.422
8.421,0.519
8.422,0.622
8.423,0.722
8.424,0.822
8.425,0.922
8.426,1.041
8.427,1.134
8.428,1.234
8.429,1.316
8.43,1.413
8.431,1.466
8.432,1.544
8.433,1.572
8.434,1.561
8.435,1.519
8.436,1.441
8.437,1.347
8.438,1.242
8.439,1.119
8.44,0.972
8.441,0.822
8.442,0.647
8.443,0.494
8.444,0.333
8.445,0.206
8.446,0.064
8.447,-0.044
8.448,-0.117
8.449,-0.166
8.45,-0.184
8.451,-0.188
8.452,-0.181
8.453,-0.184
8.454,-0.186
8.455,-0.184
8.456,-0.188
8.457,-0.188
8.458,-0.186
8.459,-0.181
8.46,-0.171
8.461,-0.166
8.462,-0.161
8.463,-0.15
8.464,-0.146
8.465,-0.144
8.466,-0.141
8.467,-0.137
8.468,-0.134
8.469,-0.134
8.47,-0.134
8.471,-0.137
8.472,-0.142
8.473,-0.147
8.474,-0.147
8.475,-0.15
8.476,-0.148
8.477,-0.15
8.478,-0.149
8.479,-0.147
8.48,-0.148
8.481,-0.15
8.482,-0.15
8.483,-0.15
8.484,-0.152
8.485,-0.15
8.486,-0.156
8.487,-0.156
8.488,-0.156
8.489,-0.156
8.49,-0.156
8.491,-0.156
8.492,-0.159
8.493,-0.159
8.494,-0.159
8.495,-0.159
8.496,-0.157
8.497,-0.159
8.498,-0.155
8.499,-0.15
8.5,-0.15
8.501,-0.15
8.502,-0.154
8.503,-0.162
8.504,-0.164
8.505,-0.162
8.506,-0.166
8.507,-0.162
8.508,-0.162
8.509,-0.159
8.51,-0.156
8.511,-0.153
8.512,-0.153
8.513,-0.153
8.514,-0.152
8.515,-0.153
8.516,-0.15
8.517,-0.15
8.518,-0.15
8.519,-0.15
8.52,-0.146
8.521,-0.141
8.522,-0.142
8.523,-0.141
8.524,-0.139
8.525,-0.134
8.526,-0.131
8.527,-0.134
8.528,-0.131
8.529,-0.131
8.53,-0.131
8.531,-0.131
8.532,-0.127
8.533,-0.125
8.534,-0.126
8.535,-0.128
8.536,-0.133
8.537,-0.134
8.538,-0.133
8.539,-0.131
8.54,-0.128
8.541,-0.128
8.542,-0.129
8.543,-0.128
8.544,-0.124
8.545,-0.122
8.546,-0.12
8.547,-0.122
8.548,-0.114
8.549,-0.113
8.55,-0.116
8.551,-0.116
8.552,-0.117
8.553,-0.119
8.554,-0.119
8.555,-0.119
8.556,-0.111
8.557,-0.109
8.558,-0.111
8.559,-0.109
8.56,-0.109
8.561,-0.109
8.562,-0.109
8.563,-0.106
8.564,-0.111
8.565,-0.113
8.566,-0.113
8.567,-0.109
8.568,-0.106
8.569,-0.106
8.57,-0.108
8.571,-0.106
8.572,-0.108
8.573,-0.109
8.574,-0.111
8.575,-0.113
8.576,-0.113
8.577,-0.113
8.578,-0.111
8.579,-0.109
8.58,-0.113
8.581,-0.113
8.582,-0.109
8.583,-0.109
8.584,-0.108
8.585,-0.106
8.586,-0.104
8.587,-0.103
8.588,-0.103
8.589,-0.103
8.59,-0.1
8.591,-0.094
8.592,-0.094
8.593,-0.091
8.594,-0.095
8.595,-0.094
8.596,-0.094
8.597,-0.091
8.598,-0.088
8.599,-0.088
8.6,-0.088
8.601,-0.088
8.602,-0.086
8.603,-0.081
8.604,-0.078
8.605,-0.075
8.606,-0.073
8.607,-0.072
8.608,-0.071
8.609,-0.069
8.61,-0.067
8.611,-0.066
8.612,-0.064
8.613,-0.066
8.614,-0.059
8.615,-0.053
8.616,-0.052
8.617,-0.047
8.618,-0.047
8.619,-0.047
8.62,-0.047
8.621,-0.044
8.622,-0.041
8.623,-0.034
8.624,-0.032
8.625,-0.031
8.626,-0.032
8.627,-0.028
8.628,-0.028
8.629,-0.028
8.63,-0.028
8.631,-0.028
8.632,-0.025
8.633,-0.019
8.634,-0.016
8.635,-0.009
8.636,-0.012
8.637,-0.012
8.638,-0.011
8.639,-0.012
8.64,-0.011
8.641,-0.006
8.642,-0.006
8.643,-0.006
8.644,-0.006
8.645,-0.006
8.646,-0.002
8.647,0.003
8.648,0.004
8.649,0.006
8.65,0.006
8.651,0.009
8.652,0.009
8.653,0.009
8.654,0.008
8.655,0.003
8.656,0.008
8.657,0.009
8.658,0.011
8.659,0.012
8.66,0.012
8.661,0.012
8.662,0.011
8.663,0.009
8.664,0.011
8.665,0.009
8.666,0.006
8.667,0.006
8.668,0.009
8.669,0.012
8.67,0.012
8.671,0.012
8.672,0.016
8.673,0.022
8.674,0.017
8.675,0.016
8.676,0.014
8.677,0.012
8.678,0.011
8.679,0.012
8.68,0.011
8.681,0.012
8.682,0.017
8.683,0.022
8.684,0.022
8.685,0.022
8.686,0.021
8.687,0.019
8.688,0.021
8.689,0.019
8.69,0.019
8.691,0.019
8.692,0.023
8.693,0.028
8.694,0.025
8.695,0.025
8.696,0.027
8.697,0.025
8.698,0.024
8.699,0.022
8.7,0.025
8.701,0.028
8.702,0.026
8.703,0.028
8.704,0.028
8.705,0.025
8.706,0.025
8.707,0.028
8.708,0.028
8.709,0.028
8.71,0.032
8.711,0.031
8.712,0.031
8.713,0.034
8.714,0.031
8.715,0.028
8.716,0.027
8.717,0.025
8.718,0.028
8.719,0.028
8.72,0.029
8.721,0.028
8.722,0.025
8.723,0.019
8.724,0.019
8.725,0.016
8.726,0.017
8.727,0.019
8.728,0.016
8.729,0.012
8.73,0.014
8.731,0.012
8.732,0.009
8.733,0.006
8.734,0
8.735,-0.006
8.736,-0.008
8.737,-0.009
8.738,-0.009
8.739,-0.012
8.74,-0.016
8.741,-0.016
8.742,-0.023
8.743,-0.031
8.744,-0.036
8.745,-0.041
8.746,-0.044
8.747,-0.037
8.748,-0.036
8.749,-0.037
8.75,-0.041
8.751,-0.044
8.752,-0.044
8.753,-0.044
8.754,-0.046
8.755,-0.047
8.756,-0.048
8.757,-0.053
8.758,-0.054
8.759,-0.059
8.76,-0.059
8.761,-0.063
8.762,-0.064
8.763,-0.069
8.764,-0.071
8.765,-0.069
8.766,-0.075
8.767,-0.078
8.768,-0.081
8.769,-0.084
8.77,-0.086
8.771,-0.084
8.772,-0.083
8.773,-0.081
8.774,-0.083
8.775,-0.084
8.776,-0.084
8.777,-0.084
8.778,-0.084
8.779,-0.084
8.78,-0.08
8.781,-0.075
8.782,-0.075
8.783,-0.078
8.784,-0.078
8.785,-0.078
8.786,-0.083
8.787,-0.084
8.788,-0.084
8.789,-0.084
8.79,-0.084
8.791,-0.081
8.792,-0.083
8.793,-0.081
8.794,-0.084
8.795,-0.084
8.796,-0.086
8.797,-0.088
8.798,-0.088
8.799,-0.088
8.8,-0.088
8.801,-0.088
8.802,-0.088
8.803,-0.088
8.804,-0.091
8.805,-0.088
8.806,-0.091
8.807,-0.091
8.808,-0.088
8.809,-0.088
8.81,-0.089
8.811,-0.091
8.812,-0.092
8.813,-0.091
8.814,-0.089
8.815,-0.091
8.816,-0.091
8.817,-0.091
8.818,-0.095
8.819,-0.094
8.82,-0.093
8.821,-0.094
8.822,-0.097
8.823,-0.1
8.824,-0.096
8.825,-0.094
8.826,-0.092
8.827,-0.094
8.828,-0.095
8.829,-0.097
8.83,-0.097
8.831,-0.091
8.832,-0.091
8.833,-0.094
8.834,-0.093
8.835,-0.094
8.836,-0.094
8.837,-0.094
8.838,-0.093
8.839,-0.091
8.84,-0.097
8.841,-0.1
8.842,-0.103
8.843,-0.103
8.844,-0.104
8.845,-0.106
8.846,-0.106
8.847,-0.106
8.848,-0.105
8.849,-0.106
8.85,-0.105
8.851,-0.103
8.852,-0.105
8.853,-0.103
8.854,-0.103
8.855,-0.103
8.856,-0.104
8.857,-0.106
8.858,-0.111
8.859,-0.109
8.86,-0.106
8.861,-0.106
8.862,-0.111
8.863,-0.109
8.864,-0.109
8.865,-0.113
8.866,-0.113
8.867,-0.113
8.868,-0.111
8.869,-0.113
8.87,-0.114
8.871,-0.113
8.872,-0.114
8.873,-0.113
8.874,-0.117
8.875,-0.116
8.876,-0.108
8.877,-0.103
8.878,-0.096
8.879,-0.088
8.88,-0.083
8.881,-0.078
8.882,-0.072
8.883,-0.066
8.884,-0.053
8.885,-0.047
8.886,-0.041
8.887,-0.034
8.888,-0.027
8.889,-0.022
8.89,-0.017
8.891,-0.016
8.892,-0.009
8.893,-0.003
8.894,-0.006
8.895,-0.003
8.896,-0.004
8.897,-0.003
8.898,-0.003
8.899,-0.006
8.9,0.001
8.901,0.003
8.902,0.009
8.903,0.016
8.904,0.017
8.905,0.022
8.906,0.025
8.907,0.031
8.908,0.042
8.909,0.05
8.91,0.055
8.911,0.062
8.912,0.07
8.913,0.081
8.914,0.088
