'Elapsed time','II'
'seconds','mV'
0.000,-0.084
0.001,-0.066
0.002,-0.070
0.003,-0.072
0.004,-0.073
0.005,-0.075
0.006,-0.071
0.007,-0.072
0.008,-0.075
0.009,-0.075
0.010,-0.078
0.011,-0.084
0.012,-0.086
0.013,-0.084
0.014,-0.083
0.015,-0.084
0.016,-0.084
0.017,-0.084
0.018,-0.081
0.019,-0.084
0.020,-0.088
0.021,-0.088
0.022,-0.084
0.023,-0.081
0.024,-0.080
0.025,-0.075
0.026,-0.079
0.027,-0.081
0.028,-0.080
0.029,-0.081
0.030,-0.075
0.031,-0.072
0.032,-0.075
0.033,-0.075
0.034,-0.075
0.035,-0.081
0.036,-0.081
0.037,-0.078
0.038,-0.081
0.039,-0.081
0.040,-0.081
0.041,-0.081
0.042,-0.083
0.043,-0.081
0.044,-0.078
0.045,-0.075
0.046,-0.072
0.047,-0.069
0.048,-0.063
0.049,-0.059
0.050,-0.055
0.051,-0.047
0.052,-0.041
0.053,-0.038
0.054,-0.034
0.055,-0.031
0.056,-0.022
0.057,-0.019
0.058,-0.016
0.059,-0.013
0.060,-0.014
0.061,-0.013
0.062,-0.003
0.063,0.003
0.064,0.005
0.065,0.006
0.066,0.011
0.067,0.013
0.068,0.019
0.069,0.022
0.070,0.014
0.071,0.016
0.072,0.019
0.073,0.019
0.074,0.019
0.075,0.019
0.076,0.019
0.077,0.019
0.078,0.020
0.079,0.025
0.080,0.031
0.081,0.034
0.082,0.041
0.083,0.047
0.084,0.050
0.085,0.056
0.086,0.059
0.087,0.059
0.088,0.063
0.089,0.069
0.090,0.086
0.091,0.100
0.092,0.112
0.093,0.122
0.094,0.129
0.095,0.144
0.096,0.156
0.097,0.166
0.098,0.172
0.099,0.175
0.100,0.167
0.101,0.166
0.102,0.162
0.103,0.162
0.104,0.156
0.105,0.156
0.106,0.156
0.107,0.153
0.108,0.149
0.109,0.147
0.110,0.142
0.111,0.144
0.112,0.139
0.113,0.134
0.114,0.130
0.115,0.119
0.116,0.112
0.117,0.106
0.118,0.101
0.119,0.100
0.120,0.091
0.121,0.078
0.122,0.066
0.123,0.050
0.124,0.038
0.125,0.025
0.126,0.019
0.127,0.013
0.128,0.013
0.129,0.006
0.130,-0.007
0.131,-0.019
0.132,-0.026
0.133,-0.038
0.134,-0.053
0.135,-0.066
0.136,-0.072
0.137,-0.078
0.138,-0.079
0.139,-0.081
0.140,-0.086
0.141,-0.084
0.142,-0.086
0.143,-0.088
0.144,-0.089
0.145,-0.091
0.146,-0.092
0.147,-0.094
0.148,-0.091
0.149,-0.088
0.150,-0.088
0.151,-0.088
0.152,-0.091
0.153,-0.097
0.154,-0.101
0.155,-0.100
0.156,-0.100
0.157,-0.100
0.158,-0.103
0.159,-0.106
0.160,-0.108
0.161,-0.106
0.162,-0.108
0.163,-0.109
0.164,-0.108
0.165,-0.106
0.166,-0.108
0.167,-0.103
0.168,-0.103
0.169,-0.103
0.170,-0.109
0.171,-0.106
0.172,-0.114
0.173,-0.112
0.174,-0.108
0.175,-0.109
0.176,-0.103
0.177,-0.106
0.178,-0.106
0.179,-0.106
0.180,-0.108
0.181,-0.109
0.182,-0.111
0.183,-0.112
0.184,-0.109
0.185,-0.109
0.186,-0.108
0.187,-0.106
0.188,-0.109
0.189,-0.109
0.190,-0.108
0.191,-0.106
0.192,-0.111
0.193,-0.116
0.194,-0.111
0.195,-0.109
0.196,-0.109
0.197,-0.109
0.198,-0.097
0.199,-0.088
0.200,-0.078
0.201,-0.066
0.202,-0.048
0.203,-0.031
0.204,-0.011
0.205,0.013
0.206,0.025
0.207,0.044
0.208,0.059
0.209,0.069
0.210,0.067
0.211,0.069
0.212,0.070
0.213,0.069
0.214,0.064
0.215,0.063
0.216,0.069
0.217,0.094
0.218,0.141
0.219,0.194
0.220,0.244
0.221,0.309
0.222,0.400
0.223,0.509
0.224,0.638
0.225,0.772
0.226,0.919
0.227,1.072
0.228,1.204
0.229,1.275
0.230,1.269
0.231,1.191
0.232,1.086
0.233,1.013
0.234,0.962
0.235,0.900
0.236,0.806
0.237,0.712
0.238,0.629
0.239,0.559
0.240,0.481
0.241,0.381
0.242,0.284
0.243,0.197
0.244,0.134
0.245,0.088
0.246,0.042
0.247,0.000
0.248,-0.030
0.249,-0.063
0.250,-0.086
0.251,-0.106
0.252,-0.137
0.253,-0.175
0.254,-0.213
0.255,-0.244
0.256,-0.269
0.257,-0.291
0.258,-0.319
0.259,-0.341
0.260,-0.356
0.261,-0.372
0.262,-0.378
0.263,-0.375
0.264,-0.361
0.265,-0.341
0.266,-0.322
0.267,-0.303
0.268,-0.286
0.269,-0.269
0.270,-0.255
0.271,-0.244
0.272,-0.229
0.273,-0.219
0.274,-0.205
0.275,-0.187
0.276,-0.178
0.277,-0.166
0.278,-0.156
0.279,-0.147
0.280,-0.139
0.281,-0.134
0.282,-0.129
0.283,-0.131
0.284,-0.124
0.285,-0.122
0.286,-0.122
0.287,-0.116
0.288,-0.112
0.289,-0.109
0.290,-0.109
0.291,-0.109
0.292,-0.109
0.293,-0.103
0.294,-0.100
0.295,-0.097
0.296,-0.089
0.297,-0.088
0.298,-0.086
0.299,-0.084
0.300,-0.081
0.301,-0.075
0.302,-0.075
0.303,-0.075
0.304,-0.078
0.305,-0.081
0.306,-0.080
0.307,-0.081
0.308,-0.078
0.309,-0.075
0.310,-0.075
0.311,-0.072
0.312,-0.069
0.313,-0.069
0.314,-0.067
0.315,-0.066
0.316,-0.066
0.317,-0.066
0.318,-0.069
0.319,-0.069
0.320,-0.066
0.321,-0.066
0.322,-0.064
0.323,-0.066
0.324,-0.059
0.325,-0.056
0.326,-0.059
0.327,-0.056
0.328,-0.058
0.329,-0.053
0.330,-0.053
0.331,-0.056
0.332,-0.053
0.333,-0.053
0.334,-0.052
0.335,-0.050
0.336,-0.052
0.337,-0.050
0.338,-0.050
0.339,-0.050
0.340,-0.048
0.341,-0.050
0.342,-0.048
0.343,-0.050
0.344,-0.051
0.345,-0.053
0.346,-0.052
0.347,-0.050
0.348,-0.049
0.349,-0.047
0.350,-0.047
0.351,-0.047
0.352,-0.050
0.353,-0.053
0.354,-0.053
0.355,-0.053
0.356,-0.052
0.357,-0.050
0.358,-0.050
0.359,-0.050
0.360,-0.050
0.361,-0.047
0.362,-0.050
0.363,-0.050
0.364,-0.051
0.365,-0.053
0.366,-0.046
0.367,-0.041
0.368,-0.036
0.369,-0.031
0.370,-0.034
0.371,-0.034
0.372,-0.034
0.373,-0.031
0.374,-0.031
0.375,-0.031
0.376,-0.034
0.377,-0.041
0.378,-0.039
0.379,-0.041
0.380,-0.034
0.381,-0.034
0.382,-0.036
0.383,-0.038
0.384,-0.036
0.385,-0.038
0.386,-0.038
0.387,-0.034
0.388,-0.031
0.389,-0.028
0.390,-0.025
0.391,-0.022
0.392,-0.020
0.393,-0.022
0.394,-0.021
0.395,-0.019
0.396,-0.019
0.397,-0.022
0.398,-0.019
0.399,-0.019
0.400,-0.019
0.401,-0.016
0.402,-0.014
0.403,-0.013
0.404,-0.009
0.405,-0.009
0.406,-0.006
0.407,-0.006
0.408,-0.004
0.409,-0.006
0.410,-0.006
0.411,-0.006
0.412,-0.005
0.413,0.000
0.414,-0.001
0.415,0.000
0.416,0.004
0.417,0.003
0.418,0.003
0.419,0.003
0.420,0.005
0.421,0.006
0.422,0.006
0.423,0.009
0.424,0.016
0.425,0.019
0.426,0.018
0.427,0.019
0.428,0.018
0.429,0.016
0.430,0.014
0.431,0.013
0.432,0.013
0.433,0.013
0.434,0.017
0.435,0.022
0.436,0.025
0.437,0.022
0.438,0.022
0.439,0.025
0.440,0.028
0.441,0.028
0.442,0.030
0.443,0.028
0.444,0.031
0.445,0.031
0.446,0.029
0.447,0.031
0.448,0.030
0.449,0.031
0.450,0.034
0.451,0.041
0.452,0.044
0.453,0.041
0.454,0.036
0.455,0.034
0.456,0.036
0.457,0.034
0.458,0.039
0.459,0.041
0.460,0.039
0.461,0.041
0.462,0.044
0.463,0.041
0.464,0.042
0.465,0.041
0.466,0.038
0.467,0.034
0.468,0.034
0.469,0.034
0.470,0.036
0.471,0.038
0.472,0.041
0.473,0.044
0.474,0.046
0.475,0.044
0.476,0.039
0.477,0.031
0.478,0.034
0.479,0.031
0.480,0.034
0.481,0.034
0.482,0.036
0.483,0.034
0.484,0.036
0.485,0.038
0.486,0.038
0.487,0.038
0.488,0.038
0.489,0.038
0.490,0.039
0.491,0.041
0.492,0.039
0.493,0.041
0.494,0.038
0.495,0.038
0.496,0.038
0.497,0.038
0.498,0.039
0.499,0.038
0.500,0.039
0.501,0.038
0.502,0.041
0.503,0.044
0.504,0.039
0.505,0.041
0.506,0.044
0.507,0.041
0.508,0.046
0.509,0.044
0.510,0.044
0.511,0.044
0.512,0.051
0.513,0.053
0.514,0.055
0.515,0.053
0.516,0.059
0.517,0.056
0.518,0.061
0.519,0.063
0.520,0.064
0.521,0.063
0.522,0.063
0.523,0.063
0.524,0.070
0.525,0.075
0.526,0.072
0.527,0.075
0.528,0.074
0.529,0.075
0.530,0.077
0.531,0.075
0.532,0.075
0.533,0.072
0.534,0.071
0.535,0.069
0.536,0.072
0.537,0.069
0.538,0.067
0.539,0.069
0.540,0.072
0.541,0.072
0.542,0.071
0.543,0.075
0.544,0.073
0.545,0.072
0.546,0.072
0.547,0.075
0.548,0.074
0.549,0.069
0.550,0.069
0.551,0.069
0.552,0.069
0.553,0.072
0.554,0.074
0.555,0.072
0.556,0.069
0.557,0.066
0.558,0.067
0.559,0.066
0.560,0.066
0.561,0.066
0.562,0.064
0.563,0.066
0.564,0.061
0.565,0.059
0.566,0.055
0.567,0.053
0.568,0.053
0.569,0.056
0.570,0.052
0.571,0.053
0.572,0.051
0.573,0.053
0.574,0.056
0.575,0.056
0.576,0.053
0.577,0.050
0.578,0.053
0.579,0.050
0.580,0.050
0.581,0.053
0.582,0.046
0.583,0.041
0.584,0.041
0.585,0.041
0.586,0.039
0.587,0.038
0.588,0.039
0.589,0.041
0.590,0.041
0.591,0.041
0.592,0.034
0.593,0.034
0.594,0.039
0.595,0.041
0.596,0.041
0.597,0.038
0.598,0.033
0.599,0.028
0.600,0.025
0.601,0.025
0.602,0.027
0.603,0.025
0.604,0.025
0.605,0.025
0.606,0.025
0.607,0.025
0.608,0.024
0.609,0.022
0.610,0.022
0.611,0.022
0.612,0.026
0.613,0.031
0.614,0.029
0.615,0.028
0.616,0.024
0.617,0.022
0.618,0.026
0.619,0.025
0.620,0.024
0.621,0.019
0.622,0.008
0.623,0.003
0.624,0.006
0.625,0.006
0.626,0.006
0.627,0.006
0.628,0.009
0.629,0.009
0.630,0.006
0.631,0.006
0.632,0.007
0.633,0.006
0.634,0.006
0.635,0.006
0.636,0.003
0.637,0.003
0.638,0.003
0.639,0.006
0.640,0.006
0.641,0.009
0.642,0.011
0.643,0.003
0.644,0.003
0.645,0.003
0.646,0.004
0.647,0.003
0.648,0.006
0.649,0.003
0.650,0.003
0.651,0.000
0.652,0.001
0.653,0.000
0.654,0.003
0.655,0.003
0.656,0.006
0.657,0.006
0.658,0.004
0.659,0.003
0.660,-0.001
0.661,-0.006
0.662,-0.005
0.663,0.000
0.664,-0.001
0.665,-0.003
0.666,0.000
0.667,0.000
0.668,0.000
0.669,0.000
0.670,-0.006
0.671,-0.009
0.672,-0.011
0.673,-0.016
0.674,-0.016
0.675,-0.016
0.676,-0.020
0.677,-0.019
0.678,-0.018
0.679,-0.016
0.680,-0.019
0.681,-0.016
0.682,-0.020
0.683,-0.019
0.684,-0.022
0.685,-0.019
0.686,-0.019
0.687,-0.022
0.688,-0.023
0.689,-0.022
0.690,-0.016
0.691,-0.016
0.692,-0.019
0.693,-0.022
0.694,-0.025
0.695,-0.025
0.696,-0.023
0.697,-0.025
0.698,-0.024
0.699,-0.025
0.700,-0.022
0.701,-0.019
0.702,-0.025
0.703,-0.031
0.704,-0.031
0.705,-0.031
0.706,-0.028
0.707,-0.022
0.708,-0.022
0.709,-0.025
0.710,-0.026
0.711,-0.028
0.712,-0.028
0.713,-0.025
0.714,-0.027
0.715,-0.028
0.716,-0.028
0.717,-0.028
0.718,-0.031
0.719,-0.028
0.720,-0.023
0.721,-0.025
0.722,-0.027
0.723,-0.025
0.724,-0.026
0.725,-0.028
0.726,-0.033
0.727,-0.031
0.728,-0.029
0.729,-0.031
0.730,-0.030
0.731,-0.028
0.732,-0.025
0.733,-0.028
0.734,-0.024
0.735,-0.019
0.736,-0.026
0.737,-0.028
0.738,-0.027
0.739,-0.028
0.740,-0.031
0.741,-0.028
0.742,-0.027
0.743,-0.028
0.744,-0.027
0.745,-0.028
0.746,-0.028
0.747,-0.028
0.748,-0.029
0.749,-0.031
0.750,-0.025
0.751,-0.019
0.752,-0.019
0.753,-0.019
0.754,-0.019
0.755,-0.019
0.756,-0.019
0.757,-0.016
0.758,-0.008
0.759,0.003
0.760,0.014
0.761,0.025
0.762,0.028
0.763,0.031
0.764,0.031
0.765,0.034
0.766,0.036
0.767,0.038
0.768,0.042
0.769,0.044
0.770,0.044
0.771,0.047
0.772,0.046
0.773,0.047
0.774,0.051
0.775,0.059
0.776,0.061
0.777,0.056
0.778,0.063
0.779,0.063
0.780,0.063
0.781,0.066
0.782,0.067
0.783,0.069
0.784,0.072
0.785,0.075
0.786,0.075
0.787,0.078
0.788,0.083
0.789,0.091
0.790,0.100
0.791,0.103
0.792,0.099
0.793,0.100
0.794,0.111
0.795,0.122
0.796,0.133
0.797,0.147
0.798,0.155
0.799,0.166
0.800,0.172
0.801,0.175
0.802,0.178
0.803,0.178
0.804,0.187
0.805,0.200
0.806,0.217
0.807,0.219
0.808,0.217
0.809,0.213
0.810,0.208
0.811,0.200
0.812,0.201
0.813,0.203
0.814,0.197
0.815,0.194
0.816,0.198
0.817,0.194
0.818,0.193
0.819,0.184
0.820,0.175
0.821,0.169
0.822,0.162
0.823,0.159
0.824,0.156
0.825,0.150
0.826,0.147
0.827,0.141
0.828,0.125
0.829,0.112
0.830,0.097
0.831,0.081
0.832,0.073
0.833,0.066
0.834,0.056
0.835,0.053
0.836,0.038
0.837,0.022
0.838,0.011
0.839,0.003
0.840,-0.005
0.841,-0.013
0.842,-0.023
0.843,-0.031
0.844,-0.036
0.845,-0.038
0.846,-0.036
0.847,-0.041
0.848,-0.042
0.849,-0.047
0.850,-0.050
0.851,-0.050
0.852,-0.050
0.853,-0.053
0.854,-0.057
0.855,-0.056
0.856,-0.050
0.857,-0.050
0.858,-0.054
0.859,-0.056
0.860,-0.058
0.861,-0.059
0.862,-0.053
0.863,-0.053
0.864,-0.057
0.865,-0.059
0.866,-0.061
0.867,-0.066
0.868,-0.063
0.869,-0.059
0.870,-0.061
0.871,-0.063
0.872,-0.063
0.873,-0.066
0.874,-0.064
0.875,-0.069
0.876,-0.069
0.877,-0.069
0.878,-0.064
0.879,-0.069
0.880,-0.066
0.881,-0.066
0.882,-0.073
0.883,-0.075
0.884,-0.078
0.885,-0.075
0.886,-0.076
0.887,-0.078
0.888,-0.079
0.889,-0.081
0.890,-0.078
0.891,-0.072
0.892,-0.072
0.893,-0.072
0.894,-0.071
0.895,-0.072
0.896,-0.069
0.897,-0.066
0.898,-0.070
0.899,-0.072
0.900,-0.073
0.901,-0.075
0.902,-0.072
0.903,-0.072
0.904,-0.076
0.905,-0.066
0.906,-0.053
0.907,-0.041
0.908,-0.029
0.909,-0.013
0.910,0.006
0.911,0.025
0.912,0.048
0.913,0.066
0.914,0.088
0.915,0.100
0.916,0.106
0.917,0.103
0.918,0.100
0.919,0.094
0.920,0.086
0.921,0.081
0.922,0.077
0.923,0.081
0.924,0.106
0.925,0.144
0.926,0.195
0.927,0.253
0.928,0.311
0.929,0.384
0.930,0.480
0.931,0.606
0.932,0.748
0.933,0.894
0.934,1.051
0.935,1.187
0.936,1.253
0.937,1.250
0.938,1.187
0.939,1.084
0.940,1.001
0.941,0.959
0.942,0.911
0.943,0.825
0.944,0.736
0.945,0.653
0.946,0.579
0.947,0.509
0.948,0.416
0.949,0.325
0.950,0.244
0.951,0.181
0.952,0.137
0.953,0.103
0.954,0.067
0.955,0.034
0.956,0.003
0.957,-0.019
0.958,-0.044
0.959,-0.075
0.960,-0.109
0.961,-0.147
0.962,-0.178
0.963,-0.206
0.964,-0.231
0.965,-0.263
0.966,-0.295
0.967,-0.316
0.968,-0.334
0.969,-0.347
0.970,-0.353
0.971,-0.350
0.972,-0.331
0.973,-0.309
0.974,-0.281
0.975,-0.259
0.976,-0.247
0.977,-0.238
0.978,-0.229
0.979,-0.216
0.980,-0.200
0.981,-0.184
0.982,-0.169
0.983,-0.159
0.984,-0.143
0.985,-0.131
0.986,-0.131
0.987,-0.131
0.988,-0.127
0.989,-0.116
0.990,-0.109
0.991,-0.100
0.992,-0.101
0.993,-0.103
0.994,-0.097
0.995,-0.094
0.996,-0.091
0.997,-0.091
0.998,-0.091
0.999,-0.091
1.000,-0.081
1.001,-0.078
1.002,-0.079
1.003,-0.075
1.004,-0.074
1.005,-0.072
1.006,-0.073
1.007,-0.075
1.008,-0.073
1.009,-0.075
1.010,-0.074
1.011,-0.072
1.012,-0.069
1.013,-0.066
1.014,-0.070
1.015,-0.069
1.016,-0.064
1.017,-0.063
1.018,-0.058
1.019,-0.056
1.020,-0.061
1.021,-0.059
1.022,-0.059
1.023,-0.063
1.024,-0.064
1.025,-0.066
1.026,-0.058
1.027,-0.053
1.028,-0.052
1.029,-0.047
1.030,-0.054
1.031,-0.056
1.032,-0.057
1.033,-0.059
1.034,-0.057
1.035,-0.066
1.036,-0.061
1.037,-0.059
1.038,-0.063
1.039,-0.059
1.040,-0.056
1.041,-0.053
1.042,-0.052
1.043,-0.053
1.044,-0.054
1.045,-0.056
1.046,-0.057
1.047,-0.056
1.048,-0.057
1.049,-0.056
1.050,-0.050
1.051,-0.044
1.052,-0.045
1.053,-0.047
1.054,-0.048
1.055,-0.050
1.056,-0.051
1.057,-0.053
1.058,-0.056
1.059,-0.059
1.060,-0.059
1.061,-0.059
1.062,-0.061
1.063,-0.063
1.064,-0.059
1.065,-0.056
1.066,-0.053
1.067,-0.050
1.068,-0.047
1.069,-0.050
1.070,-0.054
1.071,-0.059
1.072,-0.059
1.073,-0.056
1.074,-0.053
1.075,-0.050
1.076,-0.049
1.077,-0.050
1.078,-0.057
1.079,-0.066
1.080,-0.059
1.081,-0.056
1.082,-0.056
1.083,-0.053
1.084,-0.050
1.085,-0.044
1.086,-0.045
1.087,-0.044
1.088,-0.048
1.089,-0.050
1.090,-0.047
1.091,-0.041
1.092,-0.039
1.093,-0.038
1.094,-0.031
1.095,-0.028
1.096,-0.031
1.097,-0.034
1.098,-0.036
1.099,-0.034
1.100,-0.036
1.101,-0.038
1.102,-0.039
1.103,-0.038
1.104,-0.039
1.105,-0.038
1.106,-0.034
1.107,-0.034
1.108,-0.034
1.109,-0.034
1.110,-0.038
1.111,-0.038
1.112,-0.036
1.113,-0.031
1.114,-0.032
1.115,-0.031
1.116,-0.031
1.117,-0.031
1.118,-0.030
1.119,-0.028
1.120,-0.026
1.121,-0.028
1.122,-0.028
1.123,-0.028
1.124,-0.030
1.125,-0.028
1.126,-0.031
1.127,-0.031
1.128,-0.021
1.129,-0.016
1.130,-0.016
1.131,-0.013
1.132,-0.014
1.133,-0.016
1.134,-0.013
1.135,-0.013
1.136,-0.011
1.137,-0.009
1.138,-0.005
1.139,0.000
1.140,0.000
1.141,0.003
1.142,0.003
1.143,0.003
1.144,0.000
1.145,0.000
1.146,0.003
1.147,0.003
1.148,-0.003
1.149,-0.003
1.150,-0.003
1.151,0.000
1.152,0.006
1.153,0.009
1.154,0.008
1.155,0.006
1.156,0.009
1.157,0.006
1.158,0.006
1.159,0.009
1.160,0.002
1.161,0.000
1.162,0.005
1.163,0.003
1.164,-0.003
1.165,-0.006
1.166,-0.006
1.167,-0.003
1.168,-0.003
1.169,-0.003
1.170,-0.007
1.171,-0.006
1.172,0.000
1.173,0.006
1.174,0.007
1.175,0.009
1.176,0.006
1.177,0.003
1.178,0.003
1.179,0.003
1.180,0.002
1.181,0.003
1.182,0.004
1.183,0.006
1.184,0.003
1.185,0.006
1.186,-0.003
1.187,-0.009
1.188,-0.011
1.189,-0.006
1.190,0.000
1.191,0.006
1.192,0.006
1.193,0.006
1.194,0.006
1.195,0.006
1.196,0.005
1.197,0.003
1.198,0.002
1.199,0.000
1.200,0.002
1.201,-0.003
1.202,0.000
1.203,0.003
1.204,0.002
1.205,0.003
1.206,0.000
1.207,0.000
1.208,0.001
1.209,0.006
1.210,0.011
1.211,0.009
1.212,0.011
1.213,0.013
1.214,0.009
1.215,0.016
1.216,0.017
1.217,0.019
1.218,0.019
1.219,0.025
1.220,0.021
1.221,0.019
1.222,0.022
1.223,0.031
1.224,0.027
1.225,0.028
1.226,0.025
1.227,0.025
1.228,0.026
1.229,0.031
1.230,0.033
1.231,0.034
1.232,0.038
1.233,0.038
1.234,0.042
1.235,0.044
1.236,0.044
1.237,0.044
1.238,0.036
1.239,0.031
1.240,0.031
1.241,0.031
1.242,0.030
1.243,0.031
1.244,0.028
1.245,0.028
1.246,0.032
1.247,0.034
1.248,0.030
1.249,0.028
1.250,0.033
1.251,0.028
1.252,0.024
1.253,0.022
1.254,0.022
1.255,0.022
1.256,0.023
1.257,0.025
1.258,0.028
1.259,0.028
1.260,0.028
1.261,0.031
1.262,0.028
1.263,0.022
1.264,0.020
1.265,0.022
1.266,0.019
1.267,0.019
1.268,0.018
1.269,0.016
1.270,0.016
1.271,0.009
1.272,0.011
1.273,0.009
1.274,0.009
1.275,0.006
1.276,0.006
1.277,0.003
1.278,0.009
1.279,0.009
1.280,0.009
1.281,0.009
1.282,0.003
1.283,-0.003
1.284,-0.011
1.285,-0.013
1.286,-0.013
1.287,-0.009
1.288,0.001
1.289,0.006
1.290,0.005
1.291,0.000
1.292,-0.006
1.293,-0.009
1.294,-0.008
1.295,-0.006
1.296,-0.006
1.297,-0.006
1.298,-0.005
1.299,-0.009
1.300,-0.009
1.301,-0.009
1.302,-0.013
1.303,-0.013
1.304,-0.013
1.305,-0.009
1.306,-0.008
1.307,-0.009
1.308,-0.014
1.309,-0.016
1.310,-0.017
1.311,-0.022
1.312,-0.022
1.313,-0.019
1.314,-0.019
1.315,-0.019
1.316,-0.016
1.317,-0.013
1.318,-0.013
1.319,-0.013
1.320,-0.017
1.321,-0.025
1.322,-0.022
1.323,-0.019
1.324,-0.019
1.325,-0.016
1.326,-0.019
1.327,-0.019
1.328,-0.021
1.329,-0.022
1.330,-0.019
1.331,-0.019
1.332,-0.025
1.333,-0.028
1.334,-0.031
1.335,-0.031
1.336,-0.030
1.337,-0.031
1.338,-0.028
1.339,-0.025
1.340,-0.022
1.341,-0.016
1.342,-0.016
1.343,-0.019
1.344,-0.025
1.345,-0.031
1.346,-0.028
1.347,-0.031
1.348,-0.036
1.349,-0.038
1.350,-0.042
1.351,-0.041
1.352,-0.042
1.353,-0.044
1.354,-0.047
1.355,-0.044
1.356,-0.041
1.357,-0.034
1.358,-0.039
1.359,-0.041
1.360,-0.047
1.361,-0.047
1.362,-0.046
1.363,-0.044
1.364,-0.047
1.365,-0.050
1.366,-0.052
1.367,-0.050
1.368,-0.050
1.369,-0.050
1.370,-0.048
1.371,-0.050
1.372,-0.050
1.373,-0.050
1.374,-0.056
1.375,-0.059
1.376,-0.063
1.377,-0.069
1.378,-0.067
1.379,-0.066
1.380,-0.066
1.381,-0.063
1.382,-0.059
1.383,-0.059
1.384,-0.057
1.385,-0.059
1.386,-0.056
1.387,-0.056
1.388,-0.050
1.389,-0.050
1.390,-0.048
1.391,-0.053
1.392,-0.050
1.393,-0.053
1.394,-0.061
1.395,-0.063
1.396,-0.061
1.397,-0.059
1.398,-0.064
1.399,-0.066
1.400,-0.066
1.401,-0.069
1.402,-0.075
1.403,-0.078
1.404,-0.077
1.405,-0.075
1.406,-0.074
1.407,-0.069
1.408,-0.067
1.409,-0.069
1.410,-0.072
1.411,-0.072
1.412,-0.069
1.413,-0.069
1.414,-0.072
1.415,-0.072
1.416,-0.073
1.417,-0.075
1.418,-0.072
1.419,-0.075
1.420,-0.077
1.421,-0.075
1.422,-0.075
1.423,-0.078
1.424,-0.081
1.425,-0.081
1.426,-0.080
1.427,-0.081
1.428,-0.081
1.429,-0.081
1.430,-0.077
1.431,-0.078
1.432,-0.079
1.433,-0.078
1.434,-0.077
1.435,-0.075
1.436,-0.081
1.437,-0.084
1.438,-0.084
1.439,-0.081
1.440,-0.077
1.441,-0.075
1.442,-0.073
1.443,-0.075
1.444,-0.081
1.445,-0.084
1.446,-0.077
1.447,-0.075
1.448,-0.075
1.449,-0.072
1.450,-0.072
1.451,-0.069
1.452,-0.073
1.453,-0.078
1.454,-0.079
1.455,-0.078
1.456,-0.072
1.457,-0.066
1.458,-0.061
1.459,-0.056
1.460,-0.050
1.461,-0.047
1.462,-0.044
1.463,-0.038
1.464,-0.027
1.465,-0.019
1.466,-0.017
1.467,-0.016
1.468,-0.016
1.469,-0.022
1.470,-0.020
1.471,-0.019
1.472,-0.011
1.473,0.000
1.474,0.006
1.475,0.009
1.476,0.011
1.477,0.013
1.478,0.018
1.479,0.019
1.480,0.022
1.481,0.022
1.482,0.016
1.483,0.019
1.484,0.023
1.485,0.025
1.486,0.024
1.487,0.022
1.488,0.023
1.489,0.025
1.490,0.025
1.491,0.028
1.492,0.036
1.493,0.041
1.494,0.047
1.495,0.053
1.496,0.054
1.497,0.059
1.498,0.070
1.499,0.078
1.500,0.091
1.501,0.106
1.502,0.116
1.503,0.122
1.504,0.131
1.505,0.137
1.506,0.145
1.507,0.159
1.508,0.164
1.509,0.166
1.510,0.168
1.511,0.166
1.512,0.161
1.513,0.162
1.514,0.161
1.515,0.162
1.516,0.152
1.517,0.147
1.518,0.146
1.519,0.141
1.520,0.141
1.521,0.144
1.522,0.136
1.523,0.134
1.524,0.131
1.525,0.128
1.526,0.126
1.527,0.119
1.528,0.111
1.529,0.103
1.530,0.091
1.531,0.081
1.532,0.076
1.533,0.069
1.534,0.058
1.535,0.044
1.536,0.031
1.537,0.019
1.538,0.009
1.539,0.000
1.540,-0.006
1.541,-0.019
1.542,-0.034
1.543,-0.047
1.544,-0.047
1.545,-0.050
1.546,-0.058
1.547,-0.063
1.548,-0.066
1.549,-0.069
1.550,-0.072
1.551,-0.075
1.552,-0.081
1.553,-0.081
1.554,-0.083
1.555,-0.084
1.556,-0.084
1.557,-0.084
1.558,-0.086
1.559,-0.088
1.560,-0.088
1.561,-0.088
1.562,-0.086
1.563,-0.084
1.564,-0.088
1.565,-0.094
1.566,-0.097
1.567,-0.094
1.568,-0.097
1.569,-0.100
1.570,-0.101
1.571,-0.103
1.572,-0.106
1.573,-0.106
1.574,-0.106
1.575,-0.106
1.576,-0.106
1.577,-0.106
1.578,-0.108
1.579,-0.103
1.580,-0.103
1.581,-0.103
1.582,-0.109
1.583,-0.106
1.584,-0.111
1.585,-0.106
1.586,-0.103
1.587,-0.106
1.588,-0.103
1.589,-0.109
1.590,-0.111
1.591,-0.112
1.592,-0.116
1.593,-0.119
1.594,-0.116
1.595,-0.112
1.596,-0.106
1.597,-0.103
1.598,-0.106
1.599,-0.109
1.600,-0.112
1.601,-0.112
1.602,-0.111
1.603,-0.109
1.604,-0.108
1.605,-0.106
1.606,-0.103
1.607,-0.103
1.608,-0.097
1.609,-0.091
1.610,-0.081
1.611,-0.075
1.612,-0.064
1.613,-0.050
1.614,-0.031
1.615,-0.013
1.616,0.006
1.617,0.028
1.618,0.039
1.619,0.056
1.620,0.064
1.621,0.066
1.622,0.069
1.623,0.075
1.624,0.075
1.625,0.072
1.626,0.072
1.627,0.075
1.628,0.089
1.629,0.122
1.630,0.172
1.631,0.228
1.632,0.281
1.633,0.350
1.634,0.448
1.635,0.566
1.636,0.699
1.637,0.838
1.638,0.974
1.639,1.116
1.640,1.217
1.641,1.256
1.642,1.228
1.643,1.128
1.644,1.042
1.645,0.987
1.646,0.933
1.647,0.866
1.648,0.775
1.649,0.684
1.650,0.603
1.651,0.534
1.652,0.456
1.653,0.356
1.654,0.267
1.655,0.187
1.656,0.129
1.657,0.088
1.658,0.047
1.659,0.009
1.660,-0.018
1.661,-0.047
1.662,-0.069
1.663,-0.088
1.664,-0.119
1.665,-0.156
1.666,-0.194
1.667,-0.225
1.668,-0.257
1.669,-0.288
1.670,-0.320
1.671,-0.347
1.672,-0.355
1.673,-0.362
1.674,-0.369
1.675,-0.366
1.676,-0.349
1.677,-0.325
1.678,-0.302
1.679,-0.278
1.680,-0.266
1.681,-0.253
1.682,-0.245
1.683,-0.241
1.684,-0.226
1.685,-0.216
1.686,-0.203
1.687,-0.187
1.688,-0.181
1.689,-0.172
1.690,-0.161
1.691,-0.150
1.692,-0.145
1.693,-0.144
1.694,-0.134
1.695,-0.131
1.696,-0.121
1.697,-0.116
1.698,-0.119
1.699,-0.116
1.700,-0.111
1.701,-0.106
1.702,-0.106
1.703,-0.106
1.704,-0.109
1.705,-0.106
1.706,-0.103
1.707,-0.100
1.708,-0.094
1.709,-0.094
1.710,-0.094
1.711,-0.094
1.712,-0.097
1.713,-0.097
1.714,-0.098
1.715,-0.100
1.716,-0.097
1.717,-0.094
1.718,-0.088
1.719,-0.084
1.720,-0.086
1.721,-0.088
1.722,-0.089
1.723,-0.088
1.724,-0.086
1.725,-0.088
1.726,-0.088
1.727,-0.088
1.728,-0.083
1.729,-0.078
1.730,-0.079
1.731,-0.078
1.732,-0.078
1.733,-0.081
1.734,-0.080
1.735,-0.081
1.736,-0.081
1.737,-0.084
1.738,-0.081
1.739,-0.072
1.740,-0.072
1.741,-0.066
1.742,-0.067
1.743,-0.072
1.744,-0.069
1.745,-0.069
1.746,-0.067
1.747,-0.066
1.748,-0.070
1.749,-0.072
1.750,-0.073
1.751,-0.075
1.752,-0.073
1.753,-0.075
1.754,-0.071
1.755,-0.069
1.756,-0.069
1.757,-0.069
1.758,-0.070
1.759,-0.072
1.760,-0.067
1.761,-0.063
1.762,-0.063
1.763,-0.063
1.764,-0.064
1.765,-0.066
1.766,-0.067
1.767,-0.069
1.768,-0.069
1.769,-0.069
1.770,-0.070
1.771,-0.072
1.772,-0.072
1.773,-0.069
1.774,-0.072
1.775,-0.072
1.776,-0.073
1.777,-0.075
1.778,-0.072
1.779,-0.072
1.780,-0.069
1.781,-0.066
1.782,-0.069
1.783,-0.069
1.784,-0.069
1.785,-0.066
1.786,-0.066
1.787,-0.066
1.788,-0.061
1.789,-0.059
1.790,-0.056
1.791,-0.056
1.792,-0.053
1.793,-0.056
1.794,-0.056
1.795,-0.056
1.796,-0.052
1.797,-0.050
1.798,-0.051
1.799,-0.050
1.800,-0.051
1.801,-0.053
1.802,-0.054
1.803,-0.056
1.804,-0.050
1.805,-0.047
1.806,-0.048
1.807,-0.050
1.808,-0.048
1.809,-0.050
1.810,-0.047
1.811,-0.047
1.812,-0.050
1.813,-0.050
1.814,-0.049
1.815,-0.047
1.816,-0.045
1.817,-0.047
1.818,-0.044
1.819,-0.044
1.820,-0.042
1.821,-0.044
1.822,-0.045
1.823,-0.047
1.824,-0.048
1.825,-0.047
1.826,-0.044
1.827,-0.038
1.828,-0.033
1.829,-0.034
1.830,-0.036
1.831,-0.038
1.832,-0.036
1.833,-0.034
1.834,-0.034
1.835,-0.031
1.836,-0.024
1.837,-0.019
1.838,-0.020
1.839,-0.019
1.840,-0.018
1.841,-0.016
1.842,-0.017
1.843,-0.019
1.844,-0.020
1.845,-0.022
1.846,-0.018
1.847,-0.013
1.848,-0.009
1.849,-0.013
1.850,-0.014
1.851,-0.013
1.852,-0.011
1.853,-0.013
1.854,-0.011
1.855,-0.013
1.856,-0.009
1.857,-0.009
1.858,-0.014
1.859,-0.016
1.860,-0.017
1.861,-0.016
1.862,-0.020
1.863,-0.022
1.864,-0.016
1.865,-0.016
1.866,-0.016
1.867,-0.013
1.868,-0.011
1.869,-0.013
1.870,-0.011
1.871,-0.013
1.872,-0.013
1.873,-0.009
1.874,-0.003
1.875,-0.003
1.876,-0.003
1.877,-0.006
1.878,-0.003
1.879,0.000
1.880,0.000
1.881,0.000
1.882,0.000
1.883,0.000
1.884,-0.004
1.885,-0.009
1.886,-0.011
1.887,-0.016
1.888,-0.016
1.889,-0.019
1.890,-0.013
1.891,-0.013
1.892,-0.013
1.893,-0.016
1.894,-0.013
1.895,-0.013
1.896,-0.013
1.897,-0.013
1.898,-0.013
1.899,-0.013
1.900,-0.009
1.901,-0.006
1.902,-0.002
1.903,0.003
1.904,-0.001
1.905,-0.003
1.906,-0.006
1.907,-0.006
1.908,-0.005
1.909,-0.003
1.910,-0.001
1.911,-0.003
1.912,-0.001
1.913,-0.003
1.914,-0.001
1.915,0.000
1.916,0.001
1.917,0.009
1.918,0.008
1.919,0.000
1.920,0.005
1.921,0.003
1.922,0.002
1.923,0.000
1.924,0.007
1.925,0.009
1.926,0.016
1.927,0.019
1.928,0.024
1.929,0.019
1.930,0.022
1.931,0.022
1.932,0.024
1.933,0.022
1.934,0.024
1.935,0.025
1.936,0.027
1.937,0.025
1.938,0.021
1.939,0.022
1.940,0.019
1.941,0.019
1.942,0.022
1.943,0.022
1.944,0.025
1.945,0.025
1.946,0.029
1.947,0.034
1.948,0.036
1.949,0.031
1.950,0.028
1.951,0.028
1.952,0.029
1.953,0.028
1.954,0.028
1.955,0.034
1.956,0.036
1.957,0.038
1.958,0.033
1.959,0.031
1.960,0.033
1.961,0.031
1.962,0.028
1.963,0.025
1.964,0.022
1.965,0.022
1.966,0.025
1.967,0.025
1.968,0.023
1.969,0.022
1.970,0.023
1.971,0.022
1.972,0.022
1.973,0.022
1.974,0.019
1.975,0.019
1.976,0.016
1.977,0.016
1.978,0.013
1.979,0.013
1.980,0.011
1.981,0.013
1.982,0.008
1.983,0.009
1.984,0.009
1.985,0.013
1.986,0.014
1.987,0.013
1.988,0.011
1.989,0.009
1.990,0.013
1.991,0.009
1.992,0.005
1.993,0.003
1.994,0.001
1.995,0.003
1.996,0.003
1.997,0.003
1.998,0.000
1.999,-0.003
2.000,-0.002
2.001,0.000
2.002,0.001
2.003,0.003
2.004,-0.007
2.005,-0.013
2.006,-0.008
2.007,-0.006
2.008,-0.005
2.009,-0.006
2.010,-0.007
2.011,-0.009
2.012,-0.009
2.013,-0.006
2.014,-0.002
2.015,0.000
2.016,-0.003
2.017,-0.006
2.018,-0.009
2.019,-0.013
2.020,-0.013
2.021,-0.013
2.022,-0.014
2.023,-0.016
2.024,-0.014
2.025,-0.013
2.026,-0.011
2.027,-0.009
2.028,-0.008
2.029,-0.003
2.030,0.001
2.031,0.000
2.032,-0.003
2.033,-0.009
2.034,-0.016
2.035,-0.016
2.036,-0.014
2.037,-0.016
2.038,-0.017
2.039,-0.019
2.040,-0.016
2.041,-0.016
2.042,-0.020
2.043,-0.022
2.044,-0.021
2.045,-0.022
2.046,-0.019
2.047,-0.016
2.048,-0.020
2.049,-0.022
2.050,-0.021
2.051,-0.016
2.052,-0.020
2.053,-0.022
2.054,-0.020
2.055,-0.028
2.056,-0.028
2.057,-0.028
2.058,-0.028
2.059,-0.031
2.060,-0.028
2.061,-0.031
2.062,-0.031
2.063,-0.034
2.064,-0.033
2.065,-0.034
2.066,-0.032
2.067,-0.034
2.068,-0.036
2.069,-0.041
2.070,-0.045
2.071,-0.050
2.072,-0.047
2.073,-0.044
2.074,-0.047
2.075,-0.047
2.076,-0.044
2.077,-0.041
2.078,-0.036
2.079,-0.034
2.080,-0.034
2.081,-0.034
2.082,-0.038
2.083,-0.038
2.084,-0.038
2.085,-0.041
2.086,-0.047
2.087,-0.053
2.088,-0.057
2.089,-0.056
2.090,-0.052
2.091,-0.047
2.092,-0.050
2.093,-0.047
2.094,-0.051
2.095,-0.050
2.096,-0.049
2.097,-0.041
2.098,-0.044
2.099,-0.050
2.100,-0.051
2.101,-0.050
2.102,-0.047
2.103,-0.050
2.104,-0.051
2.105,-0.053
2.106,-0.056
2.107,-0.056
2.108,-0.054
2.109,-0.056
2.110,-0.055
2.111,-0.056
2.112,-0.050
2.113,-0.044
2.114,-0.044
2.115,-0.044
2.116,-0.047
2.117,-0.047
2.118,-0.050
2.119,-0.053
2.120,-0.053
2.121,-0.053
2.122,-0.053
2.123,-0.050
2.124,-0.049
2.125,-0.050
2.126,-0.051
2.127,-0.053
2.128,-0.056
2.129,-0.056
2.130,-0.061
2.131,-0.066
2.132,-0.064
2.133,-0.063
2.134,-0.069
2.135,-0.069
2.136,-0.059
2.137,-0.056
2.138,-0.059
2.139,-0.059
2.140,-0.063
2.141,-0.066
2.142,-0.071
2.143,-0.069
2.144,-0.064
2.145,-0.063
2.146,-0.059
2.147,-0.056
2.148,-0.053
2.149,-0.056
2.150,-0.057
2.151,-0.059
2.152,-0.066
2.153,-0.066
2.154,-0.064
2.155,-0.066
2.156,-0.066
2.157,-0.059
2.158,-0.061
2.159,-0.066
2.160,-0.066
2.161,-0.069
2.162,-0.070
2.163,-0.072
2.164,-0.072
2.165,-0.072
2.166,-0.066
2.167,-0.059
2.168,-0.056
2.169,-0.053
2.170,-0.051
2.171,-0.050
2.172,-0.047
2.173,-0.041
2.174,-0.038
2.175,-0.031
2.176,-0.025
2.177,-0.019
2.178,-0.009
2.179,0.000
2.180,0.000
2.181,0.003
2.182,0.002
2.183,0.000
2.184,0.007
2.185,0.013
2.186,0.016
2.187,0.022
2.188,0.024
2.189,0.028
2.190,0.032
2.191,0.041
2.192,0.039
2.193,0.031
2.194,0.036
2.195,0.034
2.196,0.032
2.197,0.034
2.198,0.036
2.199,0.038
2.200,0.041
2.201,0.044
2.202,0.050
2.203,0.059
2.204,0.061
2.205,0.066
2.206,0.076
2.207,0.081
2.208,0.078
2.209,0.081
2.210,0.089
2.211,0.097
2.212,0.108
2.213,0.122
2.214,0.128
2.215,0.137
2.216,0.150
2.217,0.159
2.218,0.172
2.219,0.181
2.220,0.183
2.221,0.187
2.222,0.194
2.223,0.184
2.224,0.186
2.225,0.184
2.226,0.182
2.227,0.178
2.228,0.174
2.229,0.169
2.230,0.166
2.231,0.166
2.232,0.170
2.233,0.166
2.234,0.169
2.235,0.166
2.236,0.159
2.237,0.156
2.238,0.147
2.239,0.141
2.240,0.134
2.241,0.125
2.242,0.119
2.243,0.109
2.244,0.094
2.245,0.081
2.246,0.069
2.247,0.056
2.248,0.042
2.249,0.028
2.250,0.017
2.251,0.013
2.252,0.000
2.253,-0.013
2.254,-0.021
2.255,-0.025
2.256,-0.039
2.257,-0.053
2.258,-0.061
2.259,-0.066
2.260,-0.069
2.261,-0.069
2.262,-0.066
2.263,-0.069
2.264,-0.070
2.265,-0.075
2.266,-0.078
2.267,-0.078
2.268,-0.077
2.269,-0.078
2.270,-0.088
2.271,-0.091
2.272,-0.091
2.273,-0.097
2.274,-0.097
2.275,-0.094
2.276,-0.086
2.277,-0.078
2.278,-0.071
2.279,-0.069
2.280,-0.073
2.281,-0.075
2.282,-0.079
2.283,-0.088
2.284,-0.088
2.285,-0.088
2.286,-0.092
2.287,-0.097
2.288,-0.097
2.289,-0.100
2.290,-0.091
2.291,-0.088
2.292,-0.092
2.293,-0.097
2.294,-0.089
2.295,-0.091
2.296,-0.086
2.297,-0.084
2.298,-0.089
2.299,-0.088
2.300,-0.089
2.301,-0.084
2.302,-0.086
2.303,-0.088
2.304,-0.089
2.305,-0.091
2.306,-0.094
2.307,-0.094
2.308,-0.095
2.309,-0.097
2.310,-0.096
2.311,-0.097
2.312,-0.097
2.313,-0.097
2.314,-0.098
2.315,-0.097
2.316,-0.098
2.317,-0.100
2.318,-0.097
2.319,-0.097
2.320,-0.100
2.321,-0.088
2.322,-0.077
2.323,-0.066
2.324,-0.052
2.325,-0.031
2.326,-0.014
2.327,0.003
2.328,0.028
2.329,0.047
2.330,0.072
2.331,0.088
2.332,0.095
2.333,0.094
2.334,0.094
2.335,0.091
2.336,0.088
2.337,0.088
2.338,0.086
2.339,0.094
2.340,0.123
2.341,0.166
2.342,0.217
2.343,0.275
2.344,0.337
2.345,0.416
2.346,0.508
2.347,0.631
2.348,0.769
2.349,0.909
2.350,1.078
2.351,1.225
2.352,1.301
2.353,1.309
2.354,1.238
2.355,1.125
2.356,1.041
2.357,0.997
2.358,0.944
2.359,0.853
2.360,0.750
2.361,0.653
2.362,0.574
2.363,0.497
2.364,0.402
2.365,0.309
2.366,0.209
2.367,0.128
2.368,0.081
2.369,0.044
2.370,0.003
2.371,-0.034
2.372,-0.064
2.373,-0.084
2.374,-0.102
2.375,-0.125
2.376,-0.158
2.377,-0.194
2.378,-0.224
2.379,-0.250
2.380,-0.275
2.381,-0.306
2.382,-0.331
2.383,-0.344
2.384,-0.352
2.385,-0.353
2.386,-0.347
2.387,-0.331
2.388,-0.311
2.389,-0.288
2.390,-0.267
2.391,-0.253
2.392,-0.236
2.393,-0.222
2.394,-0.213
2.395,-0.197
2.396,-0.183
2.397,-0.169
2.398,-0.164
2.399,-0.166
2.400,-0.156
2.401,-0.153
2.402,-0.143
2.403,-0.131
2.404,-0.128
2.405,-0.119
2.406,-0.109
2.407,-0.097
2.408,-0.098
2.409,-0.100
2.410,-0.097
2.411,-0.097
2.412,-0.094
2.413,-0.094
2.414,-0.094
2.415,-0.094
2.416,-0.089
2.417,-0.091
2.418,-0.092
2.419,-0.088
2.420,-0.086
2.421,-0.084
2.422,-0.081
2.423,-0.078
2.424,-0.072
2.425,-0.069
2.426,-0.070
2.427,-0.072
2.428,-0.072
2.429,-0.072
2.430,-0.074
2.431,-0.069
2.432,-0.064
2.433,-0.063
2.434,-0.055
2.435,-0.050
2.436,-0.063
2.437,-0.069
2.438,-0.064
2.439,-0.063
2.440,-0.058
2.441,-0.053
2.442,-0.051
2.443,-0.053
2.444,-0.055
2.445,-0.053
2.446,-0.056
2.447,-0.053
2.448,-0.054
2.449,-0.056
2.450,-0.051
2.451,-0.056
2.452,-0.057
2.453,-0.063
2.454,-0.064
2.455,-0.059
2.456,-0.064
2.457,-0.069
2.458,-0.067
2.459,-0.069
2.460,-0.066
2.461,-0.063
2.462,-0.058
2.463,-0.050
2.464,-0.050
2.465,-0.047
2.466,-0.046
2.467,-0.044
2.468,-0.042
2.469,-0.041
2.470,-0.042
2.471,-0.044
2.472,-0.050
2.473,-0.056
2.474,-0.055
2.475,-0.053
2.476,-0.052
2.477,-0.050
2.478,-0.051
2.479,-0.053
2.480,-0.053
2.481,-0.053
2.482,-0.049
2.483,-0.044
2.484,-0.041
2.485,-0.044
2.486,-0.050
2.487,-0.056
2.488,-0.056
2.489,-0.053
2.490,-0.053
2.491,-0.053
2.492,-0.052
2.493,-0.053
2.494,-0.053
2.495,-0.053
2.496,-0.051
2.497,-0.053
2.498,-0.049
2.499,-0.041
2.500,-0.039
2.501,-0.034
2.502,-0.036
2.503,-0.034
2.504,-0.039
2.505,-0.041
2.506,-0.045
2.507,-0.047
2.508,-0.048
2.509,-0.050
2.510,-0.048
2.511,-0.050
2.512,-0.042
2.513,-0.034
2.514,-0.038
2.515,-0.038
2.516,-0.039
2.517,-0.041
2.518,-0.038
2.519,-0.031
2.520,-0.034
2.521,-0.034
2.522,-0.034
2.523,-0.038
2.524,-0.038
2.525,-0.038
2.526,-0.036
2.527,-0.031
2.528,-0.025
2.529,-0.016
2.530,-0.016
2.531,-0.013
2.532,-0.013
2.533,-0.013
2.534,-0.014
2.535,-0.016
2.536,-0.005
2.537,0.003
2.538,0.006
2.539,0.009
2.540,0.007
2.541,0.009
2.542,0.008
2.543,0.009
2.544,0.019
2.545,0.022
2.546,0.016
2.547,0.013
2.548,0.003
2.549,-0.006
2.550,-0.006
2.551,-0.009
2.552,-0.005
2.553,0.000
2.554,0.000
2.555,0.000
2.556,-0.001
2.557,0.000
2.558,0.004
2.559,0.009
2.560,0.007
2.561,0.009
2.562,0.013
2.563,0.013
2.564,0.005
2.565,0.003
2.566,0.009
2.567,0.019
2.568,0.023
2.569,0.025
2.570,0.026
2.571,0.028
2.572,0.032
2.573,0.031
2.574,0.028
2.575,0.028
2.576,0.024
2.577,0.025
2.578,0.032
2.579,0.034
2.580,0.031
2.581,0.031
2.582,0.028
2.583,0.028
2.584,0.021
2.585,0.013
2.586,0.011
2.587,0.016
2.588,0.019
2.589,0.022
2.590,0.025
2.591,0.028
2.592,0.028
2.593,0.028
2.594,0.028
2.595,0.028
2.596,0.022
2.597,0.019
2.598,0.016
2.599,0.013
2.600,0.017
2.601,0.028
2.602,0.029
2.603,0.034
2.604,0.030
2.605,0.031
2.606,0.034
2.607,0.038
2.608,0.039
2.609,0.041
2.610,0.038
2.611,0.034
2.612,0.033
2.613,0.031
2.614,0.030
2.615,0.028
2.616,0.031
2.617,0.028
2.618,0.028
2.619,0.028
2.620,0.028
2.621,0.031
2.622,0.038
2.623,0.047
2.624,0.044
2.625,0.044
2.626,0.047
2.627,0.044
2.628,0.046
2.629,0.047
2.630,0.051
2.631,0.066
2.632,0.067
2.633,0.069
2.634,0.063
2.635,0.063
2.636,0.061
2.637,0.063
2.638,0.066
2.639,0.075
2.640,0.069
2.641,0.069
2.642,0.058
2.643,0.050
2.644,0.057
2.645,0.069
2.646,0.073
2.647,0.078
2.648,0.079
2.649,0.078
2.650,0.078
2.651,0.075
2.652,0.083
2.653,0.091
2.654,0.089
2.655,0.091
2.656,0.086
2.657,0.081
2.658,0.080
2.659,0.081
2.660,0.078
2.661,0.078
2.662,0.075
2.663,0.069
2.664,0.066
2.665,0.066
2.666,0.072
2.667,0.069
2.668,0.072
2.669,0.078
2.670,0.084
2.671,0.091
2.672,0.091
2.673,0.091
2.674,0.089
2.675,0.084
2.676,0.083
2.677,0.084
2.678,0.083
2.679,0.078
2.680,0.071
2.681,0.066
2.682,0.064
2.683,0.066
2.684,0.064
2.685,0.063
2.686,0.063
2.687,0.056
2.688,0.066
2.689,0.072
2.690,0.071
2.691,0.066
2.692,0.052
2.693,0.034
2.694,0.039
2.695,0.038
2.696,0.041
2.697,0.044
2.698,0.044
2.699,0.044
2.700,0.042
2.701,0.047
2.702,0.051
2.703,0.059
2.704,0.063
2.705,0.059
2.706,0.058
2.707,0.053
2.708,0.042
2.709,0.034
2.710,0.034
2.711,0.034
2.712,0.034
2.713,0.034
2.714,0.036
2.715,0.031
2.716,0.031
2.717,0.031
2.718,0.032
2.719,0.038
2.720,0.033
2.721,0.031
2.722,0.021
2.723,0.006
2.724,0.009
2.725,0.016
2.726,0.022
2.727,0.025
2.728,0.021
2.729,0.019
2.730,0.023
2.731,0.028
2.732,0.024
2.733,0.019
2.734,0.019
2.735,0.019
2.736,0.018
2.737,0.013
2.738,0.014
2.739,0.016
2.740,0.020
2.741,0.028
2.742,0.022
2.743,0.019
2.744,0.014
2.745,0.009
2.746,0.011
2.747,0.009
2.748,0.003
2.749,0.000
2.750,-0.003
2.751,-0.003
2.752,0.003
2.753,0.006
2.754,0.005
2.755,0.003
2.756,0.001
2.757,0.003
2.758,0.004
2.759,0.003
2.760,0.002
2.761,0.000
2.762,0.006
2.763,0.006
2.764,0.005
2.765,0.006
2.766,-0.003
2.767,-0.006
2.768,-0.003
2.769,0.000
2.770,-0.003
2.771,0.000
2.772,-0.004
2.773,-0.006
2.774,-0.011
2.775,-0.013
2.776,-0.017
2.777,-0.016
2.778,-0.014
2.779,-0.013
2.780,-0.016
2.781,-0.019
2.782,-0.023
2.783,-0.025
2.784,-0.028
2.785,-0.031
2.786,-0.025
2.787,-0.022
2.788,-0.021
2.789,-0.019
2.790,-0.022
2.791,-0.022
2.792,-0.022
2.793,-0.025
2.794,-0.021
2.795,-0.016
2.796,-0.023
2.797,-0.028
2.798,-0.028
2.799,-0.031
2.800,-0.027
2.801,-0.025
2.802,-0.025
2.803,-0.028
2.804,-0.026
2.805,-0.031
2.806,-0.028
2.807,-0.031
2.808,-0.027
2.809,-0.028
2.810,-0.038
2.811,-0.041
2.812,-0.039
2.813,-0.038
2.814,-0.041
2.815,-0.041
2.816,-0.041
2.817,-0.044
2.818,-0.042
2.819,-0.038
2.820,-0.039
2.821,-0.041
2.822,-0.044
2.823,-0.044
2.824,-0.041
2.825,-0.038
2.826,-0.041
2.827,-0.044
2.828,-0.045
2.829,-0.044
2.830,-0.045
2.831,-0.050
2.832,-0.050
2.833,-0.050
2.834,-0.050
2.835,-0.047
2.836,-0.054
2.837,-0.063
2.838,-0.063
2.839,-0.063
2.840,-0.063
2.841,-0.056
2.842,-0.046
2.843,-0.041
2.844,-0.039
2.845,-0.034
2.846,-0.033
2.847,-0.031
2.848,-0.044
2.849,-0.050
2.850,-0.047
2.851,-0.047
2.852,-0.044
2.853,-0.041
2.854,-0.042
2.855,-0.050
2.856,-0.049
2.857,-0.047
2.858,-0.047
2.859,-0.041
2.860,-0.036
2.861,-0.034
2.862,-0.039
2.863,-0.038
2.864,-0.036
2.865,-0.038
2.866,-0.042
2.867,-0.050
2.868,-0.050
2.869,-0.050
2.870,-0.050
2.871,-0.050
2.872,-0.047
2.873,-0.044
2.874,-0.041
2.875,-0.038
2.876,-0.038
2.877,-0.038
2.878,-0.039
2.879,-0.038
2.880,-0.028
2.881,-0.016
2.882,-0.002
2.883,0.013
2.884,0.019
2.885,0.025
2.886,0.019
2.887,0.016
2.888,0.026
2.889,0.038
2.890,0.048
2.891,0.056
2.892,0.057
2.893,0.063
2.894,0.064
2.895,0.069
2.896,0.071
2.897,0.075
2.898,0.077
2.899,0.072
2.900,0.079
2.901,0.081
2.902,0.086
2.903,0.094
2.904,0.092
2.905,0.091
2.906,0.089
2.907,0.088
2.908,0.084
2.909,0.084
2.910,0.088
2.911,0.094
2.912,0.104
2.913,0.109
2.914,0.114
2.915,0.125
2.916,0.124
2.917,0.122
2.918,0.124
2.919,0.128
2.920,0.136
2.921,0.147
2.922,0.161
2.923,0.172
2.924,0.189
2.925,0.203
2.926,0.205
2.927,0.209
2.928,0.225
2.929,0.225
2.930,0.222
2.931,0.216
2.932,0.217
2.933,0.216
2.934,0.214
2.935,0.213
2.936,0.205
2.937,0.200
2.938,0.204
2.939,0.200
2.940,0.203
2.941,0.200
2.942,0.193
2.943,0.187
2.944,0.179
2.945,0.175
2.946,0.159
2.947,0.141
2.948,0.130
2.949,0.116
2.950,0.106
2.951,0.100
2.952,0.089
2.953,0.078
2.954,0.067
2.955,0.056
2.956,0.044
2.957,0.038
2.958,0.025
2.959,0.013
2.960,0.011
2.961,0.013
2.962,0.006
2.963,0.000
2.964,-0.007
2.965,-0.013
2.966,-0.014
2.967,-0.013
2.968,-0.009
2.969,-0.013
2.970,-0.017
2.971,-0.025
2.972,-0.029
2.973,-0.031
2.974,-0.039
2.975,-0.050
2.976,-0.057
2.977,-0.059
2.978,-0.056
2.979,-0.059
2.980,-0.059
2.981,-0.056
2.982,-0.061
2.983,-0.066
2.984,-0.063
2.985,-0.066
2.986,-0.076
2.987,-0.084
2.988,-0.089
2.989,-0.097
2.990,-0.091
2.991,-0.084
2.992,-0.078
2.993,-0.072
2.994,-0.059
2.995,-0.050
2.996,-0.046
2.997,-0.047
2.998,-0.056
2.999,-0.066
3.000,-0.061
3.001,-0.066
3.002,-0.058
3.003,-0.053
3.004,-0.057
3.005,-0.056
3.006,-0.066
3.007,-0.069
3.008,-0.069
3.009,-0.069
3.010,-0.069
3.011,-0.069
3.012,-0.070
3.013,-0.069
3.014,-0.069
3.015,-0.069
3.016,-0.067
3.017,-0.069
3.018,-0.073
3.019,-0.078
3.020,-0.084
3.021,-0.088
3.022,-0.088
3.023,-0.088
3.024,-0.083
3.025,-0.081
3.026,-0.088
3.027,-0.078
3.028,-0.066
3.029,-0.053
3.030,-0.034
3.031,-0.009
3.032,0.006
3.033,0.022
3.034,0.050
3.035,0.072
3.036,0.091
3.037,0.100
3.038,0.103
3.039,0.097
3.040,0.096
3.041,0.091
3.042,0.084
3.043,0.081
3.044,0.084
3.045,0.097
3.046,0.117
3.047,0.150
3.048,0.193
3.049,0.241
3.050,0.306
3.051,0.387
3.052,0.497
3.053,0.638
3.054,0.789
3.055,0.944
3.056,1.097
3.057,1.228
3.058,1.281
3.059,1.266
3.060,1.184
3.061,1.063
3.062,0.966
3.063,0.909
3.064,0.842
3.065,0.737
3.066,0.651
3.067,0.572
3.068,0.491
3.069,0.413
3.070,0.329
3.071,0.250
3.072,0.169
3.073,0.106
3.074,0.066
3.075,0.034
3.076,0.001
3.077,-0.028
3.078,-0.053
3.079,-0.069
3.080,-0.088
3.081,-0.112
3.082,-0.147
3.083,-0.184
3.084,-0.216
3.085,-0.244
3.086,-0.270
3.087,-0.303
3.088,-0.322
3.089,-0.328
3.090,-0.341
3.091,-0.347
3.092,-0.345
3.093,-0.334
3.094,-0.317
3.095,-0.297
3.096,-0.281
3.097,-0.272
3.098,-0.255
3.099,-0.241
3.100,-0.227
3.101,-0.206
3.102,-0.195
3.103,-0.184
3.104,-0.161
3.105,-0.144
3.106,-0.133
3.107,-0.128
3.108,-0.126
3.109,-0.125
3.110,-0.116
3.111,-0.100
3.112,-0.096
3.113,-0.088
3.114,-0.089
3.115,-0.091
3.116,-0.089
3.117,-0.091
3.118,-0.095
3.119,-0.103
3.120,-0.108
3.121,-0.112
3.122,-0.112
3.123,-0.119
3.124,-0.122
3.125,-0.119
3.126,-0.119
3.127,-0.119
3.128,-0.120
3.129,-0.122
3.130,-0.120
3.131,-0.122
3.132,-0.117
3.133,-0.112
3.134,-0.111
3.135,-0.109
3.136,-0.112
3.137,-0.109
3.138,-0.106
3.139,-0.106
3.140,-0.100
3.141,-0.097
3.142,-0.097
3.143,-0.091
3.144,-0.084
3.145,-0.081
3.146,-0.081
3.147,-0.081
3.148,-0.077
3.149,-0.075
3.150,-0.069
3.151,-0.059
3.152,-0.066
3.153,-0.066
3.154,-0.072
3.155,-0.078
3.156,-0.076
3.157,-0.084
3.158,-0.088
3.159,-0.094
3.160,-0.100
3.161,-0.100
3.162,-0.100
3.163,-0.100
3.164,-0.101
3.165,-0.106
3.166,-0.105
3.167,-0.103
3.168,-0.100
3.169,-0.094
3.170,-0.095
3.171,-0.094
3.172,-0.091
3.173,-0.088
3.174,-0.089
3.175,-0.091
3.176,-0.092
3.177,-0.094
3.178,-0.091
3.179,-0.088
3.180,-0.086
3.181,-0.084
3.182,-0.088
3.183,-0.091
3.184,-0.094
3.185,-0.097
3.186,-0.096
3.187,-0.094
3.188,-0.094
3.189,-0.094
3.190,-0.091
3.191,-0.094
3.192,-0.094
3.193,-0.094
3.194,-0.094
3.195,-0.091
3.196,-0.094
3.197,-0.097
3.198,-0.098
3.199,-0.103
3.200,-0.099
3.201,-0.094
3.202,-0.091
3.203,-0.091
3.204,-0.091
3.205,-0.088
3.206,-0.091
3.207,-0.091
3.208,-0.086
3.209,-0.078
3.210,-0.077
3.211,-0.072
3.212,-0.075
3.213,-0.075
3.214,-0.072
3.215,-0.069
3.216,-0.066
3.217,-0.066
3.218,-0.066
3.219,-0.066
3.220,-0.070
3.221,-0.072
3.222,-0.071
3.223,-0.069
3.224,-0.070
3.225,-0.069
3.226,-0.066
3.227,-0.059
3.228,-0.058
3.229,-0.059
3.230,-0.059
3.231,-0.059
3.232,-0.059
3.233,-0.056
3.234,-0.057
3.235,-0.056
3.236,-0.059
3.237,-0.059
3.238,-0.058
3.239,-0.056
3.240,-0.049
3.241,-0.041
3.242,-0.041
3.243,-0.044
3.244,-0.044
3.245,-0.044
3.246,-0.048
3.247,-0.050
3.248,-0.053
3.249,-0.053
3.250,-0.049
3.251,-0.050
3.252,-0.046
3.253,-0.038
3.254,-0.031
3.255,-0.025
3.256,-0.023
3.257,-0.025
3.258,-0.029
3.259,-0.034
3.260,-0.033
3.261,-0.031
3.262,-0.031
3.263,-0.028
3.264,-0.028
3.265,-0.028
3.266,-0.032
3.267,-0.034
3.268,-0.031
3.269,-0.031
3.270,-0.028
3.271,-0.019
3.272,-0.020
3.273,-0.019
3.274,-0.019
3.275,-0.022
3.276,-0.023
3.277,-0.025
3.278,-0.021
3.279,-0.022
3.280,-0.025
3.281,-0.025
3.282,-0.028
3.283,-0.025
3.284,-0.018
3.285,-0.016
3.286,-0.026
3.287,-0.034
3.288,-0.039
3.289,-0.041
3.290,-0.038
3.291,-0.034
3.292,-0.038
3.293,-0.034
3.294,-0.036
3.295,-0.038
3.296,-0.041
3.297,-0.044
3.298,-0.042
3.299,-0.041
3.300,-0.041
3.301,-0.041
3.302,-0.041
3.303,-0.038
3.304,-0.039
3.305,-0.041
3.306,-0.044
3.307,-0.041
3.308,-0.041
3.309,-0.038
3.310,-0.034
3.311,-0.025
3.312,-0.026
3.313,-0.028
3.314,-0.029
3.315,-0.031
3.316,-0.031
3.317,-0.031
3.318,-0.031
3.319,-0.031
3.320,-0.031
3.321,-0.031
3.322,-0.028
3.323,-0.031
3.324,-0.036
3.325,-0.041
3.326,-0.044
3.327,-0.044
3.328,-0.044
3.329,-0.041
3.330,-0.036
3.331,-0.028
3.332,-0.026
3.333,-0.031
3.334,-0.036
3.335,-0.041
3.336,-0.048
3.337,-0.047
3.338,-0.047
3.339,-0.047
3.340,-0.044
3.341,-0.034
3.342,-0.036
3.343,-0.034
3.344,-0.036
3.345,-0.031
3.346,-0.025
3.347,-0.013
3.348,-0.014
3.349,-0.013
3.350,-0.016
3.351,-0.016
3.352,-0.014
3.353,-0.013
3.354,-0.013
3.355,-0.016
3.356,-0.013
3.357,-0.013
3.358,-0.013
3.359,-0.013
3.360,-0.016
3.361,-0.016
3.362,-0.014
3.363,-0.013
3.364,-0.006
3.365,0.003
3.366,0.000
3.367,0.000
3.368,0.003
3.369,0.003
3.370,0.000
3.371,0.000
3.372,0.006
3.373,0.003
3.374,-0.003
3.375,-0.006
3.376,-0.004
3.377,-0.003
3.378,0.000
3.379,0.003
3.380,0.003
3.381,0.000
3.382,-0.006
3.383,-0.009
3.384,0.003
3.385,0.013
3.386,0.008
3.387,0.006
3.388,0.000
3.389,-0.003
3.390,0.000
3.391,0.003
3.392,0.006
3.393,0.003
3.394,0.006
3.395,0.006
3.396,0.007
3.397,0.006
3.398,0.003
3.399,-0.003
3.400,0.004
3.401,0.006
3.402,0.003
3.403,0.000
3.404,-0.002
3.405,-0.003
3.406,-0.007
3.407,-0.006
3.408,-0.009
3.409,-0.009
3.410,-0.006
3.411,-0.009
3.412,-0.020
3.413,-0.034
3.414,-0.031
3.415,-0.025
3.416,-0.018
3.417,-0.009
3.418,-0.005
3.419,0.000
3.420,-0.001
3.421,-0.009
3.422,-0.014
3.423,-0.019
3.424,-0.022
3.425,-0.022
3.426,-0.021
3.427,-0.016
3.428,-0.009
3.429,-0.006
3.430,-0.007
3.431,-0.006
3.432,-0.006
3.433,-0.009
3.434,-0.013
3.435,-0.013
3.436,-0.014
3.437,-0.016
3.438,-0.013
3.439,-0.009
3.440,-0.006
3.441,-0.003
3.442,-0.003
3.443,-0.006
3.444,-0.008
3.445,-0.009
3.446,-0.009
3.447,-0.006
3.448,-0.009
3.449,-0.009
3.450,-0.013
3.451,-0.016
3.452,-0.017
3.453,-0.022
3.454,-0.024
3.455,-0.022
3.456,-0.019
3.457,-0.013
3.458,-0.014
3.459,-0.019
3.460,-0.014
3.461,-0.009
3.462,-0.011
3.463,-0.009
3.464,-0.009
3.465,-0.013
3.466,-0.013
3.467,-0.013
3.468,-0.009
3.469,-0.013
3.470,-0.016
3.471,-0.016
3.472,-0.021
3.473,-0.019
3.474,-0.018
3.475,-0.016
3.476,-0.019
3.477,-0.016
3.478,-0.022
3.479,-0.025
3.480,-0.028
3.481,-0.028
3.482,-0.031
3.483,-0.028
3.484,-0.028
3.485,-0.028
3.486,-0.030
3.487,-0.031
3.488,-0.034
3.489,-0.034
3.490,-0.034
3.491,-0.034
3.492,-0.032
3.493,-0.034
3.494,-0.038
3.495,-0.041
3.496,-0.044
3.497,-0.044
3.498,-0.042
3.499,-0.044
3.500,-0.047
3.501,-0.050
3.502,-0.052
3.503,-0.050
3.504,-0.046
3.505,-0.044
3.506,-0.041
3.507,-0.041
3.508,-0.042
3.509,-0.044
3.510,-0.046
3.511,-0.047
3.512,-0.053
3.513,-0.056
3.514,-0.059
3.515,-0.066
3.516,-0.061
3.517,-0.056
3.518,-0.055
3.519,-0.050
3.520,-0.049
3.521,-0.047
3.522,-0.036
3.523,-0.025
3.524,-0.027
3.525,-0.022
3.526,-0.020
3.527,-0.025
3.528,-0.031
3.529,-0.034
3.530,-0.041
3.531,-0.047
3.532,-0.056
3.533,-0.059
3.534,-0.056
3.535,-0.056
3.536,-0.057
3.537,-0.059
3.538,-0.055
3.539,-0.056
3.540,-0.056
3.541,-0.056
3.542,-0.067
3.543,-0.072
3.544,-0.069
3.545,-0.069
3.546,-0.070
3.547,-0.066
3.548,-0.066
3.549,-0.069
3.550,-0.059
3.551,-0.053
3.552,-0.053
3.553,-0.053
3.554,-0.056
3.555,-0.059
3.556,-0.061
3.557,-0.063
3.558,-0.061
3.559,-0.059
3.560,-0.055
3.561,-0.050
3.562,-0.047
3.563,-0.041
3.564,-0.036
3.565,-0.028
3.566,-0.019
3.567,-0.009
3.568,-0.006
3.569,-0.003
3.570,0.000
3.571,0.006
3.572,0.011
3.573,0.016
3.574,0.021
3.575,0.022
3.576,0.021
3.577,0.022
3.578,0.026
3.579,0.034
3.580,0.034
3.581,0.038
3.582,0.050
3.583,0.056
3.584,0.063
3.585,0.063
3.586,0.053
3.587,0.047
3.588,0.047
3.589,0.047
3.590,0.051
3.591,0.056
3.592,0.056
3.593,0.059
3.594,0.059
3.595,0.063
3.596,0.075
3.597,0.081
3.598,0.084
3.599,0.094
3.600,0.097
3.601,0.100
3.602,0.117
3.603,0.137
3.604,0.141
3.605,0.147
3.606,0.152
3.607,0.153
3.608,0.179
3.609,0.203
3.610,0.208
3.611,0.216
3.612,0.221
3.613,0.209
3.614,0.206
3.615,0.200
3.616,0.193
3.617,0.181
3.618,0.180
3.619,0.178
3.620,0.175
3.621,0.175
3.622,0.179
3.623,0.175
3.624,0.176
3.625,0.172
3.626,0.164
3.627,0.159
3.628,0.156
3.629,0.156
3.630,0.150
3.631,0.141
3.632,0.131
3.633,0.119
3.634,0.099
3.635,0.081
3.636,0.072
3.637,0.063
3.638,0.053
3.639,0.044
3.640,0.024
3.641,0.009
3.642,0.000
3.643,-0.009
3.644,-0.016
3.645,-0.019
3.646,-0.027
3.647,-0.034
3.648,-0.045
3.649,-0.053
3.650,-0.059
3.651,-0.063
3.652,-0.059
3.653,-0.063
3.654,-0.064
3.655,-0.069
3.656,-0.071
3.657,-0.069
3.658,-0.067
3.659,-0.069
3.660,-0.073
3.661,-0.072
3.662,-0.069
3.663,-0.072
3.664,-0.074
3.665,-0.072
3.666,-0.076
3.667,-0.081
3.668,-0.079
3.669,-0.084
3.670,-0.089
3.671,-0.091
3.672,-0.089
3.673,-0.091
3.674,-0.091
3.675,-0.091
3.676,-0.089
3.677,-0.088
3.678,-0.088
3.679,-0.091
3.680,-0.095
3.681,-0.106
3.682,-0.109
3.683,-0.112
3.684,-0.099
3.685,-0.094
3.686,-0.086
3.687,-0.081
3.688,-0.089
3.689,-0.091
3.690,-0.097
3.691,-0.097
3.692,-0.096
3.693,-0.094
3.694,-0.095
3.695,-0.097
3.696,-0.098
3.697,-0.097
3.698,-0.096
3.699,-0.094
3.700,-0.095
3.701,-0.100
3.702,-0.103
3.703,-0.106
3.704,-0.099
3.705,-0.088
3.706,-0.080
3.707,-0.072
3.708,-0.073
3.709,-0.078
3.710,-0.088
3.711,-0.081
3.712,-0.066
3.713,-0.050
3.714,-0.048
3.715,-0.041
3.716,-0.023
3.717,-0.006
3.718,0.013
3.719,0.025
3.720,0.039
3.721,0.044
3.722,0.050
3.723,0.047
3.724,0.047
3.725,0.044
3.726,0.036
3.727,0.031
3.728,0.039
3.729,0.056
3.730,0.084
3.731,0.125
3.732,0.176
3.733,0.234
3.734,0.323
3.735,0.428
3.736,0.542
3.737,0.688
3.738,0.844
3.739,1.003
3.740,1.128
3.741,1.231
3.742,1.246
3.743,1.191
3.744,1.137
3.745,1.044
3.746,0.953
3.747,0.903
3.748,0.846
3.749,0.750
3.750,0.670
3.751,0.597
3.752,0.508
3.753,0.422
3.754,0.350
3.755,0.281
3.756,0.207
3.757,0.153
3.758,0.094
3.759,0.044
3.760,0.002
3.761,-0.038
3.762,-0.067
3.763,-0.088
3.764,-0.116
3.765,-0.150
3.766,-0.191
3.767,-0.234
3.768,-0.267
3.769,-0.297
3.770,-0.317
3.771,-0.344
3.772,-0.356
3.773,-0.356
3.774,-0.355
3.775,-0.347
3.776,-0.330
3.777,-0.303
3.778,-0.288
3.779,-0.269
3.780,-0.256
3.781,-0.250
3.782,-0.244
3.783,-0.241
3.784,-0.230
3.785,-0.213
3.786,-0.200
3.787,-0.187
3.788,-0.171
3.789,-0.159
3.790,-0.143
3.791,-0.131
3.792,-0.131
3.793,-0.131
3.794,-0.133
3.795,-0.128
3.796,-0.128
3.797,-0.125
3.798,-0.124
3.799,-0.122
3.800,-0.112
3.801,-0.106
3.802,-0.104
3.803,-0.106
3.804,-0.105
3.805,-0.103
3.806,-0.097
3.807,-0.097
3.808,-0.097
3.809,-0.091
3.810,-0.088
3.811,-0.084
3.812,-0.086
3.813,-0.088
3.814,-0.086
3.815,-0.088
3.816,-0.089
3.817,-0.091
3.818,-0.089
3.819,-0.088
3.820,-0.092
3.821,-0.091
3.822,-0.088
3.823,-0.088
3.824,-0.084
3.825,-0.084
3.826,-0.089
3.827,-0.088
3.828,-0.086
3.829,-0.088
3.830,-0.089
3.831,-0.091
3.832,-0.088
3.833,-0.088
3.834,-0.089
3.835,-0.088
3.836,-0.091
3.837,-0.088
3.838,-0.088
3.839,-0.088
3.840,-0.083
3.841,-0.088
3.842,-0.077
3.843,-0.069
3.844,-0.075
3.845,-0.075
3.846,-0.078
3.847,-0.081
3.848,-0.075
3.849,-0.072
3.850,-0.069
3.851,-0.066
3.852,-0.064
3.853,-0.059
3.854,-0.063
3.855,-0.063
3.856,-0.064
3.857,-0.066
3.858,-0.066
3.859,-0.066
3.860,-0.067
3.861,-0.069
3.862,-0.069
3.863,-0.069
3.864,-0.067
3.865,-0.066
3.866,-0.066
3.867,-0.066
3.868,-0.066
3.869,-0.066
3.870,-0.066
3.871,-0.066
3.872,-0.061
3.873,-0.056
3.874,-0.052
3.875,-0.053
3.876,-0.052
3.877,-0.050
3.878,-0.050
3.879,-0.047
3.880,-0.050
3.881,-0.053
3.882,-0.059
3.883,-0.069
3.884,-0.063
3.885,-0.056
3.886,-0.054
3.887,-0.056
3.888,-0.053
3.889,-0.047
3.890,-0.046
3.891,-0.041
3.892,-0.045
3.893,-0.047
3.894,-0.047
3.895,-0.044
3.896,-0.045
3.897,-0.044
3.898,-0.053
3.899,-0.063
3.900,-0.061
3.901,-0.063
3.902,-0.059
3.903,-0.056
3.904,-0.052
3.905,-0.044
3.906,-0.044
3.907,-0.044
3.908,-0.047
3.909,-0.047
3.910,-0.041
3.911,-0.031
3.912,-0.031
3.913,-0.034
3.914,-0.039
3.915,-0.044
3.916,-0.048
3.917,-0.050
3.918,-0.047
3.919,-0.041
3.920,-0.041
3.921,-0.038
3.922,-0.033
3.923,-0.028
3.924,-0.028
3.925,-0.028
3.926,-0.026
3.927,-0.028
3.928,-0.032
3.929,-0.038
3.930,-0.033
3.931,-0.025
3.932,-0.026
3.933,-0.025
3.934,-0.022
3.935,-0.025
3.936,-0.028
3.937,-0.028
3.938,-0.029
3.939,-0.031
3.940,-0.028
3.941,-0.028
3.942,-0.028
3.943,-0.028
3.944,-0.028
3.945,-0.028
3.946,-0.029
3.947,-0.028
3.948,-0.028
3.949,-0.028
3.950,-0.030
3.951,-0.028
3.952,-0.026
3.953,-0.028
3.954,-0.031
3.955,-0.028
3.956,-0.029
3.957,-0.028
3.958,-0.027
3.959,-0.028
3.960,-0.028
3.961,-0.028
3.962,-0.025
3.963,-0.028
3.964,-0.029
3.965,-0.028
3.966,-0.028
3.967,-0.022
3.968,-0.017
3.969,-0.019
3.970,-0.025
3.971,-0.028
3.972,-0.030
3.973,-0.028
3.974,-0.021
3.975,-0.013
3.976,-0.017
3.977,-0.016
3.978,-0.016
3.979,-0.016
3.980,-0.016
3.981,-0.016
3.982,-0.016
3.983,-0.016
3.984,-0.022
3.985,-0.028
3.986,-0.028
3.987,-0.025
3.988,-0.024
3.989,-0.022
3.990,-0.024
3.991,-0.019
3.992,-0.021
3.993,-0.019
3.994,-0.021
3.995,-0.016
3.996,-0.016
3.997,-0.016
3.998,-0.019
3.999,-0.022
4.000,-0.022
4.001,-0.022
4.002,-0.023
4.003,-0.025
4.004,-0.025
4.005,-0.025
4.006,-0.019
4.007,-0.019
4.008,-0.020
4.009,-0.022
4.010,-0.021
4.011,-0.016
4.012,-0.014
4.013,-0.009
4.014,-0.009
4.015,-0.006
4.016,-0.004
4.017,-0.009
4.018,-0.006
4.019,-0.003
4.020,-0.007
4.021,-0.003
4.022,0.000
4.023,0.003
4.024,0.000
4.025,0.003
4.026,0.002
4.027,0.003
4.028,0.006
4.029,0.016
4.030,0.013
4.031,0.016
4.032,0.014
4.033,0.016
4.034,0.016
4.035,0.019
4.036,0.021
4.037,0.022
4.038,0.023
4.039,0.022
4.040,0.025
4.041,0.025
4.042,0.028
4.043,0.031
4.044,0.036
4.045,0.044
4.046,0.044
4.047,0.044
4.048,0.041
4.049,0.041
4.050,0.038
4.051,0.038
4.052,0.042
4.053,0.044
4.054,0.041
4.055,0.041
4.056,0.051
4.057,0.053
4.058,0.049
4.059,0.047
4.060,0.047
4.061,0.047
4.062,0.047
4.063,0.047
4.064,0.048
4.065,0.047
4.066,0.044
4.067,0.044
4.068,0.044
4.069,0.041
4.070,0.039
4.071,0.041
4.072,0.039
4.073,0.041
4.074,0.039
4.075,0.038
4.076,0.038
4.077,0.031
4.078,0.031
4.079,0.028
4.080,0.031
4.081,0.031
4.082,0.031
4.083,0.028
4.084,0.031
4.085,0.028
4.086,0.028
4.087,0.028
4.088,0.028
4.089,0.028
4.090,0.025
4.091,0.028
4.092,0.019
4.093,0.013
4.094,0.016
4.095,0.013
4.096,0.014
4.097,0.013
4.098,0.009
4.099,0.009
4.100,0.009
4.101,0.009
4.102,0.006
4.103,0.003
4.104,0.009
4.105,0.009
4.106,0.009
4.107,0.009
4.108,0.003
4.109,0.000
4.110,-0.006
4.111,-0.009
4.112,-0.008
4.113,-0.009
4.114,-0.011
4.115,-0.009
4.116,-0.003
4.117,0.000
4.118,-0.003
4.119,-0.003
4.120,-0.004
4.121,-0.006
4.122,-0.006
4.123,-0.006
4.124,-0.005
4.125,-0.003
4.126,-0.003
4.127,-0.006
4.128,-0.009
4.129,-0.013
4.130,-0.013
4.131,-0.009
4.132,-0.013
4.133,-0.013
4.134,-0.014
4.135,-0.016
4.136,-0.013
4.137,-0.013
4.138,-0.017
4.139,-0.019
4.140,-0.020
4.141,-0.019
4.142,-0.019
4.143,-0.022
4.144,-0.022
4.145,-0.022
4.146,-0.025
4.147,-0.025
4.148,-0.025
4.149,-0.028
4.150,-0.027
4.151,-0.025
4.152,-0.022
4.153,-0.025
4.154,-0.028
4.155,-0.028
4.156,-0.033
4.157,-0.031
4.158,-0.034
4.159,-0.038
4.160,-0.042
4.161,-0.041
4.162,-0.041
4.163,-0.038
4.164,-0.042
4.165,-0.044
4.166,-0.048
4.167,-0.047
4.168,-0.042
4.169,-0.038
4.170,-0.038
4.171,-0.038
4.172,-0.041
4.173,-0.041
4.174,-0.041
4.175,-0.041
4.176,-0.039
4.177,-0.041
4.178,-0.042
4.179,-0.044
4.180,-0.048
4.181,-0.050
4.182,-0.050
4.183,-0.053
4.184,-0.053
4.185,-0.053
4.186,-0.055
4.187,-0.053
4.188,-0.052
4.189,-0.053
4.190,-0.054
4.191,-0.056
4.192,-0.056
4.193,-0.059
4.194,-0.059
4.195,-0.056
4.196,-0.050
4.197,-0.047
4.198,-0.050
4.199,-0.050
4.200,-0.051
4.201,-0.053
4.202,-0.049
4.203,-0.050
4.204,-0.052
4.205,-0.050
4.206,-0.050
4.207,-0.053
4.208,-0.053
4.209,-0.050
4.210,-0.051
4.211,-0.056
4.212,-0.061
4.213,-0.066
4.214,-0.063
4.215,-0.066
4.216,-0.067
4.217,-0.066
4.218,-0.066
4.219,-0.066
4.220,-0.069
4.221,-0.069
4.222,-0.073
4.223,-0.075
4.224,-0.075
4.225,-0.078
4.226,-0.075
4.227,-0.075
4.228,-0.081
4.229,-0.084
4.230,-0.079
4.231,-0.081
4.232,-0.088
4.233,-0.091
4.234,-0.092
4.235,-0.091
4.236,-0.086
4.237,-0.081
4.238,-0.081
4.239,-0.078
4.240,-0.078
4.241,-0.078
4.242,-0.076
4.243,-0.075
4.244,-0.069
4.245,-0.066
4.246,-0.063
4.247,-0.056
4.248,-0.050
4.249,-0.047
4.250,-0.036
4.251,-0.025
4.252,-0.018
4.253,-0.016
4.254,-0.016
4.255,-0.016
4.256,-0.013
4.257,-0.006
4.258,-0.003
4.259,-0.003
4.260,-0.001
4.261,0.000
4.262,0.005
4.263,0.006
4.264,0.009
4.265,0.009
4.266,0.009
4.267,0.019
4.268,0.023
4.269,0.025
4.270,0.025
4.271,0.025
4.272,0.026
4.273,0.028
4.274,0.024
4.275,0.022
4.276,0.025
4.277,0.025
4.278,0.032
4.279,0.041
4.280,0.042
4.281,0.047
4.282,0.056
4.283,0.063
4.284,0.066
4.285,0.072
4.286,0.084
4.287,0.094
4.288,0.106
4.289,0.116
4.290,0.122
4.291,0.134
4.292,0.150
4.293,0.162
4.294,0.178
4.295,0.191
4.296,0.184
4.297,0.184
4.298,0.177
4.299,0.172
4.300,0.164
4.301,0.162
4.302,0.162
4.303,0.159
4.304,0.155
4.305,0.153
4.306,0.151
4.307,0.156
4.308,0.147
4.309,0.137
4.310,0.134
4.311,0.125
4.312,0.122
4.313,0.119
4.314,0.112
4.315,0.109
4.316,0.101
4.317,0.091
4.318,0.077
4.319,0.059
4.320,0.044
4.321,0.028
4.322,0.014
4.323,0.000
4.324,0.000
4.325,-0.006
4.326,-0.025
4.327,-0.041
4.328,-0.048
4.329,-0.059
4.330,-0.070
4.331,-0.078
4.332,-0.088
4.333,-0.097
4.334,-0.094
4.335,-0.091
4.336,-0.096
4.337,-0.094
4.338,-0.098
4.339,-0.103
4.340,-0.102
4.341,-0.100
4.342,-0.103
4.343,-0.106
4.344,-0.104
4.345,-0.103
4.346,-0.100
4.347,-0.097
4.348,-0.100
4.349,-0.106
4.350,-0.111
4.351,-0.109
4.352,-0.114
4.353,-0.119
4.354,-0.119
4.355,-0.119
4.356,-0.122
4.357,-0.122
4.358,-0.125
4.359,-0.128
4.360,-0.128
4.361,-0.128
4.362,-0.131
4.363,-0.128
4.364,-0.128
4.365,-0.128
4.366,-0.133
4.367,-0.128
4.368,-0.134
4.369,-0.131
4.370,-0.127
4.371,-0.128
4.372,-0.124
4.373,-0.128
4.374,-0.127
4.375,-0.125
4.376,-0.124
4.377,-0.122
4.378,-0.123
4.379,-0.125
4.380,-0.123
4.381,-0.125
4.382,-0.126
4.383,-0.128
4.384,-0.128
4.385,-0.125
4.386,-0.126
4.387,-0.128
4.388,-0.128
4.389,-0.128
4.390,-0.125
4.391,-0.125
4.392,-0.127
4.393,-0.128
4.394,-0.116
4.395,-0.106
4.396,-0.094
4.397,-0.078
4.398,-0.064
4.399,-0.050
4.400,-0.031
4.401,-0.009
4.402,0.000
4.403,0.016
4.404,0.029
4.405,0.038
4.406,0.034
4.407,0.034
4.408,0.028
4.409,0.019
4.410,0.019
4.411,0.022
4.412,0.038
4.413,0.072
4.414,0.111
4.415,0.156
4.416,0.214
4.417,0.288
4.418,0.387
4.419,0.506
4.420,0.639
4.421,0.778
4.422,0.926
4.423,1.081
4.424,1.193
4.425,1.241
4.426,1.216
4.427,1.119
4.428,1.022
4.429,0.956
4.430,0.899
4.431,0.828
4.432,0.741
4.433,0.653
4.434,0.561
4.435,0.481
4.436,0.409
4.437,0.316
4.438,0.226
4.439,0.147
4.440,0.088
4.441,0.044
4.442,-0.004
4.443,-0.050
4.444,-0.086
4.445,-0.125
4.446,-0.154
4.447,-0.181
4.448,-0.209
4.449,-0.244
4.450,-0.275
4.451,-0.300
4.452,-0.328
4.453,-0.353
4.454,-0.372
4.455,-0.384
4.456,-0.393
4.457,-0.400
4.458,-0.399
4.459,-0.387
4.460,-0.371
4.461,-0.347
4.462,-0.321
4.463,-0.294
4.464,-0.281
4.465,-0.269
4.466,-0.257
4.467,-0.250
4.468,-0.233
4.469,-0.219
4.470,-0.211
4.471,-0.200
4.472,-0.189
4.473,-0.175
4.474,-0.172
4.475,-0.169
4.476,-0.164
4.477,-0.162
4.478,-0.152
4.479,-0.147
4.480,-0.142
4.481,-0.144
4.482,-0.144
4.483,-0.137
4.484,-0.128
4.485,-0.119
4.486,-0.119
4.487,-0.119
4.488,-0.123
4.489,-0.122
4.490,-0.122
4.491,-0.122
4.492,-0.117
4.493,-0.119
4.494,-0.119
4.495,-0.119
4.496,-0.114
4.497,-0.106
4.498,-0.108
4.499,-0.109
4.500,-0.109
4.501,-0.109
4.502,-0.109
4.503,-0.112
4.504,-0.112
4.505,-0.112
4.506,-0.112
4.507,-0.109
4.508,-0.109
4.509,-0.112
4.510,-0.111
4.511,-0.109
4.512,-0.109
4.513,-0.109
4.514,-0.111
4.515,-0.109
4.516,-0.102
4.517,-0.097
4.518,-0.096
4.519,-0.097
4.520,-0.098
4.521,-0.103
4.522,-0.104
4.523,-0.100
4.524,-0.104
4.525,-0.103
4.526,-0.102
4.527,-0.103
4.528,-0.097
4.529,-0.094
4.530,-0.092
4.531,-0.091
4.532,-0.095
4.533,-0.097
4.534,-0.097
4.535,-0.097
4.536,-0.095
4.537,-0.097
4.538,-0.094
4.539,-0.094
4.540,-0.091
4.541,-0.088
4.542,-0.088
4.543,-0.088
4.544,-0.089
4.545,-0.091
4.546,-0.089
4.547,-0.088
4.548,-0.086
4.549,-0.084
4.550,-0.083
4.551,-0.081
4.552,-0.081
4.553,-0.081
4.554,-0.083
4.555,-0.084
4.556,-0.083
4.557,-0.078
4.558,-0.081
4.559,-0.081
4.560,-0.080
4.561,-0.078
4.562,-0.075
4.563,-0.075
4.564,-0.078
4.565,-0.081
4.566,-0.083
4.567,-0.081
4.568,-0.081
4.569,-0.078
4.570,-0.079
4.571,-0.081
4.572,-0.078
4.573,-0.078
4.574,-0.075
4.575,-0.075
4.576,-0.071
4.577,-0.072
4.578,-0.073
4.579,-0.075
4.580,-0.072
4.581,-0.072
4.582,-0.073
4.583,-0.072
4.584,-0.072
4.585,-0.072
4.586,-0.071
4.587,-0.069
4.588,-0.066
4.589,-0.066
4.590,-0.064
4.591,-0.063
4.592,-0.061
4.593,-0.063
4.594,-0.058
4.595,-0.056
4.596,-0.059
4.597,-0.059
4.598,-0.061
4.599,-0.063
4.600,-0.059
4.601,-0.059
4.602,-0.056
4.603,-0.056
4.604,-0.054
4.605,-0.056
4.606,-0.055
4.607,-0.053
4.608,-0.053
4.609,-0.050
4.610,-0.047
4.611,-0.041
4.612,-0.038
4.613,-0.041
4.614,-0.044
4.615,-0.047
4.616,-0.045
4.617,-0.044
4.618,-0.047
4.619,-0.047
4.620,-0.045
4.621,-0.047
4.622,-0.047
4.623,-0.044
4.624,-0.039
4.625,-0.034
4.626,-0.036
4.627,-0.038
4.628,-0.036
4.629,-0.034
4.630,-0.034
4.631,-0.034
4.632,-0.031
4.633,-0.034
4.634,-0.034
4.635,-0.031
4.636,-0.030
4.637,-0.031
4.638,-0.029
4.639,-0.031
4.640,-0.029
4.641,-0.031
4.642,-0.033
4.643,-0.031
4.644,-0.028
4.645,-0.022
4.646,-0.024
4.647,-0.022
4.648,-0.022
4.649,-0.028
4.650,-0.028
4.651,-0.025
4.652,-0.025
4.653,-0.028
4.654,-0.028
4.655,-0.031
4.656,-0.031
4.657,-0.028
4.658,-0.024
4.659,-0.025
4.660,-0.023
4.661,-0.025
4.662,-0.026
4.663,-0.028
4.664,-0.029
4.665,-0.031
4.666,-0.031
4.667,-0.031
4.668,-0.032
4.669,-0.034
4.670,-0.032
4.671,-0.034
4.672,-0.028
4.673,-0.025
4.674,-0.022
4.675,-0.025
4.676,-0.024
4.677,-0.025
4.678,-0.021
4.679,-0.019
4.680,-0.019
4.681,-0.019
4.682,-0.019
4.683,-0.019
4.684,-0.016
4.685,-0.013
4.686,-0.014
4.687,-0.016
4.688,-0.020
4.689,-0.022
4.690,-0.025
4.691,-0.025
4.692,-0.024
4.693,-0.022
4.694,-0.018
4.695,-0.016
4.696,-0.013
4.697,-0.013
4.698,-0.008
4.699,-0.003
4.700,-0.009
4.701,-0.009
4.702,-0.007
4.703,-0.013
4.704,-0.007
4.705,-0.009
4.706,-0.003
4.707,0.003
4.708,0.006
4.709,0.003
4.710,0.005
4.711,0.003
4.712,0.009
4.713,0.006
4.714,0.009
4.715,0.009
4.716,0.016
4.717,0.019
4.718,0.019
4.719,0.019
4.720,0.023
4.721,0.025
4.722,0.023
4.723,0.028
4.724,0.027
4.725,0.028
4.726,0.031
4.727,0.031
4.728,0.038
4.729,0.041
4.730,0.041
4.731,0.041
4.732,0.039
4.733,0.031
4.734,0.030
4.735,0.031
4.736,0.038
4.737,0.041
4.738,0.041
4.739,0.047
4.740,0.045
4.741,0.044
4.742,0.041
4.743,0.041
4.744,0.044
4.745,0.044
4.746,0.041
4.747,0.038
4.748,0.038
4.749,0.041
4.750,0.045
4.751,0.047
4.752,0.044
4.753,0.041
4.754,0.038
4.755,0.031
4.756,0.034
4.757,0.038
4.758,0.036
4.759,0.038
4.760,0.038
4.761,0.041
4.762,0.039
4.763,0.041
4.764,0.036
4.765,0.034
4.766,0.030
4.767,0.031
4.768,0.029
4.769,0.031
4.770,0.031
4.771,0.028
4.772,0.028
4.773,0.028
4.774,0.031
4.775,0.028
4.776,0.021
4.777,0.016
4.778,0.016
4.779,0.019
4.780,0.019
4.781,0.019
4.782,0.019
4.783,0.019
4.784,0.018
4.785,0.016
4.786,0.016
4.787,0.016
4.788,0.011
4.789,0.013
4.790,0.014
4.791,0.013
4.792,0.011
4.793,0.006
4.794,0.007
4.795,0.009
4.796,0.006
4.797,0.006
4.798,0.008
4.799,0.006
4.800,0.004
4.801,0.003
4.802,0.003
4.803,0.003
4.804,0.002
4.805,0.000
4.806,0.000
4.807,0.000
4.808,0.000
4.809,0.000
4.810,-0.003
4.811,-0.006
4.812,-0.008
4.813,-0.006
4.814,-0.004
4.815,-0.009
4.816,-0.009
4.817,-0.013
4.818,-0.011
4.819,-0.003
4.820,-0.004
4.821,-0.009
4.822,-0.013
4.823,-0.016
4.824,-0.013
4.825,-0.013
4.826,-0.016
4.827,-0.016
4.828,-0.016
4.829,-0.019
4.830,-0.019
4.831,-0.019
4.832,-0.022
4.833,-0.022
4.834,-0.022
4.835,-0.019
4.836,-0.021
4.837,-0.019
4.838,-0.014
4.839,-0.019
4.840,-0.023
4.841,-0.028
4.842,-0.031
4.843,-0.038
4.844,-0.031
4.845,-0.031
4.846,-0.031
4.847,-0.034
4.848,-0.038
4.849,-0.044
4.850,-0.039
4.851,-0.038
4.852,-0.036
4.853,-0.038
4.854,-0.041
4.855,-0.044
4.856,-0.041
4.857,-0.038
4.858,-0.044
4.859,-0.047
4.860,-0.047
4.861,-0.047
4.862,-0.044
4.863,-0.044
4.864,-0.045
4.865,-0.047
4.866,-0.051
4.867,-0.053
4.868,-0.050
4.869,-0.050
4.870,-0.050
4.871,-0.050
4.872,-0.053
4.873,-0.050
4.874,-0.050
4.875,-0.050
4.876,-0.056
4.877,-0.056
4.878,-0.058
4.879,-0.056
4.880,-0.056
4.881,-0.059
4.882,-0.069
4.883,-0.075
4.884,-0.066
4.885,-0.059
4.886,-0.063
4.887,-0.063
4.888,-0.064
4.889,-0.066
4.890,-0.061
4.891,-0.063
4.892,-0.066
4.893,-0.066
4.894,-0.061
4.895,-0.059
4.896,-0.061
4.897,-0.059
4.898,-0.061
4.899,-0.066
4.900,-0.067
4.901,-0.069
4.902,-0.066
4.903,-0.069
4.904,-0.069
4.905,-0.066
4.906,-0.067
4.907,-0.069
4.908,-0.069
4.909,-0.066
4.910,-0.069
4.911,-0.069
4.912,-0.069
4.913,-0.072
4.914,-0.069
4.915,-0.069
4.916,-0.073
4.917,-0.075
4.918,-0.067
4.919,-0.066
4.920,-0.067
4.921,-0.066
4.922,-0.067
4.923,-0.066
4.924,-0.067
4.925,-0.069
4.926,-0.072
4.927,-0.072
4.928,-0.069
4.929,-0.066
4.930,-0.063
4.931,-0.059
4.932,-0.057
4.933,-0.059
4.934,-0.055
4.935,-0.047
4.936,-0.036
4.937,-0.028
4.938,-0.021
4.939,-0.013
4.940,-0.002
4.941,0.003
4.942,0.002
4.943,0.000
4.944,-0.001
4.945,0.000
4.946,0.003
4.947,0.003
4.948,0.006
4.949,0.009
4.950,0.019
4.951,0.025
4.952,0.031
4.953,0.034
4.954,0.028
4.955,0.031
4.956,0.038
4.957,0.041
4.958,0.039
4.959,0.038
4.960,0.036
4.961,0.034
4.962,0.031
4.963,0.031
4.964,0.036
4.965,0.038
4.966,0.047
4.967,0.056
4.968,0.057
4.969,0.063
4.970,0.071
4.971,0.075
4.972,0.083
4.973,0.094
4.974,0.106
4.975,0.116
4.976,0.133
4.977,0.147
4.978,0.154
4.979,0.169
4.980,0.177
4.981,0.181
4.982,0.186
4.983,0.187
4.984,0.178
4.985,0.175
4.986,0.168
4.987,0.162
4.988,0.158
4.989,0.159
4.990,0.164
4.991,0.166
4.992,0.164
4.993,0.166
4.994,0.158
4.995,0.156
4.996,0.150
4.997,0.144
4.998,0.141
4.999,0.131
5.000,0.124
5.001,0.116
5.002,0.105
5.003,0.097
5.004,0.089
5.005,0.078
5.006,0.072
5.007,0.063
5.008,0.049
5.009,0.034
5.010,0.022
5.011,0.009
5.012,0.002
5.013,-0.013
5.014,-0.026
5.015,-0.038
5.016,-0.039
5.017,-0.044
5.018,-0.056
5.019,-0.066
5.020,-0.072
5.021,-0.078
5.022,-0.077
5.023,-0.075
5.024,-0.078
5.025,-0.075
5.026,-0.078
5.027,-0.081
5.028,-0.081
5.029,-0.081
5.030,-0.084
5.031,-0.088
5.032,-0.088
5.033,-0.088
5.034,-0.089
5.035,-0.091
5.036,-0.091
5.037,-0.094
5.038,-0.098
5.039,-0.097
5.040,-0.099
5.041,-0.100
5.042,-0.100
5.043,-0.100
5.044,-0.104
5.045,-0.106
5.046,-0.106
5.047,-0.106
5.048,-0.108
5.049,-0.109
5.050,-0.111
5.051,-0.106
5.052,-0.106
5.053,-0.106
5.054,-0.117
5.055,-0.119
5.056,-0.119
5.057,-0.109
5.058,-0.106
5.059,-0.109
5.060,-0.105
5.061,-0.109
5.062,-0.109
5.063,-0.109
5.064,-0.111
5.065,-0.112
5.066,-0.112
5.067,-0.112
5.068,-0.109
5.069,-0.109
5.070,-0.111
5.071,-0.112
5.072,-0.114
5.073,-0.112
5.074,-0.114
5.075,-0.116
5.076,-0.116
5.077,-0.116
5.078,-0.111
5.079,-0.109
5.080,-0.108
5.081,-0.106
5.082,-0.095
5.083,-0.088
5.084,-0.074
5.085,-0.056
5.086,-0.041
5.087,-0.025
5.088,-0.011
5.089,0.006
5.090,0.023
5.091,0.047
5.092,0.058
5.093,0.063
5.094,0.055
5.095,0.050
5.096,0.047
5.097,0.041
5.098,0.042
5.099,0.047
5.100,0.056
5.101,0.084
5.102,0.126
5.103,0.175
5.104,0.225
5.105,0.291
5.106,0.381
5.107,0.491
5.108,0.624
5.109,0.762
5.110,0.909
5.111,1.063
5.112,1.166
5.113,1.206
5.114,1.184
5.115,1.091
5.116,0.997
5.117,0.934
5.118,0.883
5.119,0.819
5.120,0.729
5.121,0.641
5.122,0.553
5.123,0.478
5.124,0.405
5.125,0.309
5.126,0.223
5.127,0.147
5.128,0.095
5.129,0.059
5.130,0.028
5.131,0.000
5.132,-0.027
5.133,-0.056
5.134,-0.084
5.135,-0.109
5.136,-0.139
5.137,-0.175
5.138,-0.208
5.139,-0.234
5.140,-0.263
5.141,-0.288
5.142,-0.320
5.143,-0.347
5.144,-0.356
5.145,-0.366
5.146,-0.373
5.147,-0.372
5.148,-0.358
5.149,-0.337
5.150,-0.316
5.151,-0.294
5.152,-0.278
5.153,-0.263
5.154,-0.249
5.155,-0.238
5.156,-0.223
5.157,-0.213
5.158,-0.203
5.159,-0.191
5.160,-0.182
5.161,-0.172
5.162,-0.158
5.163,-0.144
5.164,-0.141
5.165,-0.141
5.166,-0.134
5.167,-0.134
5.168,-0.128
5.169,-0.128
5.170,-0.129
5.171,-0.125
5.172,-0.125
5.173,-0.125
5.174,-0.122
5.175,-0.119
5.176,-0.117
5.177,-0.109
5.178,-0.111
5.179,-0.112
5.180,-0.108
5.181,-0.109
5.182,-0.108
5.183,-0.106
5.184,-0.106
5.185,-0.103
5.186,-0.102
5.187,-0.100
5.188,-0.100
5.189,-0.100
5.190,-0.099
5.191,-0.100
5.192,-0.101
5.193,-0.103
5.194,-0.100
5.195,-0.094
5.196,-0.091
5.197,-0.091
5.198,-0.091
5.199,-0.091
5.200,-0.089
5.201,-0.088
5.202,-0.092
5.203,-0.094
5.204,-0.092
5.205,-0.094
5.206,-0.094
5.207,-0.097
5.208,-0.094
5.209,-0.094
5.210,-0.094
5.211,-0.088
5.212,-0.084
5.213,-0.075
5.214,-0.075
5.215,-0.078
5.216,-0.078
5.217,-0.081
5.218,-0.081
5.219,-0.081
5.220,-0.084
5.221,-0.084
5.222,-0.086
5.223,-0.088
5.224,-0.083
5.225,-0.081
5.226,-0.078
5.227,-0.078
5.228,-0.078
5.229,-0.078
5.230,-0.078
5.231,-0.078
5.232,-0.079
5.233,-0.081
5.234,-0.081
5.235,-0.081
5.236,-0.083
5.237,-0.084
5.238,-0.084
5.239,-0.084
5.240,-0.086
5.241,-0.088
5.242,-0.088
5.243,-0.088
5.244,-0.086
5.245,-0.081
5.246,-0.080
5.247,-0.075
5.248,-0.076
5.249,-0.078
5.250,-0.076
5.251,-0.078
5.252,-0.079
5.253,-0.081
5.254,-0.081
5.255,-0.078
5.256,-0.077
5.257,-0.072
5.258,-0.078
5.259,-0.084
5.260,-0.084
5.261,-0.088
5.262,-0.080
5.263,-0.075
5.264,-0.071
5.265,-0.072
5.266,-0.073
5.267,-0.075
5.268,-0.069
5.269,-0.066
5.270,-0.067
5.271,-0.066
5.272,-0.067
5.273,-0.069
5.274,-0.070
5.275,-0.072
5.276,-0.069
5.277,-0.069
5.278,-0.070
5.279,-0.072
5.280,-0.070
5.281,-0.072
5.282,-0.067
5.283,-0.066
5.284,-0.066
5.285,-0.063
5.286,-0.063
5.287,-0.063
5.288,-0.061
5.289,-0.063
5.290,-0.059
5.291,-0.059
5.292,-0.056
5.293,-0.056
5.294,-0.053
5.295,-0.050
5.296,-0.051
5.297,-0.050
5.298,-0.053
5.299,-0.053
5.300,-0.047
5.301,-0.047
5.302,-0.048
5.303,-0.050
5.304,-0.046
5.305,-0.041
5.306,-0.042
5.307,-0.041
5.308,-0.041
5.309,-0.044
5.310,-0.042
5.311,-0.038
5.312,-0.038
5.313,-0.038
5.314,-0.039
5.315,-0.041
5.316,-0.038
5.317,-0.034
5.318,-0.032
5.319,-0.031
5.320,-0.027
5.321,-0.028
5.322,-0.031
5.323,-0.031
5.324,-0.031
5.325,-0.034
5.326,-0.032
5.327,-0.034
5.328,-0.031
5.329,-0.031
5.330,-0.034
5.331,-0.034
5.332,-0.036
5.333,-0.034
5.334,-0.038
5.335,-0.038
5.336,-0.034
5.337,-0.038
5.338,-0.030
5.339,-0.019
5.340,-0.018
5.341,-0.019
5.342,-0.020
5.343,-0.025
5.344,-0.026
5.345,-0.025
5.346,-0.023
5.347,-0.028
5.348,-0.025
5.349,-0.025
5.350,-0.022
5.351,-0.019
5.352,-0.020
5.353,-0.022
5.354,-0.022
5.355,-0.022
5.356,-0.021
5.357,-0.019
5.358,-0.017
5.359,-0.019
5.360,-0.018
5.361,-0.019
5.362,-0.017
5.363,-0.022
5.364,-0.021
5.365,-0.022
5.366,-0.020
5.367,-0.022
5.368,-0.023
5.369,-0.025
5.370,-0.024
5.371,-0.022
5.372,-0.021
5.373,-0.019
5.374,-0.016
5.375,-0.013
5.376,-0.011
5.377,-0.006
5.378,-0.011
5.379,-0.013
5.380,-0.011
5.381,-0.009
5.382,-0.007
5.383,-0.009
5.384,-0.005
5.385,-0.003
5.386,-0.001
5.387,0.000
5.388,-0.002
5.389,0.003
5.390,0.009
5.391,0.009
5.392,0.014
5.393,0.013
5.394,0.011
5.395,0.009
5.396,0.013
5.397,0.009
5.398,0.011
5.399,0.009
5.400,0.020
5.401,0.022
5.402,0.024
5.403,0.022
5.404,0.024
5.405,0.022
5.406,0.028
5.407,0.034
5.408,0.041
5.409,0.044
5.410,0.039
5.411,0.041
5.412,0.039
5.413,0.041
5.414,0.044
5.415,0.044
5.416,0.047
5.417,0.047
5.418,0.046
5.419,0.044
5.420,0.048
5.421,0.047
5.422,0.048
5.423,0.053
5.424,0.057
5.425,0.059
5.426,0.058
5.427,0.063
5.428,0.059
5.429,0.056
5.430,0.052
5.431,0.050
5.432,0.053
5.433,0.053
5.434,0.056
5.435,0.059
5.436,0.055
5.437,0.053
5.438,0.056
5.439,0.056
5.440,0.054
5.441,0.053
5.442,0.050
5.443,0.044
5.444,0.044
5.445,0.044
5.446,0.044
5.447,0.047
5.448,0.042
5.449,0.041
5.450,0.038
5.451,0.038
5.452,0.033
5.453,0.031
5.454,0.027
5.455,0.028
5.456,0.028
5.457,0.031
5.458,0.032
5.459,0.031
5.460,0.028
5.461,0.025
5.462,0.028
5.463,0.025
5.464,0.024
5.465,0.025
5.466,0.023
5.467,0.025
5.468,0.022
5.469,0.019
5.470,0.018
5.471,0.016
5.472,0.016
5.473,0.016
5.474,0.016
5.475,0.016
5.476,0.011
5.477,0.013
5.478,0.014
5.479,0.013
5.480,0.014
5.481,0.013
5.482,0.013
5.483,0.013
5.484,0.008
5.485,0.006
5.486,0.009
5.487,0.009
5.488,0.007
5.489,0.006
5.490,0.005
5.491,0.003
5.492,0.002
5.493,0.000
5.494,-0.003
5.495,-0.006
5.496,-0.006
5.497,-0.006
5.498,-0.009
5.499,-0.013
5.500,-0.016
5.501,-0.016
5.502,-0.013
5.503,-0.016
5.504,-0.014
5.505,-0.016
5.506,-0.020
5.507,-0.019
5.508,-0.019
5.509,-0.022
5.510,-0.022
5.511,-0.022
5.512,-0.019
5.513,-0.019
5.514,-0.023
5.515,-0.025
5.516,-0.025
5.517,-0.028
5.518,-0.028
5.519,-0.028
5.520,-0.031
5.521,-0.031
5.522,-0.032
5.523,-0.031
5.524,-0.034
5.525,-0.034
5.526,-0.030
5.527,-0.034
5.528,-0.034
5.529,-0.034
5.530,-0.033
5.531,-0.034
5.532,-0.031
5.533,-0.034
5.534,-0.034
5.535,-0.038
5.536,-0.036
5.537,-0.038
5.538,-0.036
5.539,-0.038
5.540,-0.034
5.541,-0.034
5.542,-0.036
5.543,-0.038
5.544,-0.036
5.545,-0.034
5.546,-0.036
5.547,-0.034
5.548,-0.034
5.549,-0.034
5.550,-0.033
5.551,-0.034
5.552,-0.034
5.553,-0.034
5.554,-0.038
5.555,-0.038
5.556,-0.036
5.557,-0.038
5.558,-0.042
5.559,-0.047
5.560,-0.053
5.561,-0.053
5.562,-0.053
5.563,-0.053
5.564,-0.056
5.565,-0.053
5.566,-0.053
5.567,-0.047
5.568,-0.050
5.569,-0.047
5.570,-0.047
5.571,-0.050
5.572,-0.053
5.573,-0.053
5.574,-0.050
5.575,-0.053
5.576,-0.054
5.577,-0.056
5.578,-0.059
5.579,-0.059
5.580,-0.054
5.581,-0.050
5.582,-0.053
5.583,-0.056
5.584,-0.059
5.585,-0.063
5.586,-0.064
5.587,-0.063
5.588,-0.059
5.589,-0.059
5.590,-0.058
5.591,-0.056
5.592,-0.059
5.593,-0.059
5.594,-0.059
5.595,-0.059
5.596,-0.059
5.597,-0.059
5.598,-0.066
5.599,-0.066
5.600,-0.058
5.601,-0.056
5.602,-0.058
5.603,-0.056
5.604,-0.059
5.605,-0.063
5.606,-0.067
5.607,-0.066
5.608,-0.066
5.609,-0.069
5.610,-0.070
5.611,-0.072
5.612,-0.069
5.613,-0.072
5.614,-0.071
5.615,-0.069
5.616,-0.067
5.617,-0.059
5.618,-0.059
5.619,-0.063
5.620,-0.066
5.621,-0.063
5.622,-0.064
5.623,-0.069
5.624,-0.069
5.625,-0.072
5.626,-0.071
5.627,-0.069
5.628,-0.064
5.629,-0.059
5.630,-0.057
5.631,-0.056
5.632,-0.056
5.633,-0.056
5.634,-0.053
5.635,-0.050
5.636,-0.051
5.637,-0.050
5.638,-0.041
5.639,-0.028
5.640,-0.021
5.641,-0.013
5.642,-0.011
5.643,-0.009
5.644,-0.006
5.645,0.000
5.646,0.003
5.647,0.006
5.648,0.009
5.649,0.009
5.650,0.014
5.651,0.022
5.652,0.022
5.653,0.025
5.654,0.024
5.655,0.025
5.656,0.032
5.657,0.034
5.658,0.039
5.659,0.038
5.660,0.034
5.661,0.034
5.662,0.038
5.663,0.041
5.664,0.039
5.665,0.038
5.666,0.038
5.667,0.041
5.668,0.045
5.669,0.053
5.670,0.061
5.671,0.063
5.672,0.064
5.673,0.072
5.674,0.086
5.675,0.100
5.676,0.114
5.677,0.131
5.678,0.137
5.679,0.147
5.680,0.156
5.681,0.162
5.682,0.172
5.683,0.178
5.684,0.177
5.685,0.178
5.686,0.181
5.687,0.169
5.688,0.166
5.689,0.159
5.690,0.162
5.691,0.162
5.692,0.162
5.693,0.162
5.694,0.161
5.695,0.162
5.696,0.167
5.697,0.162
5.698,0.158
5.699,0.147
5.700,0.141
5.701,0.137
5.702,0.125
5.703,0.116
5.704,0.108
5.705,0.097
5.706,0.091
5.707,0.081
5.708,0.073
5.709,0.069
5.710,0.059
5.711,0.050
5.712,0.036
5.713,0.022
5.714,0.006
5.715,-0.003
5.716,-0.014
5.717,-0.025
5.718,-0.036
5.719,-0.044
5.720,-0.054
5.721,-0.066
5.722,-0.067
5.723,-0.066
5.724,-0.069
5.725,-0.069
5.726,-0.070
5.727,-0.078
5.728,-0.074
5.729,-0.072
5.730,-0.074
5.731,-0.072
5.732,-0.071
5.733,-0.072
5.734,-0.076
5.735,-0.075
5.736,-0.072
5.737,-0.075
5.738,-0.079
5.739,-0.081
5.740,-0.083
5.741,-0.084
5.742,-0.086
5.743,-0.094
5.744,-0.094
5.745,-0.091
5.746,-0.088
5.747,-0.088
5.748,-0.088
5.749,-0.088
5.750,-0.089
5.751,-0.091
5.752,-0.089
5.753,-0.091
5.754,-0.089
5.755,-0.094
5.756,-0.097
5.757,-0.100
5.758,-0.095
5.759,-0.100
5.760,-0.092
5.761,-0.088
5.762,-0.091
5.763,-0.088
5.764,-0.092
5.765,-0.091
5.766,-0.091
5.767,-0.091
5.768,-0.094
5.769,-0.097
5.770,-0.098
5.771,-0.097
5.772,-0.098
5.773,-0.100
5.774,-0.100
5.775,-0.103
5.776,-0.104
5.777,-0.106
5.778,-0.105
5.779,-0.100
5.780,-0.100
5.781,-0.100
5.782,-0.094
5.783,-0.091
5.784,-0.091
5.785,-0.075
5.786,-0.067
5.787,-0.059
5.788,-0.047
5.789,-0.028
5.790,-0.014
5.791,0.000
5.792,0.023
5.793,0.041
5.794,0.061
5.795,0.072
5.796,0.077
5.797,0.072
5.798,0.066
5.799,0.056
5.800,0.054
5.801,0.056
5.802,0.059
5.803,0.072
5.804,0.103
5.805,0.147
5.806,0.200
5.807,0.259
5.808,0.337
5.809,0.431
5.810,0.539
5.811,0.678
5.812,0.825
5.813,0.975
5.814,1.091
5.815,1.184
5.816,1.200
5.817,1.147
5.818,1.098
5.819,1.009
5.820,0.925
5.821,0.881
5.822,0.825
5.823,0.731
5.824,0.648
5.825,0.572
5.826,0.488
5.827,0.406
5.828,0.328
5.829,0.253
5.830,0.178
5.831,0.122
5.832,0.078
5.833,0.044
5.834,0.017
5.835,-0.006
5.836,-0.039
5.837,-0.063
5.838,-0.084
5.839,-0.112
5.840,-0.146
5.841,-0.181
5.842,-0.222
5.843,-0.259
5.844,-0.284
5.845,-0.316
5.846,-0.336
5.847,-0.344
5.848,-0.358
5.849,-0.366
5.850,-0.359
5.851,-0.344
5.852,-0.322
5.853,-0.297
5.854,-0.278
5.855,-0.266
5.856,-0.250
5.857,-0.238
5.858,-0.229
5.859,-0.216
5.860,-0.200
5.861,-0.184
5.862,-0.169
5.863,-0.159
5.864,-0.148
5.865,-0.144
5.866,-0.137
5.867,-0.131
5.868,-0.128
5.869,-0.119
5.870,-0.116
5.871,-0.109
5.872,-0.106
5.873,-0.103
5.874,-0.098
5.875,-0.097
5.876,-0.095
5.877,-0.097
5.878,-0.097
5.879,-0.097
5.880,-0.092
5.881,-0.094
5.882,-0.092
5.883,-0.084
5.884,-0.084
5.885,-0.084
5.886,-0.086
5.887,-0.088
5.888,-0.086
5.889,-0.088
5.890,-0.083
5.891,-0.078
5.892,-0.078
5.893,-0.078
5.894,-0.083
5.895,-0.081
5.896,-0.074
5.897,-0.069
5.898,-0.066
5.899,-0.066
5.900,-0.070
5.901,-0.069
5.902,-0.067
5.903,-0.069
5.904,-0.069
5.905,-0.069
5.906,-0.067
5.907,-0.069
5.908,-0.072
5.909,-0.072
5.910,-0.076
5.911,-0.075
5.912,-0.076
5.913,-0.078
5.914,-0.072
5.915,-0.075
5.916,-0.071
5.917,-0.069
5.918,-0.071
5.919,-0.066
5.920,-0.066
5.921,-0.066
5.922,-0.064
5.923,-0.066
5.924,-0.067
5.925,-0.069
5.926,-0.069
5.927,-0.066
5.928,-0.069
5.929,-0.069
5.930,-0.069
5.931,-0.069
5.932,-0.069
5.933,-0.069
5.934,-0.072
5.935,-0.075
5.936,-0.075
5.937,-0.075
5.938,-0.071
5.939,-0.066
5.940,-0.066
5.941,-0.066
5.942,-0.067
5.943,-0.069
5.944,-0.066
5.945,-0.063
5.946,-0.063
5.947,-0.063
5.948,-0.061
5.949,-0.066
5.950,-0.066
5.951,-0.066
5.952,-0.067
5.953,-0.066
5.954,-0.067
5.955,-0.069
5.956,-0.064
5.957,-0.063
5.958,-0.064
5.959,-0.066
5.960,-0.064
5.961,-0.066
5.962,-0.067
5.963,-0.066
5.964,-0.067
5.965,-0.066
5.966,-0.067
5.967,-0.066
5.968,-0.063
5.969,-0.056
5.970,-0.059
5.971,-0.059
5.972,-0.056
5.973,-0.053
5.974,-0.050
5.975,-0.050
5.976,-0.050
5.977,-0.050
5.978,-0.049
5.979,-0.044
5.980,-0.044
5.981,-0.044
5.982,-0.042
5.983,-0.038
5.984,-0.038
5.985,-0.034
5.986,-0.033
5.987,-0.034
5.988,-0.033
5.989,-0.031
5.990,-0.027
5.991,-0.019
5.992,-0.025
5.993,-0.028
5.994,-0.028
5.995,-0.025
5.996,-0.022
5.997,-0.019
5.998,-0.020
5.999,-0.022
6.000,-0.020
6.001,-0.022
6.002,-0.020
6.003,-0.019
6.004,-0.021
6.005,-0.019
6.006,-0.019
6.007,-0.016
6.008,-0.011
6.009,-0.013
6.010,-0.013
6.011,-0.009
6.012,-0.006
6.013,-0.003
6.014,-0.004
6.015,-0.009
6.016,-0.006
6.017,-0.003
6.018,-0.006
6.019,-0.009
6.020,-0.013
6.021,-0.013
6.022,-0.011
6.023,-0.009
6.024,-0.008
6.025,-0.003
6.026,0.000
6.027,0.000
6.028,-0.004
6.029,-0.003
6.030,-0.004
6.031,-0.003
6.032,-0.002
6.033,-0.003
6.034,-0.003
6.035,-0.003
6.036,0.001
6.037,0.000
6.038,0.000
6.039,0.003
6.040,-0.001
6.041,0.000
6.042,0.003
6.043,0.000
6.044,0.000
6.045,0.003
6.046,0.001
6.047,0.003
6.048,0.005
6.049,0.006
6.050,0.009
6.051,0.019
6.052,0.016
6.053,0.013
6.054,0.011
6.055,0.009
6.056,0.009
6.057,0.009
6.058,0.009
6.059,0.009
6.060,0.011
6.061,0.016
6.062,0.016
6.063,0.016
6.064,0.013
6.065,0.016
6.066,0.014
6.067,0.016
6.068,0.009
6.069,0.009
6.070,0.008
6.071,0.006
6.072,0.006
6.073,0.006
6.074,0.011
6.075,0.016
6.076,0.016
6.077,0.016
6.078,0.014
6.079,0.013
6.080,0.017
6.081,0.016
6.082,0.016
6.083,0.016
6.084,0.017
6.085,0.022
6.086,0.022
6.087,0.025
6.088,0.024
6.089,0.025
6.090,0.029
6.091,0.028
6.092,0.031
6.093,0.034
6.094,0.032
6.095,0.041
6.096,0.042
6.097,0.044
6.098,0.039
6.099,0.041
6.100,0.041
6.101,0.044
6.102,0.044
6.103,0.050
6.104,0.053
6.105,0.063
6.106,0.063
6.107,0.066
6.108,0.064
6.109,0.066
6.110,0.066
6.111,0.066
6.112,0.066
6.113,0.063
6.114,0.066
6.115,0.066
6.116,0.070
6.117,0.075
6.118,0.072
6.119,0.072
6.120,0.072
6.121,0.072
6.122,0.075
6.123,0.081
6.124,0.079
6.125,0.081
6.126,0.084
6.127,0.084
6.128,0.080
6.129,0.078
6.130,0.083
6.131,0.078
6.132,0.078
6.133,0.081
6.134,0.081
6.135,0.081
6.136,0.081
6.137,0.081
6.138,0.081
6.139,0.078
6.140,0.077
6.141,0.078
6.142,0.079
6.143,0.078
6.144,0.076
6.145,0.078
6.146,0.074
6.147,0.072
6.148,0.069
6.149,0.066
6.150,0.072
6.151,0.072
6.152,0.067
6.153,0.059
6.154,0.056
6.155,0.050
6.156,0.056
6.157,0.059
6.158,0.061
6.159,0.056
6.160,0.055
6.161,0.053
6.162,0.049
6.163,0.044
6.164,0.039
6.165,0.041
6.166,0.038
6.167,0.038
6.168,0.044
6.169,0.044
6.170,0.044
6.171,0.041
6.172,0.039
6.173,0.041
6.174,0.039
6.175,0.038
6.176,0.036
6.177,0.034
6.178,0.036
6.179,0.031
6.180,0.030
6.181,0.028
6.182,0.025
6.183,0.025
6.184,0.022
6.185,0.022
6.186,0.021
6.187,0.016
6.188,0.014
6.189,0.016
6.190,0.017
6.191,0.016
6.192,0.008
6.193,0.003
6.194,0.004
6.195,0.006
6.196,0.007
6.197,0.009
6.198,0.009
6.199,0.009
6.200,0.011
6.201,0.009
6.202,0.007
6.203,0.006
6.204,0.005
6.205,0.006
6.206,0.009
6.207,0.016
6.208,0.009
6.209,0.003
6.210,0.006
6.211,0.006
6.212,0.004
6.213,0.006
6.214,0.003
6.215,0.003
6.216,0.002
6.217,-0.003
6.218,-0.003
6.219,-0.003
6.220,-0.006
6.221,-0.006
6.222,-0.006
6.223,-0.009
6.224,-0.011
6.225,-0.013
6.226,-0.009
6.227,-0.013
6.228,-0.014
6.229,-0.013
6.230,-0.016
6.231,-0.013
6.232,-0.011
6.233,-0.009
6.234,-0.014
6.235,-0.013
6.236,-0.014
6.237,-0.013
6.238,-0.022
6.239,-0.028
6.240,-0.031
6.241,-0.028
6.242,-0.027
6.243,-0.025
6.244,-0.022
6.245,-0.019
6.246,-0.022
6.247,-0.022
6.248,-0.026
6.249,-0.031
6.250,-0.029
6.251,-0.031
6.252,-0.030
6.253,-0.028
6.254,-0.032
6.255,-0.034
6.256,-0.033
6.257,-0.034
6.258,-0.034
6.259,-0.034
6.260,-0.041
6.261,-0.044
6.262,-0.044
6.263,-0.047
6.264,-0.047
6.265,-0.050
6.266,-0.046
6.267,-0.044
6.268,-0.039
6.269,-0.041
6.270,-0.036
6.271,-0.038
6.272,-0.031
6.273,-0.031
6.274,-0.042
6.275,-0.047
6.276,-0.045
6.277,-0.044
6.278,-0.042
6.279,-0.038
6.280,-0.038
6.281,-0.041
6.282,-0.047
6.283,-0.050
6.284,-0.049
6.285,-0.047
6.286,-0.051
6.287,-0.053
6.288,-0.053
6.289,-0.053
6.290,-0.052
6.291,-0.053
6.292,-0.053
6.293,-0.053
6.294,-0.053
6.295,-0.053
6.296,-0.050
6.297,-0.050
6.298,-0.053
6.299,-0.053
6.300,-0.053
6.301,-0.056
6.302,-0.063
6.303,-0.066
6.304,-0.067
6.305,-0.069
6.306,-0.059
6.307,-0.056
6.308,-0.056
6.309,-0.053
6.310,-0.054
6.311,-0.059
6.312,-0.059
6.313,-0.056
6.314,-0.055
6.315,-0.056
6.316,-0.056
6.317,-0.056
6.318,-0.053
6.319,-0.056
6.320,-0.057
6.321,-0.056
6.322,-0.056
6.323,-0.056
6.324,-0.057
6.325,-0.056
6.326,-0.063
6.327,-0.066
6.328,-0.064
6.329,-0.066
6.330,-0.059
6.331,-0.056
6.332,-0.059
6.333,-0.059
6.334,-0.054
6.335,-0.056
6.336,-0.061
6.337,-0.063
6.338,-0.066
6.339,-0.066
6.340,-0.061
6.341,-0.056
6.342,-0.059
6.343,-0.059
6.344,-0.059
6.345,-0.059
6.346,-0.057
6.347,-0.056
6.348,-0.053
6.349,-0.053
6.350,-0.044
6.351,-0.031
6.352,-0.025
6.353,-0.022
6.354,-0.020
6.355,-0.019
6.356,-0.009
6.357,-0.006
6.358,-0.003
6.359,0.000
6.360,0.002
6.361,0.006
6.362,0.013
6.363,0.016
6.364,0.020
6.365,0.025
6.366,0.028
6.367,0.028
6.368,0.033
6.369,0.034
6.370,0.028
6.371,0.031
6.372,0.032
6.373,0.031
6.374,0.034
6.375,0.038
6.376,0.038
6.377,0.038
6.378,0.041
6.379,0.047
6.380,0.056
6.381,0.063
6.382,0.064
6.383,0.066
6.384,0.063
6.385,0.063
6.386,0.072
6.387,0.078
6.388,0.086
6.389,0.097
6.390,0.109
6.391,0.119
6.392,0.133
6.393,0.144
6.394,0.150
6.395,0.162
6.396,0.169
6.397,0.172
6.398,0.177
6.399,0.178
6.400,0.170
6.401,0.169
6.402,0.161
6.403,0.156
6.404,0.151
6.405,0.153
6.406,0.154
6.407,0.153
6.408,0.149
6.409,0.147
6.410,0.144
6.411,0.147
6.412,0.144
6.413,0.141
6.414,0.136
6.415,0.125
6.416,0.119
6.417,0.112
6.418,0.103
6.419,0.097
6.420,0.091
6.421,0.081
6.422,0.067
6.423,0.050
6.424,0.034
6.425,0.019
6.426,0.006
6.427,-0.006
6.428,-0.011
6.429,-0.022
6.430,-0.028
6.431,-0.031
6.432,-0.042
6.433,-0.056
6.434,-0.063
6.435,-0.066
6.436,-0.069
6.437,-0.072
6.438,-0.072
6.439,-0.072
6.440,-0.079
6.441,-0.081
6.442,-0.084
6.443,-0.088
6.444,-0.088
6.445,-0.088
6.446,-0.089
6.447,-0.091
6.448,-0.089
6.449,-0.088
6.450,-0.089
6.451,-0.091
6.452,-0.088
6.453,-0.088
6.454,-0.094
6.455,-0.094
6.456,-0.094
6.457,-0.094
6.458,-0.094
6.459,-0.094
6.460,-0.098
6.461,-0.100
6.462,-0.100
6.463,-0.100
6.464,-0.100
6.465,-0.100
6.466,-0.103
6.467,-0.100
6.468,-0.100
6.469,-0.100
6.470,-0.104
6.471,-0.100
6.472,-0.102
6.473,-0.094
6.474,-0.091
6.475,-0.094
6.476,-0.094
6.477,-0.103
6.478,-0.103
6.479,-0.103
6.480,-0.104
6.481,-0.106
6.482,-0.108
6.483,-0.109
6.484,-0.106
6.485,-0.106
6.486,-0.105
6.487,-0.103
6.488,-0.105
6.489,-0.103
6.490,-0.104
6.491,-0.106
6.492,-0.106
6.493,-0.106
6.494,-0.102
6.495,-0.100
6.496,-0.100
6.497,-0.100
6.498,-0.092
6.499,-0.088
6.500,-0.074
6.501,-0.056
6.502,-0.041
6.503,-0.025
6.504,-0.009
6.505,0.009
6.506,0.031
6.507,0.059
6.508,0.066
6.509,0.066
6.510,0.063
6.511,0.063
6.512,0.056
6.513,0.047
6.514,0.042
6.515,0.041
6.516,0.047
6.517,0.072
6.518,0.105
6.519,0.144
6.520,0.193
6.521,0.256
6.522,0.336
6.523,0.434
6.524,0.561
6.525,0.694
6.526,0.845
6.527,1.003
6.528,1.131
6.529,1.197
6.530,1.191
6.531,1.112
6.532,1.014
6.533,0.947
6.534,0.908
6.535,0.856
6.536,0.767
6.537,0.678
6.538,0.601
6.539,0.537
6.540,0.470
6.541,0.381
6.542,0.294
6.543,0.216
6.544,0.153
6.545,0.106
6.546,0.076
6.547,0.050
6.548,0.019
6.549,-0.016
6.550,-0.042
6.551,-0.066
6.552,-0.088
6.553,-0.116
6.554,-0.154
6.555,-0.187
6.556,-0.222
6.557,-0.253
6.558,-0.289
6.559,-0.319
6.560,-0.336
6.561,-0.353
6.562,-0.366
6.563,-0.369
6.564,-0.364
6.565,-0.353
6.566,-0.331
6.567,-0.309
6.568,-0.291
6.569,-0.272
6.570,-0.264
6.571,-0.259
6.572,-0.244
6.573,-0.231
6.574,-0.218
6.575,-0.200
6.576,-0.189
6.577,-0.175
6.578,-0.161
6.579,-0.147
6.580,-0.139
6.581,-0.134
6.582,-0.126
6.583,-0.125
6.584,-0.120
6.585,-0.122
6.586,-0.123
6.587,-0.119
6.588,-0.117
6.589,-0.116
6.590,-0.112
6.591,-0.109
6.592,-0.112
6.593,-0.109
6.594,-0.106
6.595,-0.103
6.596,-0.094
6.597,-0.091
6.598,-0.091
6.599,-0.091
6.600,-0.094
6.601,-0.094
6.602,-0.094
6.603,-0.094
6.604,-0.095
6.605,-0.097
6.606,-0.100
6.607,-0.106
6.608,-0.106
6.609,-0.106
6.610,-0.106
6.611,-0.103
6.612,-0.102
6.613,-0.103
6.614,-0.097
6.615,-0.091
6.616,-0.091
6.617,-0.091
6.618,-0.089
6.619,-0.084
6.620,-0.086
6.621,-0.091
6.622,-0.088
6.623,-0.088
6.624,-0.084
6.625,-0.084
6.626,-0.083
6.627,-0.075
6.628,-0.079
6.629,-0.078
6.630,-0.075
6.631,-0.075
6.632,-0.075
6.633,-0.078
6.634,-0.079
6.635,-0.081
6.636,-0.086
6.637,-0.088
6.638,-0.088
6.639,-0.088
6.640,-0.081
6.641,-0.078
6.642,-0.079
6.643,-0.084
6.644,-0.083
6.645,-0.081
6.646,-0.083
6.647,-0.084
6.648,-0.084
6.649,-0.084
6.650,-0.083
6.651,-0.081
6.652,-0.080
6.653,-0.078
6.654,-0.079
6.655,-0.081
6.656,-0.078
6.657,-0.075
6.658,-0.079
6.659,-0.084
6.660,-0.081
6.661,-0.075
6.662,-0.075
6.663,-0.072
6.664,-0.073
6.665,-0.075
6.666,-0.073
6.667,-0.075
6.668,-0.075
6.669,-0.075
6.670,-0.079
6.671,-0.081
6.672,-0.080
6.673,-0.075
6.674,-0.076
6.675,-0.078
6.676,-0.076
6.677,-0.078
6.678,-0.075
6.679,-0.075
6.680,-0.072
6.681,-0.075
6.682,-0.075
6.683,-0.075
6.684,-0.073
6.685,-0.075
6.686,-0.076
6.687,-0.075
6.688,-0.072
6.689,-0.069
6.690,-0.069
6.691,-0.069
6.692,-0.066
6.693,-0.066
6.694,-0.064
6.695,-0.063
6.696,-0.058
6.697,-0.056
6.698,-0.053
6.699,-0.053
6.700,-0.055
6.701,-0.053
6.702,-0.056
6.703,-0.059
6.704,-0.057
6.705,-0.059
6.706,-0.055
6.707,-0.053
6.708,-0.051
6.709,-0.053
6.710,-0.054
6.711,-0.056
6.712,-0.053
6.713,-0.047
6.714,-0.044
6.715,-0.038
6.716,-0.031
6.717,-0.031
6.718,-0.032
6.719,-0.034
6.720,-0.032
6.721,-0.031
6.722,-0.036
6.723,-0.038
6.724,-0.034
6.725,-0.034
6.726,-0.034
6.727,-0.031
6.728,-0.032
6.729,-0.034
6.730,-0.034
6.731,-0.034
6.732,-0.031
6.733,-0.028
6.734,-0.028
6.735,-0.028
6.736,-0.024
6.737,-0.025
6.738,-0.028
6.739,-0.028
6.740,-0.028
6.741,-0.031
6.742,-0.029
6.743,-0.031
6.744,-0.028
6.745,-0.028
6.746,-0.031
6.747,-0.031
6.748,-0.031
6.749,-0.028
6.750,-0.028
6.751,-0.025
6.752,-0.021
6.753,-0.022
6.754,-0.022
6.755,-0.019
6.756,-0.019
6.757,-0.022
6.758,-0.022
6.759,-0.025
6.760,-0.026
6.761,-0.025
6.762,-0.022
6.763,-0.025
6.764,-0.025
6.765,-0.028
6.766,-0.028
6.767,-0.028
6.768,-0.024
6.769,-0.019
6.770,-0.019
6.771,-0.019
6.772,-0.018
6.773,-0.016
6.774,-0.013
6.775,-0.013
6.776,-0.013
6.777,-0.016
6.778,-0.016
6.779,-0.022
6.780,-0.023
6.781,-0.028
6.782,-0.026
6.783,-0.028
6.784,-0.024
6.785,-0.019
6.786,-0.020
6.787,-0.022
6.788,-0.022
6.789,-0.022
6.790,-0.021
6.791,-0.019
6.792,-0.019
6.793,-0.016
6.794,-0.020
6.795,-0.022
6.796,-0.022
6.797,-0.022
6.798,-0.019
6.799,-0.019
6.800,-0.009
6.801,-0.003
6.802,-0.003
6.803,-0.003
6.804,-0.006
6.805,-0.003
6.806,0.004
6.807,0.006
6.808,0.009
6.809,0.006
6.810,0.005
6.811,0.003
6.812,0.006
6.813,0.003
6.814,0.002
6.815,-0.003
6.816,0.003
6.817,0.000
6.818,0.004
6.819,0.006
6.820,0.009
6.821,0.009
6.822,0.016
6.823,0.022
6.824,0.024
6.825,0.022
6.826,0.018
6.827,0.019
6.828,0.019
6.829,0.022
6.830,0.024
6.831,0.022
6.832,0.026
6.833,0.028
6.834,0.029
6.835,0.031
6.836,0.034
6.837,0.031
6.838,0.031
6.839,0.034
6.840,0.036
6.841,0.034
6.842,0.036
6.843,0.044
6.844,0.044
6.845,0.044
6.846,0.041
6.847,0.041
6.848,0.039
6.849,0.034
6.850,0.039
6.851,0.044
6.852,0.042
6.853,0.044
6.854,0.047
6.855,0.047
6.856,0.047
6.857,0.047
6.858,0.046
6.859,0.041
6.860,0.036
6.861,0.031
6.862,0.031
6.863,0.034
6.864,0.031
6.865,0.031
6.866,0.029
6.867,0.031
6.868,0.028
6.869,0.028
6.870,0.024
6.871,0.025
6.872,0.023
6.873,0.025
6.874,0.028
6.875,0.028
6.876,0.025
6.877,0.022
6.878,0.024
6.879,0.019
6.880,0.014
6.881,0.013
6.882,0.011
6.883,0.013
6.884,0.011
6.885,0.009
6.886,0.009
6.887,0.009
6.888,0.008
6.889,0.006
6.890,0.006
6.891,0.006
6.892,0.001
6.893,0.003
6.894,0.000
6.895,-0.006
6.896,-0.005
6.897,-0.006
6.898,-0.003
6.899,0.000
6.900,-0.003
6.901,-0.003
6.902,-0.003
6.903,-0.006
6.904,-0.006
6.905,-0.006
6.906,-0.003
6.907,0.000
6.908,0.000
6.909,0.000
6.910,0.000
6.911,0.000
6.912,-0.001
6.913,-0.003
6.914,-0.007
6.915,-0.013
6.916,-0.014
6.917,-0.013
6.918,-0.009
6.919,-0.013
6.920,-0.017
6.921,-0.025
6.922,-0.027
6.923,-0.022
6.924,-0.016
6.925,-0.013
6.926,-0.014
6.927,-0.016
6.928,-0.014
6.929,-0.016
6.930,-0.018
6.931,-0.016
6.932,-0.014
6.933,-0.016
6.934,-0.017
6.935,-0.019
6.936,-0.021
6.937,-0.019
6.938,-0.019
6.939,-0.016
6.940,-0.019
6.941,-0.019
6.942,-0.019
6.943,-0.028
6.944,-0.022
6.945,-0.016
6.946,-0.016
6.947,-0.019
6.948,-0.017
6.949,-0.022
6.950,-0.022
6.951,-0.025
6.952,-0.025
6.953,-0.028
6.954,-0.026
6.955,-0.028
6.956,-0.027
6.957,-0.028
6.958,-0.031
6.959,-0.034
6.960,-0.034
6.961,-0.034
6.962,-0.038
6.963,-0.038
6.964,-0.038
6.965,-0.038
6.966,-0.036
6.967,-0.038
6.968,-0.038
6.969,-0.038
6.970,-0.042
6.971,-0.044
6.972,-0.039
6.973,-0.038
6.974,-0.039
6.975,-0.041
6.976,-0.047
6.977,-0.047
6.978,-0.047
6.979,-0.047
6.980,-0.050
6.981,-0.047
6.982,-0.050
6.983,-0.047
6.984,-0.050
6.985,-0.047
6.986,-0.047
6.987,-0.050
6.988,-0.054
6.989,-0.056
6.990,-0.053
6.991,-0.056
6.992,-0.056
6.993,-0.056
6.994,-0.056
6.995,-0.053
6.996,-0.051
6.997,-0.053
6.998,-0.052
6.999,-0.053
7.000,-0.053
7.001,-0.053
7.002,-0.053
7.003,-0.053
7.004,-0.056
7.005,-0.056
7.006,-0.058
7.007,-0.059
7.008,-0.061
7.009,-0.063
7.010,-0.061
7.011,-0.059
7.012,-0.061
7.013,-0.059
7.014,-0.059
7.015,-0.063
7.016,-0.063
7.017,-0.063
7.018,-0.063
7.019,-0.059
7.020,-0.063
7.021,-0.066
7.022,-0.066
7.023,-0.066
7.024,-0.066
7.025,-0.059
7.026,-0.054
7.027,-0.056
7.028,-0.059
7.029,-0.059
7.030,-0.059
7.031,-0.059
7.032,-0.064
7.033,-0.063
7.034,-0.061
7.035,-0.063
7.036,-0.066
7.037,-0.069
7.038,-0.066
7.039,-0.069
7.040,-0.067
7.041,-0.066
7.042,-0.069
7.043,-0.066
7.044,-0.064
7.045,-0.066
7.046,-0.069
7.047,-0.066
7.048,-0.067
7.049,-0.072
7.050,-0.069
7.051,-0.069
7.052,-0.069
7.053,-0.069
7.054,-0.070
7.055,-0.072
7.056,-0.064
7.057,-0.056
7.058,-0.054
7.059,-0.053
7.060,-0.053
7.061,-0.053
7.062,-0.049
7.063,-0.041
7.064,-0.036
7.065,-0.028
7.066,-0.022
7.067,-0.016
7.068,-0.009
7.069,-0.003
7.070,-0.003
7.071,0.000
7.072,0.003
7.073,0.006
7.074,0.013
7.075,0.016
7.076,0.013
7.077,0.013
7.078,0.017
7.079,0.025
7.080,0.025
7.081,0.028
7.082,0.030
7.083,0.025
7.084,0.036
7.085,0.041
7.086,0.039
7.087,0.041
7.088,0.039
7.089,0.038
7.090,0.039
7.091,0.041
7.092,0.045
7.093,0.053
7.094,0.053
7.095,0.056
7.096,0.061
7.097,0.059
7.098,0.058
7.099,0.063
7.100,0.073
7.101,0.084
7.102,0.095
7.103,0.109
7.104,0.119
7.105,0.131
7.106,0.142
7.107,0.150
7.108,0.161
7.109,0.169
7.110,0.175
7.111,0.184
7.112,0.189
7.113,0.178
7.114,0.171
7.115,0.159
7.116,0.155
7.117,0.147
7.118,0.151
7.119,0.156
7.120,0.153
7.121,0.153
7.122,0.159
7.123,0.156
7.124,0.156
7.125,0.150
7.126,0.144
7.127,0.141
7.128,0.130
7.129,0.122
7.130,0.116
7.131,0.106
7.132,0.097
7.133,0.084
7.134,0.075
7.135,0.069
7.136,0.057
7.137,0.047
7.138,0.036
7.139,0.025
7.140,0.011
7.141,0.003
7.142,-0.008
7.143,-0.019
7.144,-0.029
7.145,-0.038
7.146,-0.046
7.147,-0.053
7.148,-0.063
7.149,-0.069
7.150,-0.072
7.151,-0.072
7.152,-0.072
7.153,-0.078
7.154,-0.077
7.155,-0.078
7.156,-0.081
7.157,-0.081
7.158,-0.080
7.159,-0.081
7.160,-0.084
7.161,-0.081
7.162,-0.077
7.163,-0.078
7.164,-0.083
7.165,-0.084
7.166,-0.086
7.167,-0.088
7.168,-0.089
7.169,-0.097
7.170,-0.099
7.171,-0.097
7.172,-0.094
7.173,-0.094
7.174,-0.094
7.175,-0.094
7.176,-0.094
7.177,-0.094
7.178,-0.092
7.179,-0.094
7.180,-0.092
7.181,-0.097
7.182,-0.100
7.183,-0.103
7.184,-0.100
7.185,-0.106
7.186,-0.103
7.187,-0.103
7.188,-0.106
7.189,-0.103
7.190,-0.106
7.191,-0.103
7.192,-0.097
7.193,-0.091
7.194,-0.091
7.195,-0.091
7.196,-0.094
7.197,-0.094
7.198,-0.098
7.199,-0.103
7.200,-0.099
7.201,-0.097
7.202,-0.096
7.203,-0.094
7.204,-0.094
7.205,-0.091
7.206,-0.089
7.207,-0.088
7.208,-0.086
7.209,-0.088
7.210,-0.092
7.211,-0.081
7.212,-0.071
7.213,-0.059
7.214,-0.050
7.215,-0.034
7.216,-0.020
7.217,-0.006
7.218,0.020
7.219,0.041
7.220,0.061
7.221,0.072
7.222,0.081
7.223,0.081
7.224,0.080
7.225,0.075
7.226,0.070
7.227,0.069
7.228,0.069
7.229,0.078
7.230,0.097
7.231,0.128
7.232,0.178
7.233,0.234
7.234,0.299
7.235,0.378
7.236,0.480
7.237,0.613
7.238,0.759
7.239,0.909
7.240,1.070
7.241,1.209
7.242,1.276
7.243,1.275
7.244,1.201
7.245,1.088
7.246,1.006
7.247,0.966
7.248,0.912
7.249,0.822
7.250,0.736
7.251,0.656
7.252,0.577
7.253,0.500
7.254,0.407
7.255,0.319
7.256,0.227
7.257,0.153
7.258,0.102
7.259,0.059
7.260,0.025
7.261,-0.006
7.262,-0.041
7.263,-0.066
7.264,-0.088
7.265,-0.116
7.266,-0.147
7.267,-0.181
7.268,-0.213
7.269,-0.241
7.270,-0.266
7.271,-0.297
7.272,-0.323
7.273,-0.337
7.274,-0.349
7.275,-0.353
7.276,-0.356
7.277,-0.350
7.278,-0.331
7.279,-0.309
7.280,-0.286
7.281,-0.269
7.282,-0.252
7.283,-0.238
7.284,-0.227
7.285,-0.209
7.286,-0.198
7.287,-0.187
7.288,-0.171
7.289,-0.159
7.290,-0.148
7.291,-0.144
7.292,-0.139
7.293,-0.134
7.294,-0.137
7.295,-0.134
7.296,-0.128
7.297,-0.119
7.298,-0.117
7.299,-0.116
7.300,-0.109
7.301,-0.106
7.302,-0.104
7.303,-0.106
7.304,-0.103
7.305,-0.100
7.306,-0.092
7.307,-0.091
7.308,-0.092
7.309,-0.088
7.310,-0.089
7.311,-0.091
7.312,-0.091
7.313,-0.091
7.314,-0.089
7.315,-0.091
7.316,-0.086
7.317,-0.081
7.318,-0.081
7.319,-0.081
7.320,-0.086
7.321,-0.084
7.322,-0.080
7.323,-0.078
7.324,-0.074
7.325,-0.072
7.326,-0.075
7.327,-0.072
7.328,-0.070
7.329,-0.072
7.330,-0.078
7.331,-0.084
7.332,-0.078
7.333,-0.075
7.334,-0.077
7.335,-0.075
7.336,-0.079
7.337,-0.078
7.338,-0.075
7.339,-0.072
7.340,-0.064
7.341,-0.066
7.342,-0.064
7.343,-0.066
7.344,-0.070
7.345,-0.069
7.346,-0.069
7.347,-0.069
7.348,-0.069
7.349,-0.072
7.350,-0.072
7.351,-0.072
7.352,-0.073
7.353,-0.072
7.354,-0.076
7.355,-0.078
7.356,-0.075
7.357,-0.072
7.358,-0.072
7.359,-0.072
7.360,-0.072
7.361,-0.072
7.362,-0.072
7.363,-0.072
7.364,-0.072
7.365,-0.072
7.366,-0.071
7.367,-0.069
7.368,-0.069
7.369,-0.069
7.370,-0.070
7.371,-0.072
7.372,-0.071
7.373,-0.069
7.374,-0.066
7.375,-0.069
7.376,-0.069
7.377,-0.069
7.378,-0.070
7.379,-0.069
7.380,-0.069
7.381,-0.069
7.382,-0.069
7.383,-0.072
7.384,-0.073
7.385,-0.075
7.386,-0.071
7.387,-0.069
7.388,-0.072
7.389,-0.072
7.390,-0.071
7.391,-0.066
7.392,-0.066
7.393,-0.063
7.394,-0.061
7.395,-0.056
7.396,-0.056
7.397,-0.053
7.398,-0.054
7.399,-0.056
7.400,-0.052
7.401,-0.050
7.402,-0.050
7.403,-0.050
7.404,-0.051
7.405,-0.050
7.406,-0.044
7.407,-0.038
7.408,-0.041
7.409,-0.041
7.410,-0.044
7.411,-0.044
7.412,-0.042
7.413,-0.044
7.414,-0.041
7.415,-0.038
7.416,-0.034
7.417,-0.028
7.418,-0.029
7.419,-0.028
7.420,-0.027
7.421,-0.022
7.422,-0.021
7.423,-0.019
7.424,-0.022
7.425,-0.025
7.426,-0.022
7.427,-0.022
7.428,-0.019
7.429,-0.016
7.430,-0.018
7.431,-0.016
7.432,-0.017
7.433,-0.016
7.434,-0.009
7.435,-0.009
7.436,-0.013
7.437,-0.013
7.438,-0.009
7.439,-0.006
7.440,0.000
7.441,0.003
7.442,-0.003
7.443,-0.009
7.444,-0.008
7.445,-0.006
7.446,-0.009
7.447,-0.009
7.448,-0.007
7.449,-0.006
7.450,-0.008
7.451,-0.006
7.452,0.000
7.453,0.003
7.454,0.000
7.455,0.003
7.456,0.003
7.457,0.006
7.458,0.007
7.459,0.006
7.460,0.006
7.461,0.006
7.462,0.011
7.463,0.009
7.464,0.005
7.465,0.003
7.466,0.000
7.467,0.003
7.468,0.011
7.469,0.013
7.470,0.011
7.471,0.013
7.472,0.009
7.473,0.009
7.474,0.011
7.475,0.013
7.476,0.008
7.477,0.009
7.478,0.009
7.479,0.009
7.480,0.009
7.481,0.009
7.482,0.008
7.483,0.006
7.484,0.007
7.485,0.009
7.486,0.008
7.487,0.009
7.488,0.011
7.489,0.013
7.490,0.009
7.491,0.013
7.492,0.009
7.493,0.009
7.494,0.006
7.495,0.009
7.496,0.009
7.497,0.009
7.498,0.009
7.499,0.009
7.500,0.011
7.501,0.013
7.502,0.013
7.503,0.013
7.504,0.013
7.505,0.013
7.506,0.019
7.507,0.019
7.508,0.018
7.509,0.016
7.510,0.014
7.511,0.016
7.512,0.020
7.513,0.028
7.514,0.024
7.515,0.022
7.516,0.025
7.517,0.022
7.518,0.025
7.519,0.028
7.520,0.025
7.521,0.031
7.522,0.034
7.523,0.038
7.524,0.034
7.525,0.038
7.526,0.038
7.527,0.041
7.528,0.042
7.529,0.050
7.530,0.047
7.531,0.050
7.532,0.050
7.533,0.053
7.534,0.054
7.535,0.059
7.536,0.059
7.537,0.059
7.538,0.061
7.539,0.059
7.540,0.064
7.541,0.066
7.542,0.067
7.543,0.069
7.544,0.069
7.545,0.072
7.546,0.072
7.547,0.072
7.548,0.072
7.549,0.075
7.550,0.076
7.551,0.081
7.552,0.084
7.553,0.084
7.554,0.077
7.555,0.072
7.556,0.079
7.557,0.078
7.558,0.072
7.559,0.069
7.560,0.075
7.561,0.081
7.562,0.083
7.563,0.084
7.564,0.084
7.565,0.081
7.566,0.081
7.567,0.084
7.568,0.086
7.569,0.084
7.570,0.077
7.571,0.072
7.572,0.069
7.573,0.069
7.574,0.067
7.575,0.066
7.576,0.069
7.577,0.066
7.578,0.070
7.579,0.072
7.580,0.072
7.581,0.069
7.582,0.070
7.583,0.069
7.584,0.072
7.585,0.069
7.586,0.064
7.587,0.059
7.588,0.059
7.589,0.059
7.590,0.057
7.591,0.063
7.592,0.059
7.593,0.059
7.594,0.063
7.595,0.059
7.596,0.059
7.597,0.056
7.598,0.052
7.599,0.050
7.600,0.051
7.601,0.053
7.602,0.053
7.603,0.053
7.604,0.053
7.605,0.047
7.606,0.047
7.607,0.047
7.608,0.042
7.609,0.041
7.610,0.042
7.611,0.047
7.612,0.050
7.613,0.050
7.614,0.049
7.615,0.050
7.616,0.050
7.617,0.047
7.618,0.045
7.619,0.047
7.620,0.044
7.621,0.041
7.622,0.038
7.623,0.034
7.624,0.034
7.625,0.034
7.626,0.034
7.627,0.031
7.628,0.029
7.629,0.028
7.630,0.027
7.631,0.028
7.632,0.028
7.633,0.031
7.634,0.029
7.635,0.028
7.636,0.027
7.637,0.022
7.638,0.018
7.639,0.016
7.640,0.020
7.641,0.028
7.642,0.029
7.643,0.028
7.644,0.025
7.645,0.022
7.646,0.018
7.647,0.016
7.648,0.020
7.649,0.022
7.650,0.021
7.651,0.019
7.652,0.021
7.653,0.016
7.654,0.014
7.655,0.016
7.656,0.013
7.657,0.016
7.658,0.013
7.659,0.009
7.660,0.006
7.661,0.009
7.662,0.007
7.663,0.009
7.664,0.007
7.665,0.009
7.666,0.006
7.667,0.009
7.668,0.005
7.669,0.000
7.670,-0.002
7.671,-0.003
7.672,-0.003
7.673,0.000
7.674,0.000
7.675,0.000
7.676,0.002
7.677,0.000
7.678,-0.001
7.679,-0.003
7.680,-0.006
7.681,-0.006
7.682,-0.007
7.683,-0.013
7.684,-0.014
7.685,-0.016
7.686,-0.018
7.687,-0.016
7.688,-0.017
7.689,-0.022
7.690,-0.019
7.691,-0.019
7.692,-0.019
7.693,-0.022
7.694,-0.023
7.695,-0.031
7.696,-0.025
7.697,-0.025
7.698,-0.019
7.699,-0.019
7.700,-0.024
7.701,-0.022
7.702,-0.020
7.703,-0.019
7.704,-0.022
7.705,-0.022
7.706,-0.021
7.707,-0.022
7.708,-0.023
7.709,-0.022
7.710,-0.021
7.711,-0.019
7.712,-0.022
7.713,-0.022
7.714,-0.022
7.715,-0.022
7.716,-0.022
7.717,-0.025
7.718,-0.025
7.719,-0.025
7.720,-0.025
7.721,-0.025
7.722,-0.021
7.723,-0.019
7.724,-0.017
7.725,-0.019
7.726,-0.023
7.727,-0.028
7.728,-0.032
7.729,-0.034
7.730,-0.034
7.731,-0.034
7.732,-0.030
7.733,-0.025
7.734,-0.027
7.735,-0.028
7.736,-0.029
7.737,-0.028
7.738,-0.028
7.739,-0.031
7.740,-0.032
7.741,-0.034
7.742,-0.033
7.743,-0.028
7.744,-0.030
7.745,-0.031
7.746,-0.034
7.747,-0.038
7.748,-0.042
7.749,-0.041
7.750,-0.033
7.751,-0.031
7.752,-0.038
7.753,-0.041
7.754,-0.044
7.755,-0.047
7.756,-0.050
7.757,-0.047
7.758,-0.038
7.759,-0.031
7.760,-0.028
7.761,-0.025
7.762,-0.022
7.763,-0.025
7.764,-0.029
7.765,-0.034
7.766,-0.038
7.767,-0.034
7.768,-0.031
7.769,-0.031
7.770,-0.028
7.771,-0.019
7.772,-0.018
7.773,-0.019
7.774,-0.022
7.775,-0.028
7.776,-0.028
7.777,-0.028
7.778,-0.029
7.779,-0.031
7.780,-0.031
7.781,-0.031
7.782,-0.027
7.783,-0.022
7.784,-0.018
7.785,-0.013
7.786,-0.011
7.787,-0.006
7.788,0.001
7.789,0.013
7.790,0.019
7.791,0.025
7.792,0.028
7.793,0.031
7.794,0.031
7.795,0.034
7.796,0.036
7.797,0.038
7.798,0.042
7.799,0.044
7.800,0.047
7.801,0.053
7.802,0.055
7.803,0.059
7.804,0.064
7.805,0.072
7.806,0.076
7.807,0.075
7.808,0.077
7.809,0.072
7.810,0.072
7.811,0.075
7.812,0.075
7.813,0.075
7.814,0.072
7.815,0.069
7.816,0.072
7.817,0.078
7.818,0.080
7.819,0.084
7.820,0.092
7.821,0.094
7.822,0.094
7.823,0.100
7.824,0.106
7.825,0.112
7.826,0.122
7.827,0.134
7.828,0.143
7.829,0.153
7.830,0.161
7.831,0.166
7.832,0.179
7.833,0.191
7.834,0.198
7.835,0.209
7.836,0.214
7.837,0.203
7.838,0.197
7.839,0.187
7.840,0.186
7.841,0.181
7.842,0.181
7.843,0.181
7.844,0.181
7.845,0.184
7.846,0.189
7.847,0.184
7.848,0.184
7.849,0.178
7.850,0.172
7.851,0.169
7.852,0.161
7.853,0.156
7.854,0.149
7.855,0.137
7.856,0.133
7.857,0.125
7.858,0.112
7.859,0.103
7.860,0.094
7.861,0.084
7.862,0.075
7.863,0.066
7.864,0.046
7.865,0.031
7.866,0.019
7.867,0.006
7.868,-0.003
7.869,-0.009
7.870,-0.019
7.871,-0.028
7.872,-0.030
7.873,-0.028
7.874,-0.030
7.875,-0.028
7.876,-0.027
7.877,-0.031
7.878,-0.036
7.879,-0.044
7.880,-0.054
7.881,-0.063
7.882,-0.059
7.883,-0.059
7.884,-0.059
7.885,-0.053
7.886,-0.050
7.887,-0.053
7.888,-0.063
7.889,-0.069
7.890,-0.075
7.891,-0.081
7.892,-0.072
7.893,-0.069
7.894,-0.069
7.895,-0.066
7.896,-0.063
7.897,-0.063
7.898,-0.063
7.899,-0.063
7.900,-0.064
7.901,-0.066
7.902,-0.066
7.903,-0.069
7.904,-0.064
7.905,-0.066
7.906,-0.069
7.907,-0.072
7.908,-0.069
7.909,-0.075
7.910,-0.066
7.911,-0.059
7.912,-0.055
7.913,-0.044
7.914,-0.054
7.915,-0.059
7.916,-0.070
7.917,-0.081
7.918,-0.089
7.919,-0.097
7.920,-0.097
7.921,-0.094
7.922,-0.080
7.923,-0.066
7.924,-0.070
7.925,-0.078
7.926,-0.078
7.927,-0.078
7.928,-0.081
7.929,-0.081
7.930,-0.078
7.931,-0.075
7.932,-0.075
7.933,-0.078
7.934,-0.086
7.935,-0.078
7.936,-0.069
7.937,-0.059
7.938,-0.042
7.939,-0.019
7.940,0.006
7.941,0.031
7.942,0.052
7.943,0.066
7.944,0.084
7.945,0.094
7.946,0.103
7.947,0.103
7.948,0.114
7.949,0.122
7.950,0.108
7.951,0.097
7.952,0.084
7.953,0.081
7.954,0.100
7.955,0.131
7.956,0.177
7.957,0.228
7.958,0.275
7.959,0.337
7.960,0.427
7.961,0.547
7.962,0.686
7.963,0.828
7.964,1.004
7.965,1.159
7.966,1.263
7.967,1.297
7.968,1.231
7.969,1.125
7.970,1.033
7.971,0.981
7.972,0.936
7.973,0.853
7.974,0.764
7.975,0.681
7.976,0.606
7.977,0.534
7.978,0.444
7.979,0.356
7.980,0.261
7.981,0.184
7.982,0.134
7.983,0.094
7.984,0.052
7.985,0.013
7.986,-0.019
7.987,-0.041
7.988,-0.050
7.989,-0.066
7.990,-0.097
7.991,-0.131
7.992,-0.173
7.993,-0.213
7.994,-0.236
7.995,-0.266
7.996,-0.297
7.997,-0.316
7.998,-0.337
7.999,-0.353
8.000,-0.358
8.001,-0.353
8.002,-0.334
8.003,-0.312
8.004,-0.291
8.005,-0.275
8.006,-0.253
8.007,-0.234
8.008,-0.228
8.009,-0.216
8.010,-0.202
8.011,-0.187
8.012,-0.171
8.013,-0.159
8.014,-0.146
8.015,-0.137
8.016,-0.127
8.017,-0.116
8.018,-0.119
8.019,-0.116
8.020,-0.114
8.021,-0.109
8.022,-0.108
8.023,-0.106
8.024,-0.103
8.025,-0.103
8.026,-0.099
8.027,-0.097
8.028,-0.096
8.029,-0.094
8.030,-0.086
8.031,-0.084
8.032,-0.088
8.033,-0.084
8.034,-0.083
8.035,-0.081
8.036,-0.083
8.037,-0.084
8.038,-0.083
8.039,-0.084
8.040,-0.084
8.041,-0.084
8.042,-0.083
8.043,-0.081
8.044,-0.088
8.045,-0.088
8.046,-0.086
8.047,-0.088
8.048,-0.086
8.049,-0.088
8.050,-0.094
8.051,-0.094
8.052,-0.095
8.053,-0.100
8.054,-0.089
8.055,-0.078
8.056,-0.076
8.057,-0.078
8.058,-0.084
8.059,-0.088
8.060,-0.091
8.061,-0.088
8.062,-0.088
8.063,-0.088
8.064,-0.083
8.065,-0.088
8.066,-0.089
8.067,-0.094
8.068,-0.096
8.069,-0.091
8.070,-0.084
8.071,-0.078
8.072,-0.079
8.073,-0.084
8.074,-0.094
8.075,-0.103
8.076,-0.108
8.077,-0.109
8.078,-0.102
8.079,-0.091
8.080,-0.089
8.081,-0.088
8.082,-0.088
8.083,-0.088
8.084,-0.074
8.085,-0.059
8.086,-0.063
8.087,-0.066
8.088,-0.073
8.089,-0.081
8.090,-0.083
8.091,-0.084
8.092,-0.084
8.093,-0.084
8.094,-0.086
8.095,-0.088
8.096,-0.092
8.097,-0.097
8.098,-0.092
8.099,-0.094
8.100,-0.094
8.101,-0.094
8.102,-0.094
8.103,-0.091
8.104,-0.094
8.105,-0.097
8.106,-0.096
8.107,-0.097
8.108,-0.094
8.109,-0.091
8.110,-0.088
8.111,-0.088
8.112,-0.089
8.113,-0.088
8.114,-0.088
8.115,-0.084
8.116,-0.086
8.117,-0.084
8.118,-0.086
8.119,-0.084
8.120,-0.088
8.121,-0.088
8.122,-0.086
8.123,-0.084
8.124,-0.088
8.125,-0.094
8.126,-0.101
8.127,-0.109
8.128,-0.111
8.129,-0.109
8.130,-0.092
8.131,-0.075
8.132,-0.076
8.133,-0.075
8.134,-0.076
8.135,-0.075
8.136,-0.072
8.137,-0.072
8.138,-0.078
8.139,-0.084
8.140,-0.092
8.141,-0.097
8.142,-0.097
8.143,-0.094
8.144,-0.092
8.145,-0.088
8.146,-0.088
8.147,-0.088
8.148,-0.088
8.149,-0.088
8.150,-0.083
8.151,-0.081
8.152,-0.072
8.153,-0.063
8.154,-0.059
8.155,-0.053
8.156,-0.054
8.157,-0.053
8.158,-0.056
8.159,-0.066
8.160,-0.069
8.161,-0.069
8.162,-0.069
8.163,-0.069
8.164,-0.067
8.165,-0.069
8.166,-0.070
8.167,-0.072
8.168,-0.066
8.169,-0.059
8.170,-0.059
8.171,-0.056
8.172,-0.053
8.173,-0.050
8.174,-0.047
8.175,-0.041
8.176,-0.045
8.177,-0.053
8.178,-0.056
8.179,-0.053
8.180,-0.056
8.181,-0.056
8.182,-0.055
8.183,-0.056
8.184,-0.056
8.185,-0.056
8.186,-0.054
8.187,-0.059
8.188,-0.064
8.189,-0.066
8.190,-0.072
8.191,-0.072
8.192,-0.061
8.193,-0.056
8.194,-0.053
8.195,-0.047
8.196,-0.047
8.197,-0.044
8.198,-0.044
8.199,-0.044
8.200,-0.046
8.201,-0.041
8.202,-0.042
8.203,-0.044
8.204,-0.042
8.205,-0.041
8.206,-0.038
8.207,-0.034
8.208,-0.038
8.209,-0.041
8.210,-0.044
8.211,-0.044
8.212,-0.038
8.213,-0.031
8.214,-0.036
8.215,-0.034
8.216,-0.036
8.217,-0.034
8.218,-0.042
8.219,-0.044
8.220,-0.044
8.221,-0.044
8.222,-0.044
8.223,-0.044
8.224,-0.044
8.225,-0.044
8.226,-0.041
8.227,-0.038
8.228,-0.038
8.229,-0.038
8.230,-0.033
8.231,-0.034
8.232,-0.028
8.233,-0.022
8.234,-0.021
8.235,-0.016
8.236,-0.017
8.237,-0.016
8.238,-0.019
8.239,-0.019
8.240,-0.016
8.241,-0.019
8.242,-0.016
8.243,-0.013
8.244,-0.014
8.245,-0.006
8.246,-0.006
8.247,-0.006
8.248,-0.006
8.249,0.000
8.250,0.004
8.251,0.013
8.252,0.009
8.253,0.013
8.254,0.008
8.255,0.009
8.256,0.013
8.257,0.019
8.258,0.018
8.259,0.019
8.260,0.022
8.261,0.025
8.262,0.022
8.263,0.016
8.264,0.020
8.265,0.022
8.266,0.025
8.267,0.028
8.268,0.025
8.269,0.025
8.270,0.022
8.271,0.019
8.272,0.023
8.273,0.031
8.274,0.032
8.275,0.038
8.276,0.038
8.277,0.034
8.278,0.034
8.279,0.038
8.280,0.041
8.281,0.034
8.282,0.025
8.283,0.019
8.284,0.028
8.285,0.038
8.286,0.036
8.287,0.034
8.288,0.039
8.289,0.041
8.290,0.039
8.291,0.041
8.292,0.041
8.293,0.038
8.294,0.036
8.295,0.038
8.296,0.033
8.297,0.031
8.298,0.030
8.299,0.028
8.300,0.032
8.301,0.031
8.302,0.031
8.303,0.028
8.304,0.028
8.305,0.025
8.306,0.025
8.307,0.022
8.308,0.026
8.309,0.025
8.310,0.022
8.311,0.019
8.312,0.017
8.313,0.016
8.314,0.011
8.315,0.013
8.316,0.009
8.317,0.009
8.318,0.017
8.319,0.019
8.320,0.020
8.321,0.019
8.322,0.016
8.323,0.016
8.324,0.014
8.325,0.013
8.326,0.011
8.327,0.009
8.328,0.009
8.329,0.003
8.330,0.003
8.331,0.003
8.332,-0.003
8.333,-0.006
8.334,-0.005
8.335,0.000
8.336,0.000
8.337,-0.003
8.338,-0.006
8.339,-0.006
8.340,-0.005
8.341,-0.006
8.342,-0.011
8.343,-0.013
8.344,-0.002
8.345,0.009
8.346,0.009
8.347,0.009
8.348,0.008
8.349,0.006
8.350,0.003
8.351,-0.003
8.352,-0.009
8.353,-0.016
8.354,-0.017
8.355,-0.016
8.356,-0.022
8.357,-0.025
8.358,-0.031
8.359,-0.038
8.360,-0.034
8.361,-0.034
8.362,-0.031
8.363,-0.025
8.364,-0.022
8.365,-0.016
8.366,-0.013
8.367,-0.013
8.368,-0.016
8.369,-0.019
8.370,-0.028
8.371,-0.034
8.372,-0.033
8.373,-0.034
8.374,-0.036
8.375,-0.038
8.376,-0.033
8.377,-0.034
8.378,-0.031
8.379,-0.025
8.380,-0.031
8.381,-0.031
8.382,-0.032
8.383,-0.034
8.384,-0.038
8.385,-0.034
8.386,-0.039
8.387,-0.041
8.388,-0.042
8.389,-0.041
8.390,-0.045
8.391,-0.044
8.392,-0.045
8.393,-0.047
8.394,-0.049
8.395,-0.050
8.396,-0.053
8.397,-0.053
8.398,-0.054
8.399,-0.056
8.400,-0.053
8.401,-0.053
8.402,-0.054
8.403,-0.056
8.404,-0.058
8.405,-0.056
8.406,-0.052
8.407,-0.050
8.408,-0.053
8.409,-0.056
8.410,-0.059
8.411,-0.059
8.412,-0.056
8.413,-0.056
8.414,-0.056
8.415,-0.059
8.416,-0.058
8.417,-0.059
8.418,-0.056
8.419,-0.059
8.420,-0.063
8.421,-0.072
8.422,-0.073
8.423,-0.081
8.424,-0.078
8.425,-0.069
8.426,-0.056
8.427,-0.044
8.428,-0.053
8.429,-0.059
8.430,-0.063
8.431,-0.069
8.432,-0.070
8.433,-0.069
8.434,-0.069
8.435,-0.069
8.436,-0.072
8.437,-0.072
8.438,-0.072
8.439,-0.072
8.440,-0.072
8.441,-0.075
8.442,-0.072
8.443,-0.069
8.444,-0.067
8.445,-0.066
8.446,-0.066
8.447,-0.066
8.448,-0.069
8.449,-0.072
8.450,-0.072
8.451,-0.072
8.452,-0.073
8.453,-0.072
8.454,-0.075
8.455,-0.081
8.456,-0.078
8.457,-0.075
8.458,-0.078
8.459,-0.078
8.460,-0.080
8.461,-0.081
8.462,-0.081
8.463,-0.081
8.464,-0.083
8.465,-0.078
8.466,-0.073
8.467,-0.075
8.468,-0.079
8.469,-0.081
8.470,-0.083
8.471,-0.084
8.472,-0.091
8.473,-0.091
8.474,-0.089
8.475,-0.091
8.476,-0.089
8.477,-0.088
8.478,-0.081
8.479,-0.081
8.480,-0.080
8.481,-0.078
8.482,-0.084
8.483,-0.084
8.484,-0.084
8.485,-0.088
8.486,-0.089
8.487,-0.084
8.488,-0.083
8.489,-0.084
8.490,-0.084
8.491,-0.088
8.492,-0.089
8.493,-0.091
8.494,-0.089
8.495,-0.088
8.496,-0.083
8.497,-0.078
8.498,-0.072
8.499,-0.066
8.500,-0.063
8.501,-0.059
8.502,-0.063
8.503,-0.063
8.504,-0.055
8.505,-0.044
8.506,-0.036
8.507,-0.028
8.508,-0.023
8.509,-0.019
8.510,-0.020
8.511,-0.019
8.512,-0.019
8.513,-0.019
8.514,-0.011
8.515,-0.006
8.516,0.001
8.517,0.013
8.518,0.013
8.519,0.016
8.520,0.013
8.521,0.013
8.522,0.025
8.523,0.031
8.524,0.036
8.525,0.034
8.526,0.034
8.527,0.038
8.528,0.036
8.529,0.034
8.530,0.034
8.531,0.034
8.532,0.034
8.533,0.038
8.534,0.044
8.535,0.053
8.536,0.058
8.537,0.056
8.538,0.053
8.539,0.056
8.540,0.063
8.541,0.069
8.542,0.075
8.543,0.084
8.544,0.095
8.545,0.109
8.546,0.120
8.547,0.128
8.548,0.144
8.549,0.156
8.550,0.166
8.551,0.178
8.552,0.187
8.553,0.181
8.554,0.172
8.555,0.159
8.556,0.161
8.557,0.159
8.558,0.155
8.559,0.150
8.560,0.148
8.561,0.150
8.562,0.154
8.563,0.150
8.564,0.150
8.565,0.144
8.566,0.141
8.567,0.141
8.568,0.128
8.569,0.119
8.570,0.114
8.571,0.106
8.572,0.104
8.573,0.100
8.574,0.084
8.575,0.072
8.576,0.059
8.577,0.047
8.578,0.036
8.579,0.025
8.580,0.011
8.581,0.003
8.582,-0.009
8.583,-0.022
8.584,-0.028
8.585,-0.031
8.586,-0.042
8.587,-0.053
8.588,-0.064
8.589,-0.072
8.590,-0.078
8.591,-0.081
8.592,-0.081
8.593,-0.088
8.594,-0.086
8.595,-0.088
8.596,-0.089
8.597,-0.088
8.598,-0.086
8.599,-0.088
8.600,-0.091
8.601,-0.088
8.602,-0.084
8.603,-0.088
8.604,-0.094
8.605,-0.097
8.606,-0.100
8.607,-0.103
8.608,-0.097
8.609,-0.097
8.610,-0.097
8.611,-0.094
8.612,-0.094
8.613,-0.097
8.614,-0.097
8.615,-0.097
8.616,-0.098
8.617,-0.100
8.618,-0.106
8.619,-0.116
8.620,-0.111
8.621,-0.112
8.622,-0.112
8.623,-0.112
8.624,-0.106
8.625,-0.109
8.626,-0.104
8.627,-0.103
8.628,-0.100
8.629,-0.091
8.630,-0.097
8.631,-0.097
8.632,-0.097
8.633,-0.097
8.634,-0.097
8.635,-0.097
8.636,-0.101
8.637,-0.103
8.638,-0.102
8.639,-0.100
8.640,-0.099
8.641,-0.100
8.642,-0.100
8.643,-0.100
8.644,-0.092
8.645,-0.081
8.646,-0.079
8.647,-0.078
8.648,-0.081
8.649,-0.088
8.650,-0.092
8.651,-0.081
8.652,-0.071
8.653,-0.059
8.654,-0.044
8.655,-0.022
8.656,0.001
8.657,0.025
8.658,0.046
8.659,0.059
8.660,0.081
8.661,0.094
8.662,0.103
8.663,0.103
8.664,0.104
8.665,0.103
8.666,0.096
8.667,0.091
8.668,0.088
8.669,0.094
8.670,0.111
8.671,0.141
8.672,0.192
8.673,0.250
8.674,0.308
8.675,0.381
8.676,0.467
8.677,0.584
8.678,0.716
8.679,0.850
8.680,1.031
8.681,1.191
8.682,1.303
8.683,1.347
8.684,1.275
8.685,1.162
8.686,1.061
8.687,1.000
8.688,0.958
8.689,0.878
8.690,0.775
8.691,0.678
8.692,0.600
8.693,0.525
8.694,0.418
8.695,0.312
8.696,0.211
8.697,0.128
8.698,0.074
8.699,0.028
8.700,-0.003
8.701,-0.031
8.702,-0.064
8.703,-0.088
8.704,-0.112
8.705,-0.144
8.706,-0.168
8.707,-0.194
8.708,-0.221
8.709,-0.244
8.710,-0.267
8.711,-0.297
8.712,-0.319
8.713,-0.328
8.714,-0.336
8.715,-0.337
8.716,-0.330
8.717,-0.312
8.718,-0.294
8.719,-0.272
8.720,-0.251
8.721,-0.238
8.722,-0.222
8.723,-0.209
8.724,-0.200
8.725,-0.184
8.726,-0.178
8.727,-0.172
8.728,-0.159
8.729,-0.153
8.730,-0.144
8.731,-0.141
8.732,-0.134
8.733,-0.128
8.734,-0.119
8.735,-0.103
8.736,-0.097
8.737,-0.088
8.738,-0.089
8.739,-0.091
8.740,-0.088
8.741,-0.088
8.742,-0.080
8.743,-0.075
8.744,-0.076
8.745,-0.078
8.746,-0.072
8.747,-0.072
8.748,-0.076
8.749,-0.075
8.750,-0.071
8.751,-0.066
8.752,-0.066
8.753,-0.066
8.754,-0.061
8.755,-0.059
8.756,-0.058
8.757,-0.056
8.758,-0.056
8.759,-0.056
8.760,-0.061
8.761,-0.059
8.762,-0.056
8.763,-0.056
8.764,-0.056
8.765,-0.059
8.766,-0.063
8.767,-0.059
8.768,-0.056
8.769,-0.056
8.770,-0.056
8.771,-0.056
8.772,-0.052
8.773,-0.050
8.774,-0.052
8.775,-0.050
8.776,-0.054
8.777,-0.053
8.778,-0.054
8.779,-0.056
8.780,-0.049
8.781,-0.050
8.782,-0.051
8.783,-0.056
8.784,-0.058
8.785,-0.053
8.786,-0.053
8.787,-0.053
8.788,-0.050
8.789,-0.050
8.790,-0.050
8.791,-0.050
8.792,-0.051
8.793,-0.050
8.794,-0.049
8.795,-0.044
8.796,-0.045
8.797,-0.047
8.798,-0.050
8.799,-0.053
8.800,-0.049
8.801,-0.044
8.802,-0.044
8.803,-0.044
8.804,-0.047
8.805,-0.050
8.806,-0.050
8.807,-0.050
8.808,-0.050
8.809,-0.050
8.810,-0.051
8.811,-0.053
8.812,-0.053
8.813,-0.053
8.814,-0.056
8.815,-0.066
8.816,-0.066
8.817,-0.066
8.818,-0.063
8.819,-0.056
8.820,-0.057
8.821,-0.059
8.822,-0.056
8.823,-0.056
8.824,-0.056
8.825,-0.056
8.826,-0.049
8.827,-0.044
8.828,-0.044
8.829,-0.041
8.830,-0.042
8.831,-0.041
8.832,-0.042
8.833,-0.041
8.834,-0.039
8.835,-0.034
8.836,-0.036
8.837,-0.034
8.838,-0.034
8.839,-0.034
8.840,-0.032
8.841,-0.034
8.842,-0.036
8.843,-0.038
8.844,-0.033
8.845,-0.025
8.846,-0.026
8.847,-0.028
8.848,-0.032
8.849,-0.034
8.850,-0.038
8.851,-0.038
8.852,-0.038
8.853,-0.041
8.854,-0.042
8.855,-0.044
8.856,-0.039
8.857,-0.031
8.858,-0.032
8.859,-0.031
8.860,-0.031
8.861,-0.028
8.862,-0.024
8.863,-0.019
8.864,-0.019
8.865,-0.019
8.866,-0.019
8.867,-0.022
8.868,-0.020
8.869,-0.019
8.870,-0.023
8.871,-0.025
8.872,-0.022
8.873,-0.016
8.874,-0.009
8.875,-0.009
8.876,-0.011
8.877,-0.009
8.878,-0.011
8.879,-0.013
8.880,-0.009
8.881,-0.009
8.882,-0.011
8.883,-0.013
8.884,-0.009
8.885,-0.006
8.886,-0.005
8.887,0.000
8.888,0.006
8.889,0.013
8.890,0.013
8.891,0.016
8.892,0.016
8.893,0.013
8.894,0.006
8.895,0.006
8.896,0.003
8.897,0.003
8.898,0.002
8.899,-0.003
8.900,-0.002
8.901,0.000
8.902,0.006
8.903,0.006
8.904,0.005
8.905,0.006
8.906,0.002
8.907,0.003
8.908,0.008
8.909,0.006
8.910,0.007
8.911,0.013
8.912,0.009
8.913,0.009
8.914,0.009
8.915,0.009
8.916,0.005
8.917,0.006
8.918,0.007
8.919,0.009
8.920,0.009
8.921,0.009
8.922,0.009
8.923,0.009
8.924,0.008
8.925,0.006
8.926,0.006
8.927,0.009
8.928,0.009
8.929,0.009
8.930,0.009
8.931,0.016
8.932,0.013
8.933,0.013
8.934,0.011
8.935,0.016
8.936,0.017
8.937,0.019
8.938,0.019
8.939,0.019
8.940,0.018
8.941,0.016
8.942,0.014
8.943,0.013
8.944,0.017
8.945,0.022
8.946,0.025
8.947,0.022
8.948,0.022
8.949,0.022
8.950,0.021
8.951,0.022
8.952,0.014
8.953,0.009
8.954,0.009
8.955,0.013
8.956,0.023
8.957,0.028
8.958,0.028
8.959,0.028
8.960,0.024
8.961,0.028
8.962,0.028
8.963,0.028
8.964,0.025
8.965,0.028
8.966,0.029
8.967,0.034
8.968,0.031
8.969,0.034
8.970,0.034
8.971,0.041
8.972,0.042
8.973,0.047
8.974,0.048
8.975,0.053
8.976,0.053
8.977,0.053
8.978,0.053
8.979,0.050
8.980,0.053
8.981,0.053
8.982,0.055
8.983,0.056
8.984,0.055
8.985,0.056
8.986,0.059
8.987,0.063
8.988,0.063
8.989,0.066
8.990,0.063
8.991,0.063
8.992,0.058
8.993,0.050
8.994,0.050
8.995,0.053
8.996,0.063
8.997,0.063
8.998,0.059
8.999,0.059
9.000,0.064
9.001,0.069
9.002,0.069
9.003,0.069
9.004,0.067
9.005,0.063
9.006,0.063
9.007,0.066
9.008,0.063
9.009,0.056
9.010,0.054
9.011,0.056
9.012,0.057
9.013,0.063
9.014,0.063
9.015,0.063
9.016,0.066
9.017,0.063
9.018,0.059
9.019,0.053
9.020,0.054
9.021,0.053
9.022,0.056
9.023,0.056
9.024,0.055
9.025,0.047
9.026,0.047
9.027,0.047
9.028,0.047
9.029,0.047
9.030,0.039
9.031,0.038
9.032,0.036
9.033,0.038
9.034,0.041
9.035,0.038
9.036,0.039
9.037,0.038
9.038,0.033
9.039,0.031
9.040,0.036
9.041,0.041
9.042,0.039
9.043,0.038
9.044,0.038
9.045,0.031
9.046,0.036
9.047,0.041
9.048,0.038
9.049,0.038
9.050,0.034
9.051,0.034
9.052,0.034
9.053,0.031
9.054,0.028
9.055,0.028
9.056,0.029
9.057,0.028
9.058,0.024
9.059,0.022
9.060,0.023
9.061,0.025
9.062,0.022
9.063,0.019
9.064,0.011
9.065,0.003
9.066,0.007
9.067,0.009
9.068,0.013
9.069,0.016
9.070,0.016
9.071,0.019
9.072,0.016
9.073,0.016
9.074,0.014
9.075,0.013
9.076,0.016
9.077,0.016
9.078,0.011
9.079,0.009
9.080,0.006
9.081,0.006
9.082,0.006
9.083,0.003
9.084,0.003
9.085,0.003
9.086,-0.003
9.087,-0.006
9.088,-0.006
9.089,-0.009
9.090,-0.011
9.091,-0.013
9.092,-0.008
9.093,-0.009
9.094,-0.005
9.095,0.003
9.096,-0.003
9.097,-0.003
9.098,-0.004
9.099,-0.006
9.100,-0.008
9.101,-0.003
9.102,-0.007
9.103,-0.009
9.104,-0.013
9.105,-0.013
9.106,-0.014
9.107,-0.009
9.108,-0.011
9.109,-0.013
9.110,-0.014
9.111,-0.016
9.112,-0.019
9.113,-0.019
9.114,-0.023
9.115,-0.028
9.116,-0.024
9.117,-0.022
9.118,-0.023
9.119,-0.025
9.120,-0.028
9.121,-0.028
9.122,-0.027
9.123,-0.028
9.124,-0.031
9.125,-0.034
9.126,-0.036
9.127,-0.034
9.128,-0.031
9.129,-0.031
9.130,-0.029
9.131,-0.031
9.132,-0.032
9.133,-0.038
9.134,-0.036
9.135,-0.041
9.136,-0.038
9.137,-0.041
9.138,-0.039
9.139,-0.044
9.140,-0.050
9.141,-0.050
9.142,-0.048
9.143,-0.047
9.144,-0.050
9.145,-0.050
9.146,-0.049
9.147,-0.050
9.148,-0.051
9.149,-0.050
9.150,-0.049
9.151,-0.047
9.152,-0.047
9.153,-0.044
9.154,-0.044
9.155,-0.044
9.156,-0.044
9.157,-0.047
9.158,-0.051
9.159,-0.053
9.160,-0.050
9.161,-0.050
9.162,-0.052
9.163,-0.050
9.164,-0.051
9.165,-0.053
9.166,-0.051
9.167,-0.056
9.168,-0.063
9.169,-0.066
9.170,-0.066
9.171,-0.069
9.172,-0.064
9.173,-0.056
9.174,-0.055
9.175,-0.056
9.176,-0.057
9.177,-0.059
9.178,-0.056
9.179,-0.059
9.180,-0.063
9.181,-0.063
9.182,-0.063
9.183,-0.063
9.184,-0.061
9.185,-0.056
9.186,-0.063
9.187,-0.066
9.188,-0.066
9.189,-0.069
9.190,-0.066
9.191,-0.066
9.192,-0.069
9.193,-0.069
9.194,-0.059
9.195,-0.056
9.196,-0.061
9.197,-0.063
9.198,-0.066
9.199,-0.066
9.200,-0.066
9.201,-0.066
9.202,-0.069
9.203,-0.069
9.204,-0.069
9.205,-0.069
9.206,-0.061
9.207,-0.053
9.208,-0.051
9.209,-0.053
9.210,-0.054
9.211,-0.053
9.212,-0.044
9.213,-0.038
9.214,-0.032
9.215,-0.028
9.216,-0.019
9.217,-0.016
9.218,-0.009
9.219,-0.003
9.220,0.003
9.221,0.013
9.222,0.013
9.223,0.009
9.224,0.011
9.225,0.013
9.226,0.020
9.227,0.025
9.228,0.034
9.229,0.041
9.230,0.034
9.231,0.038
9.232,0.041
9.233,0.041
9.234,0.039
9.235,0.038
9.236,0.036
9.237,0.034
9.238,0.031
9.239,0.031
9.240,0.041
9.241,0.047
9.242,0.052
9.243,0.056
9.244,0.056
9.245,0.059
9.246,0.064
9.247,0.066
9.248,0.072
9.249,0.081
9.250,0.103
9.251,0.122
9.252,0.133
9.253,0.141
9.254,0.141
9.255,0.147
9.256,0.161
9.257,0.172
9.258,0.178
9.259,0.181
9.260,0.176
9.261,0.178
9.262,0.175
9.263,0.175
9.264,0.162
9.265,0.156
9.266,0.162
9.267,0.166
9.268,0.167
9.269,0.172
9.270,0.161
9.271,0.156
9.272,0.151
9.273,0.147
9.274,0.144
9.275,0.134
9.276,0.128
9.277,0.122
9.278,0.114
9.279,0.109
9.280,0.099
9.281,0.084
9.282,0.076
9.283,0.066
9.284,0.056
9.285,0.047
9.286,0.033
9.287,0.019
9.288,0.008
9.289,-0.009
9.290,-0.022
9.291,-0.031
9.292,-0.042
9.293,-0.056
9.294,-0.061
9.295,-0.063
9.296,-0.064
9.297,-0.066
9.298,-0.069
9.299,-0.072
9.300,-0.079
9.301,-0.081
9.302,-0.084
9.303,-0.088
9.304,-0.088
9.305,-0.088
9.306,-0.089
9.307,-0.091
9.308,-0.089
9.309,-0.088
9.310,-0.088
9.311,-0.088
9.312,-0.086
9.313,-0.088
9.314,-0.095
9.315,-0.097
9.316,-0.100
9.317,-0.103
9.318,-0.106
9.319,-0.109
9.320,-0.112
9.321,-0.112
9.322,-0.111
9.323,-0.109
9.324,-0.111
9.325,-0.112
9.326,-0.111
9.327,-0.103
9.328,-0.105
9.329,-0.106
9.330,-0.111
9.331,-0.106
9.332,-0.112
9.333,-0.109
9.334,-0.106
9.335,-0.109
9.336,-0.103
9.337,-0.106
9.338,-0.108
9.339,-0.109
9.340,-0.083
9.341,-0.056
9.342,-0.030
9.343,-0.003
9.344,-0.001
9.345,-0.003
9.346,-0.002
9.347,0.000
9.348,-0.029
9.349,-0.056
9.350,-0.088
9.351,-0.119
9.352,-0.117
9.353,-0.116
9.354,-0.112
9.355,-0.112
9.356,-0.109
9.357,-0.106
9.358,-0.098
9.359,-0.094
9.360,-0.084
9.361,-0.072
9.362,-0.056
9.363,-0.041
9.364,-0.029
9.365,-0.016
9.366,0.006
9.367,0.034
9.368,0.044
9.369,0.047
9.370,0.045
9.371,0.047
9.372,0.045
9.373,0.041
9.374,0.036
9.375,0.034
9.376,0.033
9.377,0.050
9.378,0.086
9.379,0.128
9.380,0.174
9.381,0.234
9.382,0.317
9.383,0.419
9.384,0.553
9.385,0.694
9.386,0.850
9.387,1.013
9.388,1.144
9.389,1.213
9.390,1.206
9.391,1.128
9.392,1.020
9.393,0.944
9.394,0.900
9.395,0.844
9.396,0.756
9.397,0.669
9.398,0.589
9.399,0.522
9.400,0.453
9.401,0.362
9.402,0.276
9.403,0.200
9.404,0.137
9.405,0.091
9.406,0.057
9.407,0.028
9.408,-0.003
9.409,-0.038
9.410,-0.063
9.411,-0.084
9.412,-0.106
9.413,-0.134
9.414,-0.175
9.415,-0.209
9.416,-0.241
9.417,-0.269
9.418,-0.300
9.419,-0.325
9.420,-0.339
9.421,-0.353
9.422,-0.366
9.423,-0.369
9.424,-0.362
9.425,-0.350
9.426,-0.329
9.427,-0.309
9.428,-0.291
9.429,-0.272
9.430,-0.263
9.431,-0.256
9.432,-0.238
9.433,-0.222
9.434,-0.203
9.435,-0.181
9.436,-0.171
9.437,-0.156
9.438,-0.149
9.439,-0.141
9.440,-0.137
9.441,-0.137
9.442,-0.134
9.443,-0.137
9.444,-0.131
9.445,-0.131
9.446,-0.133
9.447,-0.128
9.448,-0.126
9.449,-0.125
9.450,-0.116
9.451,-0.106
9.452,-0.108
9.453,-0.103
9.454,-0.103
9.455,-0.103
9.456,-0.094
9.457,-0.091
9.458,-0.094
9.459,-0.097
9.460,-0.100
9.461,-0.100
9.462,-0.100
9.463,-0.100
9.464,-0.103
9.465,-0.106
9.466,-0.106
9.467,-0.109
9.468,-0.105
9.469,-0.100
9.470,-0.100
9.471,-0.097
9.472,-0.092
9.473,-0.091
9.474,-0.086
9.475,-0.081
9.476,-0.080
9.477,-0.078
9.478,-0.081
9.479,-0.081
9.480,-0.083
9.481,-0.088
9.482,-0.089
9.483,-0.094
9.484,-0.092
9.485,-0.094
9.486,-0.095
9.487,-0.091
9.488,-0.089
9.489,-0.081
9.490,-0.078
9.491,-0.078
