'Elapsed time','II'
'seconds','mV'
0.000,0.025
0.001,0.022
0.002,0.019
0.003,0.016
0.004,0.019
0.005,0.022
0.006,0.023
0.007,0.025
0.008,0.025
0.009,0.025
0.010,0.025
0.011,0.025
0.012,0.025
0.013,0.025
0.014,0.029
0.015,0.034
0.016,0.034
0.017,0.034
0.018,0.033
0.019,0.031
0.020,0.028
0.021,0.025
0.022,0.026
0.023,0.028
0.024,0.029
0.025,0.031
0.026,0.031
0.027,0.031
0.028,0.031
0.029,0.031
0.030,0.034
0.031,0.038
0.032,0.038
0.033,0.038
0.034,0.039
0.035,0.041
0.036,0.036
0.037,0.031
0.038,0.031
0.039,0.031
0.040,0.030
0.041,0.028
0.042,0.028
0.043,0.028
0.044,0.027
0.045,0.025
0.046,0.026
0.047,0.028
0.048,0.027
0.049,0.025
0.050,0.025
0.051,0.025
0.052,0.025
0.053,0.025
0.054,0.025
0.055,0.025
0.056,0.026
0.057,0.028
0.058,0.028
0.059,0.028
0.060,0.027
0.061,0.025
0.062,0.028
0.063,0.031
0.064,0.031
0.065,0.031
0.066,0.029
0.067,0.028
0.068,0.036
0.069,0.041
0.070,0.038
0.071,0.038
0.072,0.034
0.073,0.038
0.074,0.038
0.075,0.038
0.076,0.038
0.077,0.038
0.078,0.039
0.079,0.044
0.080,0.044
0.081,0.047
0.082,0.047
0.083,0.050
0.084,0.047
0.085,0.047
0.086,0.049
0.087,0.050
0.088,0.047
0.089,0.047
0.090,0.053
0.091,0.059
0.092,0.059
0.093,0.056
0.094,0.056
0.095,0.059
0.096,0.062
0.097,0.066
0.098,0.064
0.099,0.062
0.100,0.064
0.101,0.062
0.102,0.062
0.103,0.062
0.104,0.066
0.105,0.066
0.106,0.070
0.107,0.072
0.108,0.070
0.109,0.072
0.110,0.074
0.111,0.072
0.112,0.070
0.113,0.072
0.114,0.076
0.115,0.078
0.116,0.078
0.117,0.078
0.118,0.078
0.119,0.075
0.120,0.074
0.121,0.072
0.122,0.072
0.123,0.072
0.124,0.073
0.125,0.075
0.126,0.077
0.127,0.075
0.128,0.076
0.129,0.078
0.130,0.075
0.131,0.078
0.132,0.080
0.133,0.078
0.134,0.072
0.135,0.072
0.136,0.072
0.137,0.069
0.138,0.072
0.139,0.069
0.140,0.069
0.141,0.069
0.142,0.069
0.143,0.069
0.144,0.067
0.145,0.066
0.146,0.062
0.147,0.059
0.148,0.062
0.149,0.059
0.150,0.054
0.151,0.056
0.152,0.053
0.153,0.050
0.154,0.047
0.155,0.047
0.156,0.045
0.157,0.047
0.158,0.047
0.159,0.044
0.160,0.045
0.161,0.044
0.162,0.045
0.163,0.047
0.164,0.048
0.165,0.050
0.166,0.048
0.167,0.047
0.168,0.047
0.169,0.047
0.170,0.047
0.171,0.047
0.172,0.044
0.173,0.038
0.174,0.038
0.175,0.034
0.176,0.033
0.177,0.031
0.178,0.034
0.179,0.034
0.180,0.036
0.181,0.034
0.182,0.036
0.183,0.038
0.184,0.034
0.185,0.038
0.186,0.033
0.187,0.031
0.188,0.031
0.189,0.031
0.190,0.028
0.191,0.028
0.192,0.028
0.193,0.025
0.194,0.025
0.195,0.025
0.196,0.022
0.197,0.022
0.198,0.022
0.199,0.025
0.200,0.023
0.201,0.025
0.202,0.024
0.203,0.022
0.204,0.017
0.205,0.016
0.206,0.012
0.207,0.012
0.208,0.017
0.209,0.016
0.210,0.017
0.211,0.019
0.212,0.019
0.213,0.019
0.214,0.017
0.215,0.016
0.216,0.017
0.217,0.016
0.218,0.014
0.219,0.012
0.220,0.009
0.221,0.009
0.222,0.006
0.223,0.009
0.224,0.006
0.225,0.006
0.226,0.005
0.227,0.003
0.228,0.001
0.229,0.003
0.230,0.003
0.231,0.003
0.232,0.004
0.233,0.003
0.234,0.000
0.235,0.000
0.236,0.000
0.237,-0.006
0.238,-0.008
0.239,-0.009
0.240,-0.008
0.241,-0.006
0.242,-0.006
0.243,-0.006
0.244,-0.006
0.245,-0.009
0.246,-0.008
0.247,-0.009
0.248,-0.006
0.249,-0.009
0.250,-0.009
0.251,-0.009
0.252,-0.011
0.253,-0.013
0.254,-0.009
0.255,-0.013
0.256,-0.014
0.257,-0.016
0.258,-0.014
0.259,-0.016
0.260,-0.016
0.261,-0.016
0.262,-0.014
0.263,-0.013
0.264,-0.017
0.265,-0.019
0.266,-0.023
0.267,-0.022
0.268,-0.018
0.269,-0.016
0.270,-0.016
0.271,-0.016
0.272,-0.019
0.273,-0.019
0.274,-0.022
0.275,-0.019
0.276,-0.020
0.277,-0.025
0.278,-0.029
0.279,-0.031
0.280,-0.025
0.281,-0.022
0.282,-0.019
0.283,-0.019
0.284,-0.021
0.285,-0.019
0.286,-0.020
0.287,-0.022
0.288,-0.021
0.289,-0.022
0.290,-0.020
0.291,-0.022
0.292,-0.021
0.293,-0.019
0.294,-0.023
0.295,-0.025
0.296,-0.024
0.297,-0.022
0.298,-0.018
0.299,-0.019
0.300,-0.020
0.301,-0.022
0.302,-0.023
0.303,-0.025
0.304,-0.025
0.305,-0.028
0.306,-0.029
0.307,-0.031
0.308,-0.031
0.309,-0.031
0.310,-0.029
0.311,-0.031
0.312,-0.030
0.313,-0.031
0.314,-0.030
0.315,-0.028
0.316,-0.029
0.317,-0.028
0.318,-0.031
0.319,-0.031
0.320,-0.031
0.321,-0.031
0.322,-0.030
0.323,-0.031
0.324,-0.034
0.325,-0.034
0.326,-0.036
0.327,-0.038
0.328,-0.039
0.329,-0.034
0.330,-0.034
0.331,-0.034
0.332,-0.036
0.333,-0.038
0.334,-0.034
0.335,-0.031
0.336,-0.030
0.337,-0.031
0.338,-0.036
0.339,-0.038
0.340,-0.034
0.341,-0.031
0.342,-0.034
0.343,-0.034
0.344,-0.034
0.345,-0.034
0.346,-0.033
0.347,-0.031
0.348,-0.029
0.349,-0.031
0.350,-0.031
0.351,-0.031
0.352,-0.033
0.353,-0.034
0.354,-0.032
0.355,-0.034
0.356,-0.034
0.357,-0.034
0.358,-0.030
0.359,-0.028
0.360,-0.030
0.361,-0.031
0.362,-0.031
0.363,-0.031
0.364,-0.031
0.365,-0.028
0.366,-0.032
0.367,-0.031
0.368,-0.034
0.369,-0.031
0.370,-0.031
0.371,-0.031
0.372,-0.033
0.373,-0.031
0.374,-0.028
0.375,-0.025
0.376,-0.023
0.377,-0.022
0.378,-0.016
0.379,-0.013
0.380,-0.009
0.381,-0.006
0.382,-0.001
0.383,0.003
0.384,0.014
0.385,0.022
0.386,0.024
0.387,0.028
0.388,0.036
0.389,0.038
0.390,0.041
0.391,0.044
0.392,0.039
0.393,0.044
0.394,0.050
0.395,0.056
0.396,0.061
0.397,0.069
0.398,0.072
0.399,0.072
0.400,0.075
0.401,0.072
0.402,0.073
0.403,0.075
0.404,0.079
0.405,0.081
0.406,0.083
0.407,0.081
0.408,0.082
0.409,0.084
0.410,0.081
0.411,0.081
0.412,0.084
0.413,0.091
0.414,0.096
0.415,0.097
0.416,0.103
0.417,0.103
0.418,0.104
0.419,0.112
0.420,0.121
0.421,0.131
0.422,0.136
0.423,0.147
0.424,0.159
0.425,0.175
0.426,0.181
0.427,0.187
0.428,0.198
0.429,0.209
0.430,0.209
0.431,0.209
0.432,0.211
0.433,0.206
0.434,0.209
0.435,0.209
0.436,0.205
0.437,0.200
0.438,0.200
0.439,0.200
0.440,0.197
0.441,0.197
0.442,0.196
0.443,0.191
0.444,0.184
0.445,0.175
0.446,0.167
0.447,0.162
0.448,0.159
0.449,0.153
0.450,0.150
0.451,0.144
0.452,0.134
0.453,0.122
0.454,0.109
0.455,0.097
0.456,0.082
0.457,0.072
0.458,0.059
0.459,0.050
0.460,0.038
0.461,0.028
0.462,0.017
0.463,0.009
0.464,-0.003
0.465,-0.013
0.466,-0.025
0.467,-0.038
0.468,-0.043
0.469,-0.047
0.470,-0.049
0.471,-0.050
0.472,-0.053
0.473,-0.053
0.474,-0.056
0.475,-0.059
0.476,-0.061
0.477,-0.066
0.478,-0.068
0.479,-0.066
0.480,-0.063
0.481,-0.059
0.482,-0.059
0.483,-0.059
0.484,-0.061
0.485,-0.056
0.486,-0.061
0.487,-0.063
0.488,-0.064
0.489,-0.066
0.490,-0.067
0.491,-0.066
0.492,-0.066
0.493,-0.069
0.494,-0.069
0.495,-0.069
0.496,-0.073
0.497,-0.072
0.498,-0.072
0.499,-0.072
0.500,-0.073
0.501,-0.075
0.502,-0.068
0.503,-0.059
0.504,-0.061
0.505,-0.063
0.506,-0.058
0.507,-0.059
0.508,-0.056
0.509,-0.056
0.510,-0.064
0.511,-0.069
0.512,-0.069
0.513,-0.069
0.514,-0.072
0.515,-0.069
0.516,-0.067
0.517,-0.069
0.518,-0.064
0.519,-0.059
0.520,-0.061
0.521,-0.059
0.522,-0.063
0.523,-0.063
0.524,-0.058
0.525,-0.056
0.526,-0.056
0.527,-0.056
0.528,-0.053
0.529,-0.050
0.530,-0.038
0.531,-0.022
0.532,-0.002
0.533,0.016
0.534,0.028
0.535,0.047
0.536,0.070
0.537,0.091
0.538,0.105
0.539,0.109
0.540,0.105
0.541,0.103
0.542,0.100
0.543,0.091
0.544,0.086
0.545,0.091
0.546,0.100
0.547,0.119
0.548,0.151
0.549,0.200
0.550,0.253
0.551,0.316
0.552,0.386
0.553,0.478
0.554,0.592
0.555,0.719
0.556,0.856
0.557,1.006
0.558,1.158
0.559,1.272
0.560,1.331
0.561,1.294
0.562,1.203
0.563,1.119
0.564,1.053
0.565,1.003
0.566,0.942
0.567,0.853
0.568,0.759
0.569,0.681
0.570,0.609
0.571,0.519
0.572,0.417
0.573,0.322
0.574,0.236
0.575,0.162
0.576,0.111
0.577,0.069
0.578,0.028
0.579,-0.013
0.580,-0.053
0.581,-0.081
0.582,-0.104
0.583,-0.134
0.584,-0.168
0.585,-0.197
0.586,-0.223
0.587,-0.253
0.588,-0.276
0.589,-0.306
0.590,-0.325
0.591,-0.334
0.592,-0.344
0.593,-0.344
0.594,-0.336
0.595,-0.328
0.596,-0.312
0.597,-0.294
0.598,-0.272
0.599,-0.256
0.600,-0.241
0.601,-0.228
0.602,-0.214
0.603,-0.203
0.604,-0.189
0.605,-0.175
0.606,-0.166
0.607,-0.153
0.608,-0.141
0.609,-0.131
0.610,-0.121
0.611,-0.116
0.612,-0.111
0.613,-0.113
0.614,-0.108
0.615,-0.106
0.616,-0.099
0.617,-0.097
0.618,-0.094
0.619,-0.097
0.620,-0.092
0.621,-0.091
0.622,-0.084
0.623,-0.078
0.624,-0.073
0.625,-0.072
0.626,-0.072
0.627,-0.069
0.628,-0.068
0.629,-0.063
0.630,-0.061
0.631,-0.059
0.632,-0.056
0.633,-0.056
0.634,-0.055
0.635,-0.056
0.636,-0.054
0.637,-0.056
0.638,-0.054
0.639,-0.056
0.640,-0.058
0.641,-0.056
0.642,-0.056
0.643,-0.056
0.644,-0.055
0.645,-0.053
0.646,-0.053
0.647,-0.050
0.648,-0.050
0.649,-0.050
0.650,-0.050
0.651,-0.050
0.652,-0.051
0.653,-0.053
0.654,-0.050
0.655,-0.050
0.656,-0.051
0.657,-0.053
0.658,-0.053
0.659,-0.050
0.660,-0.050
0.661,-0.050
0.662,-0.050
0.663,-0.053
0.664,-0.051
0.665,-0.050
0.666,-0.047
0.667,-0.047
0.668,-0.043
0.669,-0.041
0.670,-0.042
0.671,-0.044
0.672,-0.045
0.673,-0.047
0.674,-0.048
0.675,-0.047
0.676,-0.046
0.677,-0.044
0.678,-0.043
0.679,-0.044
0.680,-0.042
0.681,-0.044
0.682,-0.042
0.683,-0.044
0.684,-0.043
0.685,-0.041
0.686,-0.044
0.687,-0.044
0.688,-0.044
0.689,-0.044
0.690,-0.045
0.691,-0.044
0.692,-0.043
0.693,-0.041
0.694,-0.039
0.695,-0.041
0.696,-0.038
0.697,-0.034
0.698,-0.034
0.699,-0.031
0.700,-0.034
0.701,-0.034
0.702,-0.032
0.703,-0.034
0.704,-0.036
0.705,-0.038
0.706,-0.034
0.707,-0.031
0.708,-0.028
0.709,-0.031
0.710,-0.032
0.711,-0.031
0.712,-0.031
0.713,-0.028
0.714,-0.031
0.715,-0.028
0.716,-0.031
0.717,-0.031
0.718,-0.031
0.719,-0.031
0.720,-0.028
0.721,-0.031
0.722,-0.028
0.723,-0.028
0.724,-0.025
0.725,-0.019
0.726,-0.023
0.727,-0.025
0.728,-0.022
0.729,-0.019
0.730,-0.017
0.731,-0.016
0.732,-0.017
0.733,-0.016
0.734,-0.016
0.735,-0.016
0.736,-0.013
0.737,-0.013
0.738,-0.013
0.739,-0.013
0.740,-0.016
0.741,-0.013
0.742,-0.009
0.743,-0.006
0.744,-0.005
0.745,-0.003
0.746,-0.003
0.747,-0.006
0.748,-0.004
0.749,-0.006
0.750,0.000
0.751,0.003
0.752,0.006
0.753,0.009
0.754,0.009
0.755,0.009
0.756,0.008
0.757,0.006
0.758,0.006
0.759,0.006
0.760,0.005
0.761,0.003
0.762,0.002
0.763,0.003
0.764,0.002
0.765,0.003
0.766,0.003
0.767,0.003
0.768,0.003
0.769,0.003
0.770,0.003
0.771,0.006
0.772,0.004
0.773,0.009
0.774,0.009
0.775,0.009
0.776,0.011
0.777,0.009
0.778,0.011
0.779,0.012
0.780,0.012
0.781,0.012
0.782,0.012
0.783,0.012
0.784,0.014
0.785,0.016
0.786,0.019
0.787,0.019
0.788,0.014
0.789,0.016
0.790,0.012
0.791,0.016
0.792,0.019
0.793,0.016
0.794,0.019
0.795,0.016
0.796,0.022
0.797,0.025
0.798,0.022
0.799,0.025
0.800,0.024
0.801,0.025
0.802,0.021
0.803,0.022
0.804,0.022
0.805,0.022
0.806,0.019
0.807,0.016
0.808,0.014
0.809,0.016
0.810,0.014
0.811,0.016
0.812,0.017
0.813,0.016
0.814,0.019
0.815,0.019
0.816,0.017
0.817,0.016
0.818,0.019
0.819,0.022
0.820,0.024
0.821,0.019
0.822,0.017
0.823,0.016
0.824,0.016
0.825,0.016
0.826,0.016
0.827,0.016
0.828,0.016
0.829,0.016
0.830,0.016
0.831,0.016
0.832,0.016
0.833,0.016
0.834,0.019
0.835,0.022
0.836,0.026
0.837,0.025
0.838,0.027
0.839,0.025
0.840,0.024
0.841,0.025
0.842,0.027
0.843,0.025
0.844,0.026
0.845,0.025
0.846,0.032
0.847,0.038
0.848,0.038
0.849,0.041
0.850,0.039
0.851,0.038
0.852,0.039
0.853,0.038
0.854,0.041
0.855,0.041
0.856,0.041
0.857,0.038
0.858,0.041
0.859,0.044
0.860,0.047
0.861,0.047
0.862,0.048
0.863,0.053
0.864,0.052
0.865,0.050
0.866,0.053
0.867,0.050
0.868,0.050
0.869,0.050
0.870,0.052
0.871,0.050
0.872,0.052
0.873,0.050
0.874,0.050
0.875,0.050
0.876,0.050
0.877,0.050
0.878,0.053
0.879,0.056
0.880,0.058
0.881,0.059
0.882,0.059
0.883,0.059
0.884,0.056
0.885,0.053
0.886,0.059
0.887,0.062
0.888,0.062
0.889,0.062
0.890,0.061
0.891,0.059
0.892,0.061
0.893,0.062
0.894,0.061
0.895,0.062
0.896,0.062
0.897,0.062
0.898,0.061
0.899,0.053
0.900,0.053
0.901,0.047
0.902,0.047
0.903,0.050
0.904,0.051
0.905,0.050
0.906,0.046
0.907,0.041
0.908,0.041
0.909,0.044
0.910,0.044
0.911,0.041
0.912,0.038
0.913,0.038
0.914,0.042
0.915,0.041
0.916,0.036
0.917,0.034
0.918,0.036
0.919,0.038
0.920,0.030
0.921,0.025
0.922,0.025
0.923,0.025
0.924,0.025
0.925,0.028
0.926,0.027
0.927,0.022
0.928,0.017
0.929,0.016
0.930,0.014
0.931,0.016
0.932,0.017
0.933,0.016
0.934,0.019
0.935,0.022
0.936,0.020
0.937,0.022
0.938,0.016
0.939,0.012
0.940,0.014
0.941,0.012
0.942,0.008
0.943,0.006
0.944,0.003
0.945,0.000
0.946,0.000
0.947,0.000
0.948,-0.001
0.949,-0.003
0.950,-0.004
0.951,-0.009
0.952,-0.006
0.953,-0.006
0.954,-0.002
0.955,0.000
0.956,-0.003
0.957,-0.003
0.958,-0.002
0.959,0.000
0.960,-0.003
0.961,-0.003
0.962,-0.003
0.963,-0.006
0.964,-0.003
0.965,0.000
0.966,-0.004
0.967,-0.006
0.968,-0.005
0.969,0.000
0.970,-0.003
0.971,-0.003
0.972,-0.009
0.973,-0.013
0.974,-0.016
0.975,-0.019
0.976,-0.022
0.977,-0.025
0.978,-0.022
0.979,-0.019
0.980,-0.019
0.981,-0.019
0.982,-0.019
0.983,-0.019
0.984,-0.022
0.985,-0.022
0.986,-0.023
0.987,-0.025
0.988,-0.025
0.989,-0.028
0.990,-0.026
0.991,-0.025
0.992,-0.023
0.993,-0.028
0.994,-0.028
0.995,-0.031
0.996,-0.031
0.997,-0.028
0.998,-0.030
0.999,-0.031
1.000,-0.034
1.001,-0.038
1.002,-0.036
1.003,-0.034
1.004,-0.038
1.005,-0.038
1.006,-0.038
1.007,-0.034
1.008,-0.036
1.009,-0.038
1.010,-0.044
1.011,-0.047
1.012,-0.047
1.013,-0.044
1.014,-0.039
1.015,-0.038
1.016,-0.039
1.017,-0.041
1.018,-0.042
1.019,-0.044
1.020,-0.044
1.021,-0.047
1.022,-0.050
1.023,-0.050
1.024,-0.052
1.025,-0.050
1.026,-0.046
1.027,-0.047
1.028,-0.048
1.029,-0.050
1.030,-0.050
1.031,-0.050
1.032,-0.048
1.033,-0.053
1.034,-0.053
1.035,-0.053
1.036,-0.053
1.037,-0.053
1.038,-0.056
1.039,-0.063
1.040,-0.063
1.041,-0.063
1.042,-0.059
1.043,-0.059
1.044,-0.063
1.045,-0.059
1.046,-0.058
1.047,-0.059
1.048,-0.059
1.049,-0.056
1.050,-0.063
1.051,-0.063
1.052,-0.066
1.053,-0.063
1.054,-0.063
1.055,-0.066
1.056,-0.061
1.057,-0.056
1.058,-0.058
1.059,-0.059
1.060,-0.061
1.061,-0.066
1.062,-0.067
1.063,-0.069
1.064,-0.067
1.065,-0.066
1.066,-0.069
1.067,-0.069
1.068,-0.068
1.069,-0.069
1.070,-0.066
1.071,-0.069
1.072,-0.069
1.073,-0.069
1.074,-0.073
1.075,-0.072
1.076,-0.071
1.077,-0.069
1.078,-0.072
1.079,-0.072
1.080,-0.072
1.081,-0.069
1.082,-0.069
1.083,-0.069
1.084,-0.069
1.085,-0.066
1.086,-0.071
1.087,-0.069
1.088,-0.068
1.089,-0.066
1.090,-0.068
1.091,-0.063
1.092,-0.061
1.093,-0.059
1.094,-0.063
1.095,-0.066
1.096,-0.066
1.097,-0.066
1.098,-0.067
1.099,-0.072
1.100,-0.075
1.101,-0.075
1.102,-0.073
1.103,-0.072
1.104,-0.074
1.105,-0.072
1.106,-0.072
1.107,-0.072
1.108,-0.072
1.109,-0.072
1.110,-0.070
1.111,-0.072
1.112,-0.072
1.113,-0.072
1.114,-0.074
1.115,-0.075
1.116,-0.072
1.117,-0.072
1.118,-0.068
1.119,-0.063
1.120,-0.061
1.121,-0.063
1.122,-0.066
1.123,-0.069
1.124,-0.068
1.125,-0.066
1.126,-0.069
1.127,-0.069
1.128,-0.072
1.129,-0.069
1.130,-0.073
1.131,-0.072
1.132,-0.072
1.133,-0.072
1.134,-0.075
1.135,-0.075
1.136,-0.073
1.137,-0.072
1.138,-0.068
1.139,-0.063
1.140,-0.058
1.141,-0.056
1.142,-0.054
1.143,-0.053
1.144,-0.047
1.145,-0.041
1.146,-0.028
1.147,-0.019
1.148,-0.017
1.149,-0.013
1.150,-0.006
1.151,-0.006
1.152,-0.003
1.153,0.000
1.154,-0.006
1.155,-0.003
1.156,-0.001
1.157,0.000
1.158,0.004
1.159,0.012
1.160,0.014
1.161,0.012
1.162,0.016
1.163,0.012
1.164,0.017
1.165,0.022
1.166,0.024
1.167,0.022
1.168,0.025
1.169,0.025
1.170,0.025
1.171,0.025
1.172,0.028
1.173,0.034
1.174,0.038
1.175,0.044
1.176,0.046
1.177,0.044
1.178,0.054
1.179,0.059
1.180,0.061
1.181,0.069
1.182,0.078
1.183,0.091
1.184,0.096
1.185,0.106
1.186,0.114
1.187,0.125
1.188,0.131
1.189,0.137
1.190,0.147
1.191,0.156
1.192,0.156
1.193,0.156
1.194,0.159
1.195,0.156
1.196,0.155
1.197,0.150
1.198,0.147
1.199,0.144
1.200,0.144
1.201,0.144
1.202,0.141
1.203,0.141
1.204,0.139
1.205,0.134
1.206,0.129
1.207,0.122
1.208,0.116
1.209,0.112
1.210,0.106
1.211,0.097
1.212,0.094
1.213,0.087
1.214,0.077
1.215,0.062
1.216,0.050
1.217,0.038
1.218,0.023
1.219,0.012
1.220,-0.003
1.221,-0.016
1.222,-0.032
1.223,-0.047
1.224,-0.056
1.225,-0.063
1.226,-0.073
1.227,-0.081
1.228,-0.088
1.229,-0.094
1.230,-0.099
1.231,-0.103
1.232,-0.106
1.233,-0.109
1.234,-0.113
1.235,-0.113
1.236,-0.113
1.237,-0.113
1.238,-0.114
1.239,-0.119
1.240,-0.121
1.241,-0.119
1.242,-0.118
1.243,-0.116
1.244,-0.114
1.245,-0.113
1.246,-0.119
1.247,-0.119
1.248,-0.121
1.249,-0.119
1.250,-0.121
1.251,-0.122
1.252,-0.125
1.253,-0.125
1.254,-0.125
1.255,-0.128
1.256,-0.129
1.257,-0.131
1.258,-0.134
1.259,-0.131
1.260,-0.131
1.261,-0.131
1.262,-0.127
1.263,-0.122
1.264,-0.119
1.265,-0.116
1.266,-0.119
1.267,-0.122
1.268,-0.118
1.269,-0.119
1.270,-0.119
1.271,-0.122
1.272,-0.125
1.273,-0.125
1.274,-0.118
1.275,-0.109
1.276,-0.116
1.277,-0.116
1.278,-0.111
1.279,-0.109
1.280,-0.109
1.281,-0.109
1.282,-0.111
1.283,-0.109
1.284,-0.109
1.285,-0.106
1.286,-0.106
1.287,-0.109
1.288,-0.105
1.289,-0.100
1.290,-0.093
1.291,-0.084
1.292,-0.076
1.293,-0.066
1.294,-0.051
1.295,-0.041
1.296,-0.027
1.297,-0.006
1.298,0.012
1.299,0.028
1.300,0.042
1.301,0.047
1.302,0.045
1.303,0.047
1.304,0.042
1.305,0.031
1.306,0.025
1.307,0.028
1.308,0.042
1.309,0.066
1.310,0.087
1.311,0.125
1.312,0.176
1.313,0.237
1.314,0.320
1.315,0.425
1.316,0.547
1.317,0.681
1.318,0.819
1.319,0.969
1.320,1.083
1.321,1.159
1.322,1.186
1.323,1.116
1.324,1.034
1.325,0.959
1.326,0.897
1.327,0.850
1.328,0.789
1.329,0.700
1.330,0.617
1.331,0.550
1.332,0.477
1.333,0.384
1.334,0.298
1.335,0.219
1.336,0.151
1.337,0.097
1.338,0.053
1.339,0.019
1.340,-0.018
1.341,-0.053
1.342,-0.088
1.343,-0.109
1.344,-0.134
1.345,-0.166
1.346,-0.203
1.347,-0.238
1.348,-0.264
1.349,-0.294
1.350,-0.312
1.351,-0.338
1.352,-0.363
1.353,-0.378
1.354,-0.398
1.355,-0.409
1.356,-0.401
1.357,-0.394
1.358,-0.374
1.359,-0.350
1.360,-0.329
1.361,-0.316
1.362,-0.297
1.363,-0.281
1.364,-0.268
1.365,-0.256
1.366,-0.239
1.367,-0.222
1.368,-0.209
1.369,-0.194
1.370,-0.184
1.371,-0.178
1.372,-0.169
1.373,-0.166
1.374,-0.156
1.375,-0.153
1.376,-0.150
1.377,-0.150
1.378,-0.145
1.379,-0.147
1.380,-0.138
1.381,-0.134
1.382,-0.129
1.383,-0.128
1.384,-0.125
1.385,-0.122
1.386,-0.116
1.387,-0.113
1.388,-0.114
1.389,-0.113
1.390,-0.114
1.391,-0.113
1.392,-0.111
1.393,-0.109
1.394,-0.108
1.395,-0.109
1.396,-0.108
1.397,-0.109
1.398,-0.108
1.399,-0.109
1.400,-0.108
1.401,-0.109
1.402,-0.106
1.403,-0.100
1.404,-0.097
1.405,-0.094
1.406,-0.093
1.407,-0.091
1.408,-0.095
1.409,-0.097
1.410,-0.098
1.411,-0.100
1.412,-0.100
1.413,-0.100
1.414,-0.099
1.415,-0.097
1.416,-0.097
1.417,-0.100
1.418,-0.097
1.419,-0.094
1.420,-0.097
1.421,-0.097
1.422,-0.096
1.423,-0.094
1.424,-0.094
1.425,-0.097
1.426,-0.097
1.427,-0.097
1.428,-0.093
1.429,-0.091
1.430,-0.089
1.431,-0.091
1.432,-0.092
1.433,-0.094
1.434,-0.093
1.435,-0.091
1.436,-0.092
1.437,-0.091
1.438,-0.092
1.439,-0.094
1.440,-0.091
1.441,-0.091
1.442,-0.088
1.443,-0.088
1.444,-0.086
1.445,-0.088
1.446,-0.086
1.447,-0.084
1.448,-0.084
1.449,-0.081
1.450,-0.080
1.451,-0.078
1.452,-0.081
1.453,-0.081
1.454,-0.081
1.455,-0.081
1.456,-0.077
1.457,-0.075
1.458,-0.071
1.459,-0.066
1.460,-0.067
1.461,-0.066
1.462,-0.069
1.463,-0.069
1.464,-0.066
1.465,-0.066
1.466,-0.066
1.467,-0.066
1.468,-0.067
1.469,-0.069
1.470,-0.064
1.471,-0.066
1.472,-0.069
1.473,-0.069
1.474,-0.069
1.475,-0.066
1.476,-0.069
1.477,-0.066
1.478,-0.063
1.479,-0.056
1.480,-0.056
1.481,-0.056
1.482,-0.052
1.483,-0.053
1.484,-0.051
1.485,-0.053
1.486,-0.053
1.487,-0.050
1.488,-0.051
1.489,-0.050
1.490,-0.050
1.491,-0.050
1.492,-0.048
1.493,-0.047
1.494,-0.048
1.495,-0.047
1.496,-0.044
1.497,-0.041
1.498,-0.034
1.499,-0.031
1.500,-0.030
1.501,-0.028
1.502,-0.031
1.503,-0.028
1.504,-0.028
1.505,-0.028
1.506,-0.027
1.507,-0.025
1.508,-0.021
1.509,-0.019
1.510,-0.019
1.511,-0.022
1.512,-0.019
1.513,-0.019
1.514,-0.019
1.515,-0.019
1.516,-0.020
1.517,-0.022
1.518,-0.022
1.519,-0.022
1.520,-0.019
1.521,-0.016
1.522,-0.014
1.523,-0.013
1.524,-0.016
1.525,-0.016
1.526,-0.014
1.527,-0.009
1.528,-0.009
1.529,-0.009
1.530,-0.008
1.531,-0.006
1.532,-0.005
1.533,0.000
1.534,-0.004
1.535,-0.003
1.536,-0.003
1.537,-0.003
1.538,0.000
1.539,0.000
1.540,0.003
1.541,0.006
1.542,0.006
1.543,0.006
1.544,0.007
1.545,0.009
1.546,0.008
1.547,0.006
1.548,0.009
1.549,0.009
1.550,0.006
1.551,0.009
1.552,0.007
1.553,0.012
1.554,0.014
1.555,0.009
1.556,0.012
1.557,0.009
1.558,0.016
1.559,0.019
1.560,0.014
1.561,0.016
1.562,0.016
1.563,0.019
1.564,0.017
1.565,0.022
1.566,0.022
1.567,0.022
1.568,0.023
1.569,0.025
1.570,0.023
1.571,0.025
1.572,0.024
1.573,0.025
1.574,0.026
1.575,0.025
1.576,0.027
1.577,0.025
1.578,0.026
1.579,0.028
1.580,0.028
1.581,0.028
1.582,0.031
1.583,0.028
1.584,0.027
1.585,0.025
1.586,0.026
1.587,0.028
1.588,0.028
1.589,0.028
1.590,0.028
1.591,0.028
1.592,0.027
1.593,0.025
1.594,0.025
1.595,0.025
1.596,0.026
1.597,0.028
1.598,0.030
1.599,0.025
1.600,0.029
1.601,0.031
1.602,0.032
1.603,0.038
1.604,0.039
1.605,0.038
1.606,0.036
1.607,0.031
1.608,0.033
1.609,0.031
1.610,0.030
1.611,0.031
1.612,0.030
1.613,0.028
1.614,0.034
1.615,0.038
1.616,0.041
1.617,0.041
1.618,0.045
1.619,0.047
1.620,0.046
1.621,0.044
1.622,0.047
1.623,0.047
1.624,0.046
1.625,0.047
1.626,0.046
1.627,0.044
1.628,0.048
1.629,0.047
1.630,0.047
1.631,0.047
1.632,0.047
1.633,0.044
1.634,0.047
1.635,0.047
1.636,0.050
1.637,0.053
1.638,0.053
1.639,0.053
1.640,0.053
1.641,0.053
1.642,0.056
1.643,0.059
1.644,0.058
1.645,0.056
1.646,0.054
1.647,0.053
1.648,0.056
1.649,0.056
1.650,0.056
1.651,0.056
1.652,0.059
1.653,0.062
1.654,0.059
1.655,0.056
1.656,0.052
1.657,0.050
1.658,0.051
1.659,0.053
1.660,0.052
1.661,0.044
1.662,0.047
1.663,0.044
1.664,0.042
1.665,0.044
1.666,0.045
1.667,0.044
1.668,0.045
1.669,0.047
1.670,0.042
1.671,0.041
1.672,0.041
1.673,0.038
1.674,0.034
1.675,0.034
1.676,0.036
1.677,0.031
1.678,0.028
1.679,0.028
1.680,0.027
1.681,0.025
1.682,0.022
1.683,0.022
1.684,0.023
1.685,0.025
1.686,0.021
1.687,0.019
1.688,0.017
1.689,0.012
1.690,0.009
1.691,0.009
1.692,0.008
1.693,0.009
1.694,0.011
1.695,0.009
1.696,0.009
1.697,0.009
1.698,0.006
1.699,0.006
1.700,0.002
1.701,0.000
1.702,0.001
1.703,0.000
1.704,-0.001
1.705,0.000
1.706,-0.003
1.707,-0.006
1.708,-0.006
1.709,-0.006
1.710,-0.008
1.711,-0.009
1.712,-0.009
1.713,-0.013
1.714,-0.013
1.715,-0.016
1.716,-0.013
1.717,-0.013
1.718,-0.013
1.719,-0.009
1.720,-0.009
1.721,-0.009
1.722,-0.013
1.723,-0.013
1.724,-0.013
1.725,-0.016
1.726,-0.017
1.727,-0.019
1.728,-0.021
1.729,-0.019
1.730,-0.021
1.731,-0.019
1.732,-0.020
1.733,-0.019
1.734,-0.021
1.735,-0.019
1.736,-0.019
1.737,-0.019
1.738,-0.019
1.739,-0.019
1.740,-0.019
1.741,-0.019
1.742,-0.019
1.743,-0.019
1.744,-0.022
1.745,-0.025
1.746,-0.025
1.747,-0.022
1.748,-0.022
1.749,-0.022
1.750,-0.025
1.751,-0.031
1.752,-0.031
1.753,-0.031
1.754,-0.029
1.755,-0.034
1.756,-0.034
1.757,-0.038
1.758,-0.038
1.759,-0.034
1.760,-0.039
1.761,-0.044
1.762,-0.044
1.763,-0.044
1.764,-0.041
1.765,-0.038
1.766,-0.042
1.767,-0.044
1.768,-0.043
1.769,-0.038
1.770,-0.041
1.771,-0.044
1.772,-0.046
1.773,-0.044
1.774,-0.046
1.775,-0.044
1.776,-0.044
1.777,-0.047
1.778,-0.050
1.779,-0.053
1.780,-0.053
1.781,-0.053
1.782,-0.052
1.783,-0.053
1.784,-0.055
1.785,-0.053
1.786,-0.056
1.787,-0.056
1.788,-0.054
1.789,-0.059
1.790,-0.061
1.791,-0.063
1.792,-0.061
1.793,-0.059
1.794,-0.058
1.795,-0.063
1.796,-0.064
1.797,-0.066
1.798,-0.063
1.799,-0.059
1.800,-0.059
1.801,-0.063
1.802,-0.061
1.803,-0.059
1.804,-0.055
1.805,-0.053
1.806,-0.056
1.807,-0.053
1.808,-0.051
1.809,-0.053
1.810,-0.053
1.811,-0.050
1.812,-0.054
1.813,-0.053
1.814,-0.058
1.815,-0.056
1.816,-0.055
1.817,-0.056
1.818,-0.055
1.819,-0.053
1.820,-0.053
1.821,-0.053
1.822,-0.052
1.823,-0.053
1.824,-0.053
1.825,-0.053
1.826,-0.054
1.827,-0.056
1.828,-0.061
1.829,-0.063
1.830,-0.061
1.831,-0.063
1.832,-0.058
1.833,-0.059
1.834,-0.059
1.835,-0.059
1.836,-0.064
1.837,-0.063
1.838,-0.063
1.839,-0.063
1.840,-0.061
1.841,-0.056
1.842,-0.058
1.843,-0.056
1.844,-0.061
1.845,-0.066
1.846,-0.068
1.847,-0.066
1.848,-0.066
1.849,-0.066
1.850,-0.069
1.851,-0.066
1.852,-0.064
1.853,-0.063
1.854,-0.063
1.855,-0.063
1.856,-0.061
1.857,-0.059
1.858,-0.056
1.859,-0.056
1.860,-0.061
1.861,-0.063
1.862,-0.061
1.863,-0.059
1.864,-0.063
1.865,-0.063
1.866,-0.061
1.867,-0.059
1.868,-0.059
1.869,-0.059
1.870,-0.058
1.871,-0.059
1.872,-0.061
1.873,-0.063
1.874,-0.063
1.875,-0.063
1.876,-0.061
1.877,-0.063
1.878,-0.064
1.879,-0.066
1.880,-0.059
1.881,-0.056
1.882,-0.061
1.883,-0.066
1.884,-0.067
1.885,-0.069
1.886,-0.063
1.887,-0.053
1.888,-0.058
1.889,-0.056
1.890,-0.063
1.891,-0.063
1.892,-0.061
1.893,-0.059
1.894,-0.064
1.895,-0.066
1.896,-0.063
1.897,-0.059
1.898,-0.056
1.899,-0.053
1.900,-0.051
1.901,-0.053
1.902,-0.050
1.903,-0.047
1.904,-0.039
1.905,-0.031
1.906,-0.019
1.907,-0.009
1.908,-0.006
1.909,0.000
1.910,0.005
1.911,0.003
1.912,0.011
1.913,0.019
1.914,0.014
1.915,0.019
1.916,0.021
1.917,0.022
1.918,0.024
1.919,0.028
1.920,0.038
1.921,0.044
1.922,0.047
1.923,0.044
1.924,0.042
1.925,0.041
1.926,0.042
1.927,0.041
1.928,0.045
1.929,0.047
1.930,0.048
1.931,0.050
1.932,0.047
1.933,0.047
1.934,0.049
1.935,0.053
1.936,0.059
1.937,0.062
1.938,0.069
1.939,0.069
1.940,0.070
1.941,0.078
1.942,0.086
1.943,0.097
1.944,0.106
1.945,0.122
1.946,0.132
1.947,0.147
1.948,0.153
1.949,0.159
1.950,0.169
1.951,0.178
1.952,0.178
1.953,0.178
1.954,0.181
1.955,0.178
1.956,0.175
1.957,0.169
1.958,0.164
1.959,0.159
1.960,0.158
1.961,0.156
1.962,0.154
1.963,0.156
1.964,0.161
1.965,0.162
1.966,0.153
1.967,0.141
1.968,0.130
1.969,0.122
1.970,0.122
1.971,0.119
1.972,0.114
1.973,0.106
1.974,0.100
1.975,0.091
1.976,0.081
1.977,0.072
1.978,0.056
1.979,0.044
1.980,0.030
1.981,0.019
1.982,0.009
1.983,0.003
1.984,-0.013
1.985,-0.025
1.986,-0.034
1.987,-0.041
1.988,-0.051
1.989,-0.063
1.990,-0.072
1.991,-0.081
1.992,-0.081
1.993,-0.081
1.994,-0.084
1.995,-0.084
1.996,-0.083
1.997,-0.081
1.998,-0.081
1.999,-0.084
2.000,-0.089
2.001,-0.091
2.002,-0.092
2.003,-0.094
2.004,-0.100
2.005,-0.106
2.006,-0.109
2.007,-0.106
2.008,-0.108
2.009,-0.106
2.010,-0.109
2.011,-0.113
2.012,-0.113
2.013,-0.109
2.014,-0.108
2.015,-0.109
2.016,-0.109
2.017,-0.109
2.018,-0.113
2.019,-0.109
2.020,-0.111
2.021,-0.113
2.022,-0.113
2.023,-0.113
2.024,-0.111
2.025,-0.109
2.026,-0.109
2.027,-0.109
2.028,-0.106
2.029,-0.109
2.030,-0.105
2.031,-0.103
2.032,-0.105
2.033,-0.103
2.034,-0.103
2.035,-0.103
2.036,-0.108
2.037,-0.106
2.038,-0.104
2.039,-0.106
2.040,-0.106
2.041,-0.106
2.042,-0.106
2.043,-0.103
2.044,-0.106
2.045,-0.106
2.046,-0.102
2.047,-0.100
2.048,-0.094
2.049,-0.088
2.050,-0.083
2.051,-0.078
2.052,-0.066
2.053,-0.050
2.054,-0.032
2.055,-0.019
2.056,-0.009
2.057,0.006
2.058,0.032
2.059,0.056
2.060,0.071
2.061,0.075
2.062,0.075
2.063,0.078
2.064,0.081
2.065,0.078
2.066,0.071
2.067,0.072
2.068,0.081
2.069,0.100
2.070,0.132
2.071,0.181
2.072,0.234
2.073,0.297
2.074,0.372
2.075,0.469
2.076,0.584
2.077,0.712
2.078,0.851
2.079,1.003
2.080,1.158
2.081,1.275
2.082,1.327
2.083,1.281
2.084,1.184
2.085,1.094
2.086,1.030
2.087,0.981
2.088,0.917
2.089,0.825
2.090,0.731
2.091,0.653
2.092,0.581
2.093,0.491
2.094,0.381
2.095,0.278
2.096,0.196
2.097,0.125
2.098,0.072
2.099,0.028
2.100,-0.016
2.101,-0.059
2.102,-0.099
2.103,-0.125
2.104,-0.153
2.105,-0.188
2.106,-0.221
2.107,-0.250
2.108,-0.269
2.109,-0.291
2.110,-0.308
2.111,-0.331
2.112,-0.346
2.113,-0.350
2.114,-0.358
2.115,-0.356
2.116,-0.347
2.117,-0.338
2.118,-0.325
2.119,-0.309
2.120,-0.291
2.121,-0.278
2.122,-0.266
2.123,-0.256
2.124,-0.241
2.125,-0.228
2.126,-0.213
2.127,-0.197
2.128,-0.183
2.129,-0.166
2.130,-0.158
2.131,-0.153
2.132,-0.148
2.133,-0.150
2.134,-0.143
2.135,-0.141
2.136,-0.136
2.137,-0.134
2.138,-0.133
2.139,-0.138
2.140,-0.130
2.141,-0.128
2.142,-0.121
2.143,-0.116
2.144,-0.116
2.145,-0.116
2.146,-0.106
2.147,-0.100
2.148,-0.100
2.149,-0.097
2.150,-0.098
2.151,-0.097
2.152,-0.097
2.153,-0.097
2.154,-0.098
2.155,-0.103
2.156,-0.103
2.157,-0.106
2.158,-0.102
2.159,-0.100
2.160,-0.096
2.161,-0.094
2.162,-0.093
2.163,-0.088
2.164,-0.086
2.165,-0.084
2.166,-0.084
2.167,-0.084
2.168,-0.088
2.169,-0.088
2.170,-0.088
2.171,-0.088
2.172,-0.088
2.173,-0.088
2.174,-0.088
2.175,-0.088
2.176,-0.086
2.177,-0.088
2.178,-0.084
2.179,-0.081
2.180,-0.080
2.181,-0.075
2.182,-0.075
2.183,-0.075
2.184,-0.074
2.185,-0.075
2.186,-0.075
2.187,-0.075
2.188,-0.078
2.189,-0.084
2.190,-0.083
2.191,-0.084
2.192,-0.080
2.193,-0.075
2.194,-0.074
2.195,-0.072
2.196,-0.072
2.197,-0.069
2.198,-0.070
2.199,-0.072
2.200,-0.071
2.201,-0.072
2.202,-0.069
2.203,-0.069
2.204,-0.067
2.205,-0.069
2.206,-0.069
2.207,-0.069
2.208,-0.071
2.209,-0.069
2.210,-0.069
2.211,-0.069
2.212,-0.070
2.213,-0.069
2.214,-0.069
2.215,-0.069
2.216,-0.066
2.217,-0.066
2.218,-0.066
2.219,-0.066
2.220,-0.067
2.221,-0.066
2.222,-0.069
2.223,-0.069
2.224,-0.066
2.225,-0.066
2.226,-0.066
2.227,-0.066
2.228,-0.063
2.229,-0.059
2.230,-0.056
2.231,-0.059
2.232,-0.059
2.233,-0.056
2.234,-0.058
2.235,-0.056
2.236,-0.059
2.237,-0.056
2.238,-0.058
2.239,-0.056
2.240,-0.058
2.241,-0.059
2.242,-0.053
2.243,-0.053
2.244,-0.050
2.245,-0.050
2.246,-0.050
2.247,-0.047
2.248,-0.046
2.249,-0.041
2.250,-0.041
2.251,-0.041
2.252,-0.038
2.253,-0.034
2.254,-0.034
2.255,-0.031
2.256,-0.030
2.257,-0.028
2.258,-0.026
2.259,-0.028
2.260,-0.028
2.261,-0.028
2.262,-0.027
2.263,-0.019
2.264,-0.019
2.265,-0.019
2.266,-0.020
2.267,-0.022
2.268,-0.016
2.269,-0.013
2.270,-0.009
2.271,-0.009
2.272,-0.008
2.273,-0.009
2.274,-0.008
2.275,-0.006
2.276,-0.005
2.277,-0.003
2.278,-0.003
2.279,-0.003
2.280,0.000
2.281,0.003
2.282,0.003
2.283,0.003
2.284,0.000
2.285,0.000
2.286,-0.001
2.287,0.000
2.288,0.000
2.289,0.000
2.290,0.001
2.291,0.003
2.292,0.003
2.293,0.006
2.294,0.002
2.295,0.003
2.296,0.004
2.297,0.006
2.298,0.009
2.299,0.009
2.300,0.009
2.301,0.009
2.302,0.012
2.303,0.016
2.304,0.016
2.305,0.016
2.306,0.012
2.307,0.009
2.308,0.012
2.309,0.012
2.310,0.008
2.311,0.009
2.312,0.006
2.313,0.009
2.314,0.012
2.315,0.009
2.316,0.012
2.317,0.009
2.318,0.014
2.319,0.016
2.320,0.011
2.321,0.012
2.322,0.011
2.323,0.012
2.324,0.011
2.325,0.016
2.326,0.016
2.327,0.016
2.328,0.016
2.329,0.016
2.330,0.014
2.331,0.016
2.332,0.014
2.333,0.016
2.334,0.016
2.335,0.012
2.336,0.016
2.337,0.016
2.338,0.017
2.339,0.019
2.340,0.017
2.341,0.016
2.342,0.019
2.343,0.016
2.344,0.014
2.345,0.012
2.346,0.012
2.347,0.012
2.348,0.012
2.349,0.012
2.350,0.012
2.351,0.012
2.352,0.012
2.353,0.012
2.354,0.011
2.355,0.009
2.356,0.008
2.357,0.006
2.358,0.012
2.359,0.012
2.360,0.014
2.361,0.012
2.362,0.009
2.363,0.009
2.364,0.014
2.365,0.016
2.366,0.019
2.367,0.019
2.368,0.025
2.369,0.028
2.370,0.027
2.371,0.028
2.372,0.027
2.373,0.025
2.374,0.027
2.375,0.025
2.376,0.028
2.377,0.028
2.378,0.031
2.379,0.031
2.380,0.031
2.381,0.031
2.382,0.033
2.383,0.031
2.384,0.030
2.385,0.031
2.386,0.034
2.387,0.038
2.388,0.041
2.389,0.038
2.390,0.038
2.391,0.038
2.392,0.038
2.393,0.034
2.394,0.041
2.395,0.044
2.396,0.045
2.397,0.047
2.398,0.047
2.399,0.047
2.400,0.046
2.401,0.044
2.402,0.046
2.403,0.047
2.404,0.047
2.405,0.047
2.406,0.045
2.407,0.044
2.408,0.046
2.409,0.044
2.410,0.044
2.411,0.044
2.412,0.045
2.413,0.047
2.414,0.047
2.415,0.047
2.416,0.044
2.417,0.044
2.418,0.044
2.419,0.044
2.420,0.044
2.421,0.038
2.422,0.041
2.423,0.038
2.424,0.036
2.425,0.038
2.426,0.039
2.427,0.038
2.428,0.038
2.429,0.038
2.430,0.034
2.431,0.034
2.432,0.034
2.433,0.031
2.434,0.025
2.435,0.022
2.436,0.026
2.437,0.025
2.438,0.021
2.439,0.019
2.440,0.020
2.441,0.022
2.442,0.020
2.443,0.022
2.444,0.019
2.445,0.016
2.446,0.014
2.447,0.016
2.448,0.017
2.449,0.016
2.450,0.012
2.451,0.012
2.452,0.011
2.453,0.012
2.454,0.012
2.455,0.009
2.456,0.011
2.457,0.012
2.458,0.009
2.459,0.009
2.460,0.006
2.461,0.006
2.462,0.007
2.463,0.006
2.464,0.006
2.465,0.009
2.466,0.009
2.467,0.009
2.468,0.008
2.469,0.006
2.470,0.006
2.471,0.006
2.472,0.006
2.473,0.003
2.474,0.003
2.475,0.000
2.476,0.003
2.477,0.003
2.478,-0.004
2.479,-0.009
2.480,-0.008
2.481,-0.006
2.482,-0.008
2.483,-0.006
2.484,-0.006
2.485,-0.009
2.486,-0.006
2.487,-0.003
2.488,-0.003
2.489,0.000
2.490,-0.006
2.491,-0.009
2.492,-0.011
2.493,-0.009
2.494,-0.011
2.495,-0.009
2.496,-0.013
2.497,-0.016
2.498,-0.016
2.499,-0.016
2.500,-0.019
2.501,-0.022
2.502,-0.023
2.503,-0.025
2.504,-0.026
2.505,-0.028
2.506,-0.032
2.507,-0.034
2.508,-0.033
2.509,-0.031
2.510,-0.033
2.511,-0.038
2.512,-0.038
2.513,-0.038
2.514,-0.030
2.515,-0.028
2.516,-0.027
2.517,-0.028
2.518,-0.029
2.519,-0.028
2.520,-0.030
2.521,-0.031
2.522,-0.036
2.523,-0.041
2.524,-0.042
2.525,-0.044
2.526,-0.046
2.527,-0.044
2.528,-0.045
2.529,-0.044
2.530,-0.043
2.531,-0.041
2.532,-0.044
2.533,-0.044
2.534,-0.047
2.535,-0.047
2.536,-0.044
2.537,-0.044
2.538,-0.045
2.539,-0.047
2.540,-0.048
2.541,-0.050
2.542,-0.047
2.543,-0.047
2.544,-0.050
2.545,-0.050
2.546,-0.053
2.547,-0.053
2.548,-0.050
2.549,-0.053
2.550,-0.053
2.551,-0.053
2.552,-0.054
2.553,-0.056
2.554,-0.053
2.555,-0.056
2.556,-0.058
2.557,-0.059
2.558,-0.059
2.559,-0.059
2.560,-0.059
2.561,-0.063
2.562,-0.063
2.563,-0.063
2.564,-0.059
2.565,-0.059
2.566,-0.066
2.567,-0.066
2.568,-0.063
2.569,-0.063
2.570,-0.066
2.571,-0.066
2.572,-0.069
2.573,-0.066
2.574,-0.070
2.575,-0.069
2.576,-0.068
2.577,-0.069
2.578,-0.069
2.579,-0.069
2.580,-0.069
2.581,-0.069
2.582,-0.068
2.583,-0.069
2.584,-0.070
2.585,-0.072
2.586,-0.066
2.587,-0.059
2.588,-0.064
2.589,-0.066
2.590,-0.066
2.591,-0.069
2.592,-0.066
2.593,-0.069
2.594,-0.072
2.595,-0.075
2.596,-0.078
2.597,-0.075
2.598,-0.075
2.599,-0.075
2.600,-0.076
2.601,-0.072
2.602,-0.069
2.603,-0.069
2.604,-0.068
2.605,-0.069
2.606,-0.069
2.607,-0.072
2.608,-0.071
2.609,-0.069
2.610,-0.070
2.611,-0.072
2.612,-0.072
2.613,-0.072
2.614,-0.074
2.615,-0.075
2.616,-0.076
2.617,-0.075
2.618,-0.072
2.619,-0.075
2.620,-0.074
2.621,-0.072
2.622,-0.075
2.623,-0.078
2.624,-0.081
2.625,-0.081
2.626,-0.080
2.627,-0.078
2.628,-0.075
2.629,-0.075
2.630,-0.079
2.631,-0.078
2.632,-0.078
2.633,-0.078
2.634,-0.081
2.635,-0.081
2.636,-0.078
2.637,-0.078
2.638,-0.081
2.639,-0.081
2.640,-0.083
2.641,-0.084
2.642,-0.080
2.643,-0.081
2.644,-0.079
2.645,-0.084
2.646,-0.081
2.647,-0.081
2.648,-0.078
2.649,-0.078
2.650,-0.078
2.651,-0.075
2.652,-0.073
2.653,-0.072
2.654,-0.072
2.655,-0.072
2.656,-0.072
2.657,-0.069
2.658,-0.066
2.659,-0.056
2.660,-0.048
2.661,-0.041
2.662,-0.030
2.663,-0.022
2.664,-0.013
2.665,-0.003
2.666,-0.004
2.667,-0.003
2.668,0.001
2.669,0.000
2.670,0.003
2.671,0.003
2.672,0.005
2.673,0.006
2.674,0.014
2.675,0.022
2.676,0.025
2.677,0.028
2.678,0.026
2.679,0.028
2.680,0.029
2.681,0.034
2.682,0.033
2.683,0.034
2.684,0.034
2.685,0.034
2.686,0.036
2.687,0.034
2.688,0.031
2.689,0.031
2.690,0.041
2.691,0.050
2.692,0.053
2.693,0.062
2.694,0.064
2.695,0.062
2.696,0.069
2.697,0.078
2.698,0.089
2.699,0.094
2.700,0.105
2.701,0.112
2.702,0.125
2.703,0.131
2.704,0.136
2.705,0.144
2.706,0.154
2.707,0.159
2.708,0.162
2.709,0.162
2.710,0.155
2.711,0.153
2.712,0.153
2.713,0.153
2.714,0.150
2.715,0.150
2.716,0.150
2.717,0.147
2.718,0.147
2.719,0.147
2.720,0.144
2.721,0.137
2.722,0.127
2.723,0.116
2.724,0.108
2.725,0.103
2.726,0.094
2.727,0.087
2.728,0.082
2.729,0.075
2.730,0.069
2.731,0.066
2.732,0.057
2.733,0.044
2.734,0.028
2.735,0.012
2.736,0.006
2.737,-0.003
2.738,-0.014
2.739,-0.031
2.740,-0.044
2.741,-0.053
2.742,-0.061
2.743,-0.072
2.744,-0.084
2.745,-0.094
2.746,-0.099
2.747,-0.100
2.748,-0.102
2.749,-0.103
2.750,-0.104
2.751,-0.106
2.752,-0.105
2.753,-0.103
2.754,-0.105
2.755,-0.106
2.756,-0.106
2.757,-0.106
2.758,-0.108
2.759,-0.109
2.760,-0.109
2.761,-0.113
2.762,-0.113
2.763,-0.119
2.764,-0.116
2.765,-0.116
2.766,-0.120
2.767,-0.122
2.768,-0.119
2.769,-0.119
2.770,-0.122
2.771,-0.122
2.772,-0.122
2.773,-0.125
2.774,-0.123
2.775,-0.125
2.776,-0.124
2.777,-0.122
2.778,-0.125
2.779,-0.125
2.780,-0.123
2.781,-0.125
2.782,-0.125
2.783,-0.122
2.784,-0.124
2.785,-0.119
2.786,-0.116
2.787,-0.116
2.788,-0.117
2.789,-0.119
2.790,-0.119
2.791,-0.122
2.792,-0.118
2.793,-0.113
2.794,-0.114
2.795,-0.116
2.796,-0.116
2.797,-0.116
2.798,-0.113
2.799,-0.116
2.800,-0.117
2.801,-0.116
2.802,-0.111
2.803,-0.103
2.804,-0.100
2.805,-0.094
2.806,-0.089
2.807,-0.081
2.808,-0.068
2.809,-0.047
2.810,-0.030
2.811,-0.016
2.812,0.004
2.813,0.028
2.814,0.046
2.815,0.059
2.816,0.067
2.817,0.066
2.818,0.067
2.819,0.066
2.820,0.059
2.821,0.056
2.822,0.058
2.823,0.066
2.824,0.089
2.825,0.122
2.826,0.170
2.827,0.225
2.828,0.278
2.829,0.344
2.830,0.442
2.831,0.566
2.832,0.696
2.833,0.831
2.834,0.987
2.835,1.137
2.836,1.250
2.837,1.312
2.838,1.266
2.839,1.162
2.840,1.073
2.841,1.012
2.842,0.959
2.843,0.894
2.844,0.805
2.845,0.709
2.846,0.630
2.847,0.562
2.848,0.472
2.849,0.362
2.850,0.259
2.851,0.175
2.852,0.109
2.853,0.062
2.854,0.024
2.855,-0.016
2.856,-0.053
2.857,-0.094
2.858,-0.123
2.859,-0.147
2.860,-0.178
2.861,-0.219
2.862,-0.249
2.863,-0.269
2.864,-0.296
2.865,-0.316
2.866,-0.341
2.867,-0.363
2.868,-0.377
2.869,-0.384
2.870,-0.386
2.871,-0.378
2.872,-0.366
2.873,-0.347
2.874,-0.331
2.875,-0.312
2.876,-0.294
2.877,-0.275
2.878,-0.264
2.879,-0.253
2.880,-0.244
2.881,-0.228
2.882,-0.213
2.883,-0.203
2.884,-0.194
2.885,-0.184
2.886,-0.171
2.887,-0.156
2.888,-0.154
2.889,-0.150
2.890,-0.150
2.891,-0.144
2.892,-0.139
2.893,-0.131
2.894,-0.134
2.895,-0.131
2.896,-0.133
2.897,-0.128
2.898,-0.126
2.899,-0.125
2.900,-0.122
2.901,-0.116
2.902,-0.111
2.903,-0.109
2.904,-0.106
2.905,-0.106
2.906,-0.104
2.907,-0.106
2.908,-0.105
2.909,-0.103
2.910,-0.105
2.911,-0.103
2.912,-0.108
2.913,-0.106
2.914,-0.106
2.915,-0.103
2.916,-0.104
2.917,-0.106
2.918,-0.103
2.919,-0.100
2.920,-0.098
2.921,-0.100
2.922,-0.099
2.923,-0.100
2.924,-0.101
2.925,-0.103
2.926,-0.103
2.927,-0.103
2.928,-0.102
2.929,-0.100
2.930,-0.099
2.931,-0.094
2.932,-0.094
2.933,-0.094
2.934,-0.097
2.935,-0.100
2.936,-0.096
2.937,-0.094
2.938,-0.095
2.939,-0.097
2.940,-0.100
2.941,-0.097
2.942,-0.093
2.943,-0.091
2.944,-0.095
2.945,-0.094
2.946,-0.093
2.947,-0.091
2.948,-0.092
2.949,-0.094
2.950,-0.091
2.951,-0.088
2.952,-0.083
2.953,-0.081
2.954,-0.083
2.955,-0.084
2.956,-0.089
2.957,-0.088
2.958,-0.089
2.959,-0.088
2.960,-0.088
2.961,-0.088
2.962,-0.086
2.963,-0.088
2.964,-0.084
2.965,-0.081
2.966,-0.083
2.967,-0.084
2.968,-0.084
2.969,-0.088
2.970,-0.089
2.971,-0.088
2.972,-0.088
2.973,-0.088
2.974,-0.089
2.975,-0.091
2.976,-0.089
2.977,-0.094
2.978,-0.095
2.979,-0.094
2.980,-0.091
2.981,-0.088
2.982,-0.086
2.983,-0.084
2.984,-0.088
2.985,-0.088
2.986,-0.088
2.987,-0.084
2.988,-0.080
2.989,-0.078
2.990,-0.075
2.991,-0.078
2.992,-0.076
2.993,-0.078
2.994,-0.075
2.995,-0.075
2.996,-0.074
2.997,-0.069
2.998,-0.072
2.999,-0.069
3.000,-0.069
3.001,-0.069
3.002,-0.067
3.003,-0.069
3.004,-0.063
3.005,-0.059
3.006,-0.059
3.007,-0.056
3.008,-0.053
3.009,-0.053
3.010,-0.051
3.011,-0.053
3.012,-0.054
3.013,-0.053
3.014,-0.052
3.015,-0.050
3.016,-0.047
3.017,-0.044
3.018,-0.039
3.019,-0.041
3.020,-0.038
3.021,-0.034
3.022,-0.036
3.023,-0.034
3.024,-0.036
3.025,-0.034
3.026,-0.036
3.027,-0.034
3.028,-0.034
3.029,-0.034
3.030,-0.028
3.031,-0.022
3.032,-0.023
3.033,-0.025
3.034,-0.026
3.035,-0.025
3.036,-0.019
3.037,-0.016
3.038,-0.016
3.039,-0.016
3.040,-0.013
3.041,-0.013
3.042,-0.005
3.043,0.000
3.044,-0.001
3.045,-0.003
3.046,-0.004
3.047,-0.006
3.048,-0.003
3.049,-0.006
3.050,-0.004
3.051,-0.006
3.052,-0.009
3.053,-0.009
3.054,-0.011
3.055,-0.013
3.056,-0.011
3.057,-0.009
3.058,-0.009
3.059,-0.009
3.060,-0.008
3.061,-0.006
3.062,-0.008
3.063,-0.006
3.064,-0.002
3.065,0.000
3.066,0.002
3.067,-0.003
3.068,0.000
3.069,0.003
3.070,0.003
3.071,0.009
3.072,0.006
3.073,0.009
3.074,0.008
3.075,0.003
3.076,0.003
3.077,0.000
3.078,0.004
3.079,0.003
3.080,0.007
3.081,0.009
3.082,0.009
3.083,0.009
3.084,0.008
3.085,0.003
3.086,0.003
3.087,0.003
3.088,0.006
3.089,0.006
3.090,0.000
3.091,0.000
3.092,0.001
3.093,0.003
3.094,0.003
3.095,0.003
3.096,0.004
3.097,0.009
3.098,0.011
3.099,0.016
3.100,0.016
3.101,0.016
3.102,0.014
3.103,0.012
3.104,0.012
3.105,0.012
3.106,0.012
3.107,0.012
3.108,0.014
3.109,0.016
3.110,0.016
3.111,0.016
3.112,0.014
3.113,0.016
3.114,0.011
3.115,0.012
3.116,0.011
3.117,0.009
3.118,0.012
3.119,0.016
3.120,0.019
3.121,0.022
3.122,0.017
3.123,0.019
3.124,0.019
3.125,0.019
3.126,0.025
3.127,0.028
3.128,0.025
3.129,0.025
3.130,0.025
3.131,0.028
3.132,0.028
3.133,0.031
3.134,0.031
3.135,0.031
3.136,0.030
3.137,0.031
3.138,0.030
3.139,0.028
3.140,0.030
3.141,0.028
3.142,0.031
3.143,0.038
3.144,0.034
3.145,0.034
3.146,0.038
3.147,0.044
3.148,0.042
3.149,0.044
3.150,0.042
3.151,0.041
3.152,0.041
3.153,0.041
3.154,0.044
3.155,0.047
3.156,0.046
3.157,0.047
3.158,0.051
3.159,0.053
3.160,0.053
3.161,0.050
3.162,0.047
3.163,0.050
3.164,0.050
3.165,0.050
3.166,0.050
3.167,0.050
3.168,0.049
3.169,0.047
3.170,0.048
3.171,0.047
3.172,0.042
3.173,0.038
3.174,0.038
3.175,0.038
3.176,0.030
3.177,0.031
3.178,0.029
3.179,0.028
3.180,0.028
3.181,0.028
3.182,0.026
3.183,0.028
3.184,0.028
3.185,0.025
3.186,0.025
3.187,0.025
3.188,0.021
3.189,0.016
3.190,0.014
3.191,0.016
3.192,0.019
3.193,0.022
3.194,0.021
3.195,0.019
3.196,0.017
3.197,0.012
3.198,0.012
3.199,0.012
3.200,0.014
3.201,0.012
3.202,0.012
3.203,0.012
3.204,0.009
3.205,0.006
3.206,0.003
3.207,0.000
3.208,0.003
3.209,0.003
3.210,0.000
3.211,0.000
3.212,-0.001
3.213,-0.006
3.214,-0.006
3.215,-0.009
3.216,-0.011
3.217,-0.013
3.218,-0.017
3.219,-0.019
3.220,-0.014
3.221,-0.016
3.222,-0.019
3.223,-0.019
3.224,-0.019
3.225,-0.019
3.226,-0.018
3.227,-0.016
3.228,-0.018
3.229,-0.016
3.230,-0.019
3.231,-0.016
3.232,-0.014
3.233,-0.016
3.234,-0.016
3.235,-0.016
3.236,-0.016
3.237,-0.016
3.238,-0.013
3.239,-0.013
3.240,-0.017
3.241,-0.019
3.242,-0.020
3.243,-0.025
3.244,-0.029
3.245,-0.038
3.246,-0.038
3.247,-0.038
3.248,-0.033
3.249,-0.034
3.250,-0.033
3.251,-0.034
3.252,-0.036
3.253,-0.034
3.254,-0.034
3.255,-0.034
3.256,-0.036
3.257,-0.038
3.258,-0.038
3.259,-0.038
3.260,-0.036
3.261,-0.038
3.262,-0.036
3.263,-0.034
3.264,-0.031
3.265,-0.031
3.266,-0.044
3.267,-0.047
3.268,-0.045
3.269,-0.044
3.270,-0.043
3.271,-0.038
3.272,-0.041
3.273,-0.041
3.274,-0.038
3.275,-0.041
3.276,-0.044
3.277,-0.044
3.278,-0.047
3.279,-0.050
3.280,-0.046
3.281,-0.044
3.282,-0.041
3.283,-0.038
3.284,-0.036
3.285,-0.038
3.286,-0.039
3.287,-0.044
3.288,-0.044
3.289,-0.047
3.290,-0.047
3.291,-0.047
3.292,-0.050
3.293,-0.050
3.294,-0.054
3.295,-0.059
3.296,-0.058
3.297,-0.056
3.298,-0.058
3.299,-0.059
3.300,-0.061
3.301,-0.066
3.302,-0.064
3.303,-0.059
3.304,-0.061
3.305,-0.059
3.306,-0.063
3.307,-0.066
3.308,-0.064
3.309,-0.059
3.310,-0.061
3.311,-0.059
3.312,-0.059
3.313,-0.059
3.314,-0.058
3.315,-0.056
3.316,-0.061
3.317,-0.063
3.318,-0.064
3.319,-0.063
3.320,-0.061
3.321,-0.066
3.322,-0.067
3.323,-0.066
3.324,-0.064
3.325,-0.063
3.326,-0.061
3.327,-0.066
3.328,-0.064
3.329,-0.069
3.330,-0.059
3.331,-0.053
3.332,-0.056
3.333,-0.056
3.334,-0.058
3.335,-0.059
3.336,-0.059
3.337,-0.059
3.338,-0.064
3.339,-0.066
3.340,-0.066
3.341,-0.063
3.342,-0.061
3.343,-0.066
3.344,-0.066
3.345,-0.066
3.346,-0.069
3.347,-0.069
3.348,-0.066
3.349,-0.066
3.350,-0.064
3.351,-0.066
3.352,-0.064
3.353,-0.066
3.354,-0.066
3.355,-0.066
3.356,-0.066
3.357,-0.066
3.358,-0.063
3.359,-0.059
3.360,-0.064
3.361,-0.069
3.362,-0.070
3.363,-0.069
3.364,-0.064
3.365,-0.066
3.366,-0.066
3.367,-0.066
3.368,-0.066
3.369,-0.066
3.370,-0.067
3.371,-0.066
3.372,-0.067
3.373,-0.069
3.374,-0.068
3.375,-0.069
3.376,-0.069
3.377,-0.063
3.378,-0.064
3.379,-0.066
3.380,-0.066
3.381,-0.063
3.382,-0.061
3.383,-0.063
3.384,-0.066
3.385,-0.066
3.386,-0.067
3.387,-0.069
3.388,-0.070
3.389,-0.078
3.390,-0.074
3.391,-0.075
3.392,-0.072
3.393,-0.072
3.394,-0.073
3.395,-0.078
3.396,-0.079
3.397,-0.078
3.398,-0.071
3.399,-0.063
3.400,-0.061
3.401,-0.059
3.402,-0.061
3.403,-0.059
3.404,-0.061
3.405,-0.056
3.406,-0.048
3.407,-0.041
3.408,-0.028
3.409,-0.019
3.410,-0.013
3.411,-0.006
3.412,-0.003
3.413,0.003
3.414,0.006
3.415,0.003
3.416,0.006
3.417,0.006
3.418,0.005
3.419,0.003
3.420,0.009
3.421,0.016
3.422,0.020
3.423,0.025
3.424,0.023
3.425,0.025
3.426,0.024
3.427,0.025
3.428,0.028
3.429,0.034
3.430,0.036
3.431,0.038
3.432,0.041
3.433,0.041
3.434,0.036
3.435,0.034
3.436,0.044
3.437,0.053
3.438,0.052
3.439,0.056
3.440,0.061
3.441,0.062
3.442,0.069
3.443,0.078
3.444,0.091
3.445,0.097
3.446,0.109
3.447,0.119
3.448,0.124
3.449,0.122
3.450,0.129
3.451,0.141
3.452,0.153
3.453,0.159
3.454,0.162
3.455,0.162
3.456,0.157
3.457,0.159
3.458,0.161
3.459,0.162
3.460,0.159
3.461,0.159
3.462,0.159
3.463,0.156
3.464,0.156
3.465,0.156
3.466,0.153
3.467,0.147
3.468,0.137
3.469,0.128
3.470,0.123
3.471,0.122
3.472,0.111
3.473,0.103
3.474,0.098
3.475,0.091
3.476,0.081
3.477,0.075
3.478,0.061
3.479,0.041
3.480,0.032
3.481,0.025
3.482,0.019
3.483,0.009
3.484,-0.003
3.485,-0.022
3.486,-0.033
3.487,-0.041
3.488,-0.050
3.489,-0.063
3.490,-0.075
3.491,-0.084
3.492,-0.088
3.493,-0.088
3.494,-0.094
3.495,-0.100
3.496,-0.101
3.497,-0.103
3.498,-0.102
3.499,-0.100
3.500,-0.103
3.501,-0.106
3.502,-0.106
3.503,-0.106
3.504,-0.106
3.505,-0.106
3.506,-0.105
3.507,-0.106
3.508,-0.102
3.509,-0.103
3.510,-0.103
3.511,-0.106
3.512,-0.109
3.513,-0.109
3.514,-0.106
3.515,-0.106
3.516,-0.109
3.517,-0.109
3.518,-0.109
3.519,-0.113
3.520,-0.111
3.521,-0.113
3.522,-0.113
3.523,-0.113
3.524,-0.114
3.525,-0.113
3.526,-0.111
3.527,-0.113
3.528,-0.114
3.529,-0.113
3.530,-0.113
3.531,-0.106
3.532,-0.105
3.533,-0.106
3.534,-0.106
3.535,-0.106
3.536,-0.106
3.537,-0.109
3.538,-0.108
3.539,-0.106
3.540,-0.109
3.541,-0.113
3.542,-0.111
3.543,-0.109
3.544,-0.106
3.545,-0.109
3.546,-0.111
3.547,-0.109
3.548,-0.106
3.549,-0.100
3.550,-0.100
3.551,-0.097
3.552,-0.089
3.553,-0.078
3.554,-0.072
3.555,-0.059
3.556,-0.048
3.557,-0.041
3.558,-0.023
3.559,-0.003
3.560,0.014
3.561,0.028
3.562,0.041
3.563,0.044
3.564,0.045
3.565,0.044
3.566,0.030
3.567,0.019
3.568,0.014
3.569,0.016
3.570,0.031
3.571,0.056
3.572,0.089
3.573,0.128
3.574,0.183
3.575,0.250
3.576,0.342
3.577,0.459
3.578,0.591
3.579,0.728
3.580,0.882
3.581,1.031
3.582,1.142
3.583,1.203
3.584,1.172
3.585,1.084
3.586,1.003
3.587,0.950
3.588,0.903
3.589,0.844
3.590,0.764
3.591,0.678
3.592,0.603
3.593,0.541
3.594,0.461
3.595,0.362
3.596,0.272
3.597,0.200
3.598,0.141
3.599,0.100
3.600,0.070
3.601,0.041
3.602,0.006
3.603,-0.031
3.604,-0.059
3.605,-0.081
3.606,-0.108
3.607,-0.144
3.608,-0.186
3.609,-0.219
3.610,-0.251
3.611,-0.278
3.612,-0.311
3.613,-0.341
3.614,-0.359
3.615,-0.372
3.616,-0.384
3.617,-0.388
3.618,-0.382
3.619,-0.372
3.620,-0.350
3.621,-0.325
3.622,-0.306
3.623,-0.288
3.624,-0.278
3.625,-0.269
3.626,-0.263
3.627,-0.250
3.628,-0.236
3.629,-0.228
3.630,-0.209
3.631,-0.191
3.632,-0.178
3.633,-0.166
3.634,-0.163
3.635,-0.156
3.636,-0.153
3.637,-0.144
3.638,-0.142
3.639,-0.138
3.640,-0.136
3.641,-0.128
3.642,-0.127
3.643,-0.119
3.644,-0.116
3.645,-0.113
3.646,-0.108
3.647,-0.100
3.648,-0.097
3.649,-0.097
3.650,-0.095
3.651,-0.097
3.652,-0.094
3.653,-0.094
3.654,-0.094
3.655,-0.094
3.656,-0.096
3.657,-0.094
3.658,-0.101
3.659,-0.103
3.660,-0.102
3.661,-0.097
3.662,-0.096
3.663,-0.094
3.664,-0.094
3.665,-0.094
3.666,-0.091
3.667,-0.091
3.668,-0.089
3.669,-0.091
3.670,-0.091
3.671,-0.091
3.672,-0.091
3.673,-0.091
3.674,-0.091
3.675,-0.091
3.676,-0.095
3.677,-0.097
3.678,-0.096
3.679,-0.094
3.680,-0.093
3.681,-0.091
3.682,-0.086
3.683,-0.084
3.684,-0.083
3.685,-0.081
3.686,-0.083
3.687,-0.078
3.688,-0.075
3.689,-0.075
3.690,-0.081
3.691,-0.081
3.692,-0.078
3.693,-0.075
3.694,-0.075
3.695,-0.075
3.696,-0.076
3.697,-0.078
3.698,-0.078
3.699,-0.081
3.700,-0.081
3.701,-0.081
3.702,-0.086
3.703,-0.084
3.704,-0.081
3.705,-0.075
3.706,-0.075
3.707,-0.075
3.708,-0.075
3.709,-0.078
3.710,-0.078
3.711,-0.078
3.712,-0.077
3.713,-0.075
3.714,-0.072
3.715,-0.072
3.716,-0.073
3.717,-0.072
3.718,-0.072
3.719,-0.072
3.720,-0.073
3.721,-0.075
3.722,-0.071
3.723,-0.072
3.724,-0.072
3.725,-0.069
3.726,-0.069
3.727,-0.069
3.728,-0.070
3.729,-0.072
3.730,-0.073
3.731,-0.072
3.732,-0.075
3.733,-0.075
3.734,-0.071
3.735,-0.069
3.736,-0.064
3.737,-0.066
3.738,-0.067
3.739,-0.072
3.740,-0.072
3.741,-0.075
3.742,-0.075
3.743,-0.072
3.744,-0.071
3.745,-0.063
3.746,-0.061
3.747,-0.059
3.748,-0.055
3.749,-0.053
3.750,-0.050
3.751,-0.050
3.752,-0.053
3.753,-0.053
3.754,-0.051
3.755,-0.053
3.756,-0.050
3.757,-0.050
3.758,-0.053
3.759,-0.053
3.760,-0.052
3.761,-0.050
3.762,-0.051
3.763,-0.053
3.764,-0.043
3.765,-0.038
3.766,-0.039
3.767,-0.041
3.768,-0.042
3.769,-0.041
3.770,-0.042
3.771,-0.041
3.772,-0.039
3.773,-0.034
3.774,-0.036
3.775,-0.038
3.776,-0.036
3.777,-0.034
3.778,-0.034
3.779,-0.034
3.780,-0.033
3.781,-0.028
3.782,-0.022
3.783,-0.019
3.784,-0.020
3.785,-0.022
3.786,-0.020
3.787,-0.022
3.788,-0.022
3.789,-0.025
3.790,-0.026
3.791,-0.028
3.792,-0.024
3.793,-0.019
3.794,-0.017
3.795,-0.022
3.796,-0.018
3.797,-0.016
3.798,-0.017
3.799,-0.016
3.800,-0.014
3.801,-0.013
3.802,-0.014
3.803,-0.016
3.804,-0.017
3.805,-0.019
3.806,-0.022
3.807,-0.025
3.808,-0.026
3.809,-0.025
3.810,-0.021
3.811,-0.019
3.812,-0.016
3.813,-0.019
3.814,-0.016
3.815,-0.013
3.816,-0.016
3.817,-0.013
3.818,-0.017
3.819,-0.016
3.820,-0.014
3.821,-0.016
3.822,-0.014
3.823,-0.016
3.824,-0.014
3.825,-0.019
3.826,-0.017
3.827,-0.019
3.828,-0.020
3.829,-0.022
3.830,-0.019
3.831,-0.019
3.832,-0.018
3.833,-0.016
3.834,-0.014
3.835,-0.016
3.836,-0.019
3.837,-0.016
3.838,-0.014
3.839,-0.013
3.840,-0.013
3.841,-0.013
3.842,-0.013
3.843,-0.009
3.844,-0.013
3.845,-0.013
3.846,-0.011
3.847,-0.009
3.848,-0.009
3.849,-0.009
3.850,-0.009
3.851,-0.009
3.852,-0.011
3.853,-0.013
3.854,-0.013
3.855,-0.013
3.856,-0.013
3.857,-0.013
3.858,-0.013
3.859,-0.009
3.860,-0.013
3.861,-0.009
3.862,-0.011
3.863,-0.013
3.864,-0.009
3.865,-0.006
3.866,-0.005
3.867,-0.003
3.868,-0.006
3.869,-0.003
3.870,0.000
3.871,0.003
3.872,0.002
3.873,-0.003
3.874,-0.006
3.875,-0.006
3.876,-0.003
3.877,0.003
3.878,0.002
3.879,0.003
3.880,0.006
3.881,0.009
3.882,0.009
3.883,0.012
3.884,0.014
3.885,0.016
3.886,0.019
3.887,0.019
3.888,0.016
3.889,0.016
3.890,0.014
3.891,0.016
3.892,0.017
3.893,0.022
3.894,0.021
3.895,0.022
3.896,0.023
3.897,0.025
3.898,0.025
3.899,0.025
3.900,0.026
3.901,0.028
3.902,0.027
3.903,0.028
3.904,0.031
3.905,0.031
3.906,0.032
3.907,0.031
3.908,0.028
3.909,0.031
3.910,0.030
3.911,0.028
3.912,0.027
3.913,0.025
3.914,0.025
3.915,0.025
3.916,0.026
3.917,0.025
3.918,0.022
3.919,0.019
3.920,0.022
3.921,0.025
3.922,0.019
3.923,0.022
3.924,0.020
3.925,0.019
3.926,0.020
3.927,0.022
3.928,0.014
3.929,0.009
3.930,0.008
3.931,0.003
3.932,0.003
3.933,0.003
3.934,0.003
3.935,0.003
3.936,0.002
3.937,0.003
3.938,0.001
3.939,0.000
3.940,0.001
3.941,0.003
3.942,0.003
3.943,0.000
3.944,-0.001
3.945,-0.003
3.946,-0.004
3.947,-0.009
3.948,-0.008
3.949,-0.006
3.950,-0.009
3.951,-0.013
3.952,-0.014
3.953,-0.016
3.954,-0.014
3.955,-0.016
3.956,-0.018
3.957,-0.016
3.958,-0.016
3.959,-0.019
3.960,-0.022
3.961,-0.028
3.962,-0.028
3.963,-0.028
3.964,-0.030
3.965,-0.028
3.966,-0.025
3.967,-0.028
3.968,-0.031
3.969,-0.031
3.970,-0.032
3.971,-0.034
3.972,-0.033
3.973,-0.031
3.974,-0.038
3.975,-0.041
3.976,-0.043
3.977,-0.038
3.978,-0.038
3.979,-0.041
3.980,-0.039
3.981,-0.038
3.982,-0.036
3.983,-0.034
3.984,-0.032
3.985,-0.034
3.986,-0.036
3.987,-0.034
3.988,-0.033
3.989,-0.034
3.990,-0.034
3.991,-0.038
3.992,-0.038
3.993,-0.038
3.994,-0.036
3.995,-0.041
3.996,-0.042
3.997,-0.047
3.998,-0.050
3.999,-0.050
4.000,-0.050
4.001,-0.050
4.002,-0.051
4.003,-0.053
4.004,-0.052
4.005,-0.050
4.006,-0.049
4.007,-0.050
4.008,-0.053
4.009,-0.056
4.010,-0.052
4.011,-0.050
4.012,-0.058
4.013,-0.056
4.014,-0.053
4.015,-0.050
4.016,-0.052
4.017,-0.050
4.018,-0.053
4.019,-0.053
4.020,-0.051
4.021,-0.056
4.022,-0.063
4.023,-0.066
4.024,-0.066
4.025,-0.066
4.026,-0.064
4.027,-0.066
4.028,-0.066
4.029,-0.066
4.030,-0.063
4.031,-0.063
4.032,-0.061
4.033,-0.063
4.034,-0.063
4.035,-0.066
4.036,-0.069
4.037,-0.072
4.038,-0.075
4.039,-0.075
4.040,-0.075
4.041,-0.075
4.042,-0.074
4.043,-0.072
4.044,-0.076
4.045,-0.081
4.046,-0.078
4.047,-0.078
4.048,-0.077
4.049,-0.072
4.050,-0.076
4.051,-0.078
4.052,-0.078
4.053,-0.078
4.054,-0.074
4.055,-0.066
4.056,-0.069
4.057,-0.069
4.058,-0.070
4.059,-0.072
4.060,-0.072
4.061,-0.072
4.062,-0.075
4.063,-0.075
4.064,-0.076
4.065,-0.075
4.066,-0.074
4.067,-0.078
4.068,-0.084
4.069,-0.088
4.070,-0.083
4.071,-0.078
4.072,-0.075
4.073,-0.078
4.074,-0.075
4.075,-0.078
4.076,-0.075
4.077,-0.075
4.078,-0.079
4.079,-0.081
4.080,-0.077
4.081,-0.072
4.082,-0.069
4.083,-0.066
4.084,-0.070
4.085,-0.072
4.086,-0.075
4.087,-0.075
4.088,-0.075
4.089,-0.078
4.090,-0.078
4.091,-0.081
4.092,-0.078
4.093,-0.078
4.094,-0.075
4.095,-0.075
4.096,-0.076
4.097,-0.078
4.098,-0.078
4.099,-0.078
4.100,-0.077
4.101,-0.075
4.102,-0.079
4.103,-0.084
4.104,-0.084
4.105,-0.081
4.106,-0.078
4.107,-0.081
4.108,-0.081
4.109,-0.081
4.110,-0.081
4.111,-0.081
4.112,-0.083
4.113,-0.081
4.114,-0.080
4.115,-0.078
4.116,-0.075
4.117,-0.075
4.118,-0.083
4.119,-0.084
4.120,-0.083
4.121,-0.081
4.122,-0.083
4.123,-0.081
4.124,-0.080
4.125,-0.081
4.126,-0.083
4.127,-0.081
4.128,-0.084
4.129,-0.088
4.130,-0.086
4.131,-0.091
4.132,-0.081
4.133,-0.078
4.134,-0.076
4.135,-0.078
4.136,-0.077
4.137,-0.078
4.138,-0.079
4.139,-0.078
4.140,-0.076
4.141,-0.075
4.142,-0.075
4.143,-0.075
4.144,-0.075
4.145,-0.072
4.146,-0.068
4.147,-0.056
4.148,-0.047
4.149,-0.038
4.150,-0.030
4.151,-0.025
4.152,-0.019
4.153,-0.013
4.154,-0.014
4.155,-0.013
4.156,-0.009
4.157,-0.013
4.158,-0.006
4.159,-0.003
4.160,0.000
4.161,0.003
4.162,0.012
4.163,0.022
4.164,0.026
4.165,0.031
4.166,0.034
4.167,0.041
4.168,0.038
4.169,0.038
4.170,0.038
4.171,0.041
4.172,0.041
4.173,0.041
4.174,0.041
4.175,0.038
4.176,0.036
4.177,0.038
4.178,0.041
4.179,0.044
4.180,0.050
4.181,0.062
4.182,0.064
4.183,0.062
4.184,0.066
4.185,0.072
4.186,0.086
4.187,0.094
4.188,0.105
4.189,0.112
4.190,0.128
4.191,0.137
4.192,0.144
4.193,0.153
4.194,0.166
4.195,0.172
4.196,0.179
4.197,0.184
4.198,0.179
4.199,0.181
4.200,0.175
4.201,0.169
4.202,0.164
4.203,0.162
4.204,0.162
4.205,0.159
4.206,0.159
4.207,0.159
4.208,0.156
4.209,0.150
4.210,0.142
4.211,0.134
4.212,0.128
4.213,0.125
4.214,0.122
4.215,0.122
4.216,0.114
4.217,0.103
4.218,0.091
4.219,0.081
4.220,0.073
4.221,0.059
4.222,0.044
4.223,0.028
4.224,0.017
4.225,0.003
4.226,-0.005
4.227,-0.019
4.228,-0.032
4.229,-0.044
4.230,-0.049
4.231,-0.056
4.232,-0.069
4.233,-0.078
4.234,-0.084
4.235,-0.088
4.236,-0.091
4.237,-0.094
4.238,-0.097
4.239,-0.100
4.240,-0.101
4.241,-0.103
4.242,-0.105
4.243,-0.106
4.244,-0.106
4.245,-0.106
4.246,-0.103
4.247,-0.100
4.248,-0.097
4.249,-0.097
4.250,-0.098
4.251,-0.106
4.252,-0.106
4.253,-0.109
4.254,-0.113
4.255,-0.113
4.256,-0.111
4.257,-0.113
4.258,-0.113
4.259,-0.109
4.260,-0.108
4.261,-0.109
4.262,-0.108
4.263,-0.109
4.264,-0.109
4.265,-0.109
4.266,-0.111
4.267,-0.109
4.268,-0.106
4.269,-0.106
4.270,-0.106
4.271,-0.103
4.272,-0.108
4.273,-0.106
4.274,-0.103
4.275,-0.103
4.276,-0.103
4.277,-0.103
4.278,-0.103
4.279,-0.106
4.280,-0.104
4.281,-0.103
4.282,-0.100
4.283,-0.097
4.284,-0.100
4.285,-0.103
4.286,-0.100
4.287,-0.103
4.288,-0.108
4.289,-0.109
4.290,-0.109
4.291,-0.106
4.292,-0.102
4.293,-0.094
4.294,-0.091
4.295,-0.084
4.296,-0.072
4.297,-0.053
4.298,-0.038
4.299,-0.025
4.300,-0.002
4.301,0.025
4.302,0.050
4.303,0.072
4.304,0.078
4.305,0.075
4.306,0.075
4.307,0.072
4.308,0.064
4.309,0.059
4.310,0.055
4.311,0.056
4.312,0.071
4.313,0.094
4.314,0.137
4.315,0.187
4.316,0.246
4.317,0.316
4.318,0.402
4.319,0.512
4.320,0.644
4.321,0.781
4.322,0.942
4.323,1.097
4.324,1.236
4.325,1.325
4.326,1.298
4.327,1.216
4.328,1.116
4.329,1.044
4.330,1.004
4.331,0.953
4.332,0.861
4.333,0.762
4.334,0.678
4.335,0.606
4.336,0.512
4.337,0.400
4.338,0.294
4.339,0.206
4.340,0.136
4.341,0.084
4.342,0.042
4.343,0.000
4.344,-0.042
4.345,-0.088
4.346,-0.122
4.347,-0.150
4.348,-0.178
4.349,-0.216
4.350,-0.247
4.351,-0.269
4.352,-0.300
4.353,-0.325
4.354,-0.346
4.355,-0.363
4.356,-0.377
4.357,-0.384
4.358,-0.384
4.359,-0.375
4.360,-0.363
4.361,-0.344
4.362,-0.329
4.363,-0.312
4.364,-0.296
4.365,-0.278
4.366,-0.264
4.367,-0.250
4.368,-0.244
4.369,-0.231
4.370,-0.209
4.371,-0.194
4.372,-0.181
4.373,-0.169
4.374,-0.166
4.375,-0.163
4.376,-0.156
4.377,-0.147
4.378,-0.148
4.379,-0.144
4.380,-0.134
4.381,-0.122
4.382,-0.122
4.383,-0.116
4.384,-0.119
4.385,-0.116
4.386,-0.114
4.387,-0.113
4.388,-0.114
4.389,-0.113
4.390,-0.111
4.391,-0.113
4.392,-0.111
4.393,-0.113
4.394,-0.109
4.395,-0.109
4.396,-0.108
4.397,-0.106
4.398,-0.106
4.399,-0.103
4.400,-0.108
4.401,-0.106
4.402,-0.103
4.403,-0.097
4.404,-0.096
4.405,-0.094
4.406,-0.095
4.407,-0.097
4.408,-0.094
4.409,-0.094
4.410,-0.089
4.411,-0.088
4.412,-0.088
4.413,-0.088
4.414,-0.088
4.415,-0.088
4.416,-0.089
4.417,-0.091
4.418,-0.092
4.419,-0.091
4.420,-0.086
4.421,-0.081
4.422,-0.083
4.423,-0.084
4.424,-0.084
4.425,-0.088
4.426,-0.086
4.427,-0.084
4.428,-0.088
4.429,-0.084
4.430,-0.078
4.431,-0.075
4.432,-0.078
4.433,-0.075
4.434,-0.076
4.435,-0.078
4.436,-0.079
4.437,-0.081
4.438,-0.078
4.439,-0.075
4.440,-0.072
4.441,-0.072
4.442,-0.071
4.443,-0.069
4.444,-0.073
4.445,-0.072
4.446,-0.073
4.447,-0.072
4.448,-0.071
4.449,-0.069
4.450,-0.068
4.451,-0.069
4.452,-0.069
4.453,-0.069
4.454,-0.070
4.455,-0.072
4.456,-0.070
4.457,-0.072
4.458,-0.071
4.459,-0.066
4.460,-0.066
4.461,-0.066
4.462,-0.067
4.463,-0.069
4.464,-0.061
4.465,-0.059
4.466,-0.063
4.467,-0.063
4.468,-0.063
4.469,-0.063
4.470,-0.063
4.471,-0.063
4.472,-0.066
4.473,-0.066
4.474,-0.069
4.475,-0.069
4.476,-0.063
4.477,-0.059
4.478,-0.059
4.479,-0.066
4.480,-0.063
4.481,-0.063
4.482,-0.058
4.483,-0.056
4.484,-0.056
4.485,-0.053
4.486,-0.055
4.487,-0.050
4.488,-0.051
4.489,-0.053
4.490,-0.051
4.491,-0.053
4.492,-0.047
4.493,-0.044
4.494,-0.044
4.495,-0.041
4.496,-0.038
4.497,-0.038
4.498,-0.031
4.499,-0.028
4.500,-0.029
4.501,-0.028
4.502,-0.029
4.503,-0.031
4.504,-0.031
4.505,-0.031
4.506,-0.026
4.507,-0.028
4.508,-0.027
4.509,-0.025
4.510,-0.026
4.511,-0.025
4.512,-0.025
4.513,-0.022
4.514,-0.018
4.515,-0.009
4.516,-0.009
4.517,-0.009
4.518,-0.011
4.519,-0.013
4.520,-0.011
4.521,-0.009
4.522,-0.013
4.523,-0.013
4.524,-0.011
4.525,-0.013
4.526,-0.011
4.527,-0.009
4.528,-0.008
4.529,-0.009
4.530,-0.003
4.531,0.000
4.532,0.000
4.533,0.000
4.534,-0.003
4.535,-0.006
4.536,-0.003
4.537,-0.006
4.538,-0.004
4.539,-0.006
4.540,-0.005
4.541,0.000
4.542,0.001
4.543,0.003
4.544,0.003
4.545,0.003
4.546,0.003
4.547,0.003
4.548,0.006
4.549,0.009
4.550,0.008
4.551,0.009
4.552,0.009
4.553,0.006
4.554,0.009
4.555,0.006
4.556,0.006
4.557,0.006
4.558,0.003
4.559,0.006
4.560,0.004
4.561,0.009
4.562,0.009
4.563,0.006
4.564,0.011
4.565,0.012
4.566,0.019
4.567,0.019
4.568,0.019
4.569,0.016
4.570,0.014
4.571,0.012
4.572,0.012
4.573,0.009
4.574,0.008
4.575,0.006
4.576,0.009
4.577,0.009
4.578,0.006
4.579,0.009
4.580,0.009
4.581,0.009
4.582,0.009
4.583,0.009
4.584,0.009
4.585,0.012
4.586,0.009
4.587,0.009
4.588,0.009
4.589,0.009
4.590,0.008
4.591,0.006
4.592,0.007
4.593,0.009
4.594,0.009
4.595,0.009
4.596,0.009
4.597,0.009
4.598,0.009
4.599,0.009
4.600,0.008
4.601,0.009
4.602,0.005
4.603,0.006
4.604,0.006
4.605,0.006
4.606,0.006
4.607,0.006
4.608,0.011
4.609,0.016
4.610,0.017
4.611,0.025
4.612,0.022
4.613,0.019
4.614,0.021
4.615,0.019
4.616,0.019
4.617,0.022
4.618,0.021
4.619,0.022
4.620,0.023
4.621,0.028
4.622,0.028
4.623,0.028
4.624,0.027
4.625,0.028
4.626,0.031
4.627,0.034
4.628,0.036
4.629,0.034
4.630,0.034
4.631,0.038
4.632,0.034
4.633,0.034
4.634,0.033
4.635,0.034
4.636,0.036
4.637,0.041
4.638,0.039
4.639,0.038
4.640,0.036
4.641,0.034
4.642,0.039
4.643,0.044
4.644,0.044
4.645,0.047
4.646,0.049
4.647,0.047
4.648,0.048
4.649,0.047
4.650,0.042
4.651,0.044
4.652,0.044
4.653,0.044
4.654,0.044
4.655,0.044
4.656,0.044
4.657,0.044
4.658,0.045
4.659,0.044
4.660,0.042
4.661,0.041
4.662,0.041
4.663,0.041
4.664,0.038
4.665,0.044
4.666,0.042
4.667,0.041
4.668,0.036
4.669,0.031
4.670,0.029
4.671,0.031
4.672,0.031
4.673,0.028
4.674,0.027
4.675,0.025
4.676,0.025
4.677,0.025
4.678,0.024
4.679,0.025
4.680,0.025
4.681,0.025
4.682,0.025
4.683,0.025
4.684,0.024
4.685,0.019
4.686,0.017
4.687,0.016
4.688,0.017
4.689,0.016
4.690,0.017
4.691,0.019
4.692,0.019
4.693,0.019
4.694,0.017
4.695,0.016
4.696,0.017
4.697,0.016
4.698,0.011
4.699,0.009
4.700,0.012
4.701,0.012
4.702,0.012
4.703,0.009
4.704,0.011
4.705,0.012
4.706,0.006
4.707,0.003
4.708,0.007
4.709,0.006
4.710,0.004
4.711,0.006
4.712,0.005
4.713,0.003
4.714,0.003
4.715,0.003
4.716,0.001
4.717,0.003
4.718,-0.001
4.719,0.000
4.720,0.001
4.721,0.000
4.722,-0.003
4.723,-0.006
4.724,-0.008
4.725,-0.009
4.726,-0.003
4.727,0.000
4.728,-0.002
4.729,0.000
4.730,0.001
4.731,0.000
4.732,-0.003
4.733,-0.009
4.734,-0.011
4.735,-0.013
4.736,-0.009
4.737,-0.013
4.738,-0.011
4.739,-0.013
4.740,-0.016
4.741,-0.016
4.742,-0.019
4.743,-0.022
4.744,-0.021
4.745,-0.019
4.746,-0.020
4.747,-0.022
4.748,-0.021
4.749,-0.022
4.750,-0.021
4.751,-0.019
4.752,-0.018
4.753,-0.019
4.754,-0.025
4.755,-0.022
4.756,-0.020
4.757,-0.019
4.758,-0.022
4.759,-0.022
4.760,-0.025
4.761,-0.025
4.762,-0.023
4.763,-0.028
4.764,-0.031
4.765,-0.031
4.766,-0.031
4.767,-0.031
4.768,-0.031
4.769,-0.034
4.770,-0.033
4.771,-0.031
4.772,-0.031
4.773,-0.034
4.774,-0.038
4.775,-0.044
4.776,-0.041
4.777,-0.041
4.778,-0.042
4.779,-0.044
4.780,-0.046
4.781,-0.044
4.782,-0.041
4.783,-0.038
4.784,-0.034
4.785,-0.031
4.786,-0.033
4.787,-0.034
4.788,-0.034
4.789,-0.038
4.790,-0.044
4.791,-0.047
4.792,-0.050
4.793,-0.050
4.794,-0.050
4.795,-0.050
4.796,-0.050
4.797,-0.047
4.798,-0.050
4.799,-0.050
4.800,-0.050
4.801,-0.050
4.802,-0.051
4.803,-0.053
4.804,-0.055
4.805,-0.053
4.806,-0.053
4.807,-0.050
4.808,-0.047
4.809,-0.050
4.810,-0.053
4.811,-0.053
4.812,-0.059
4.813,-0.066
4.814,-0.061
4.815,-0.063
4.816,-0.056
4.817,-0.056
4.818,-0.054
4.819,-0.056
4.820,-0.059
4.821,-0.059
4.822,-0.063
4.823,-0.066
4.824,-0.066
4.825,-0.066
4.826,-0.069
4.827,-0.069
4.828,-0.072
4.829,-0.072
4.830,-0.068
4.831,-0.069
4.832,-0.069
4.833,-0.069
4.834,-0.071
4.835,-0.066
4.836,-0.069
4.837,-0.069
4.838,-0.070
4.839,-0.075
4.840,-0.072
4.841,-0.072
4.842,-0.072
4.843,-0.075
4.844,-0.076
4.845,-0.078
4.846,-0.076
4.847,-0.078
4.848,-0.075
4.849,-0.072
4.850,-0.070
4.851,-0.072
4.852,-0.072
4.853,-0.075
4.854,-0.072
4.855,-0.072
4.856,-0.072
4.857,-0.072
4.858,-0.072
4.859,-0.072
4.860,-0.071
4.861,-0.069
4.862,-0.069
4.863,-0.069
4.864,-0.072
4.865,-0.072
4.866,-0.069
4.867,-0.072
4.868,-0.072
4.869,-0.072
4.870,-0.072
4.871,-0.072
4.872,-0.073
4.873,-0.072
4.874,-0.072
4.875,-0.072
4.876,-0.069
4.877,-0.069
4.878,-0.073
4.879,-0.072
4.880,-0.068
4.881,-0.063
4.882,-0.066
4.883,-0.066
4.884,-0.067
4.885,-0.072
4.886,-0.072
4.887,-0.069
4.888,-0.070
4.889,-0.072
4.890,-0.070
4.891,-0.075
4.892,-0.072
4.893,-0.075
4.894,-0.072
4.895,-0.072
4.896,-0.071
4.897,-0.072
4.898,-0.072
4.899,-0.069
4.900,-0.064
4.901,-0.059
4.902,-0.058
4.903,-0.056
4.904,-0.053
4.905,-0.047
4.906,-0.044
4.907,-0.034
4.908,-0.026
4.909,-0.019
4.910,-0.009
4.911,-0.003
4.912,0.000
4.913,0.003
4.914,0.006
4.915,0.012
4.916,0.017
4.917,0.016
4.918,0.019
4.919,0.019
4.920,0.025
4.921,0.031
4.922,0.036
4.923,0.041
4.924,0.044
4.925,0.047
4.926,0.047
4.927,0.050
4.928,0.047
4.929,0.047
4.930,0.046
4.931,0.047
4.932,0.047
4.933,0.047
4.934,0.048
4.935,0.047
4.936,0.047
4.937,0.050
4.938,0.053
4.939,0.056
4.940,0.056
4.941,0.062
4.942,0.066
4.943,0.066
4.944,0.072
4.945,0.081
4.946,0.097
4.947,0.106
4.948,0.123
4.949,0.137
4.950,0.150
4.951,0.156
4.952,0.161
4.953,0.169
4.954,0.175
4.955,0.175
4.956,0.179
4.957,0.181
4.958,0.176
4.959,0.178
4.960,0.178
4.961,0.178
4.962,0.175
4.963,0.175
4.964,0.175
4.965,0.172
4.966,0.169
4.967,0.166
4.968,0.161
4.969,0.153
4.970,0.147
4.971,0.141
4.972,0.133
4.973,0.128
4.974,0.121
4.975,0.116
4.976,0.111
4.977,0.103
4.978,0.089
4.979,0.078
4.980,0.070
4.981,0.056
4.982,0.045
4.983,0.034
4.984,0.022
4.985,0.006
4.986,0.001
4.987,-0.009
4.988,-0.023
4.989,-0.034
4.990,-0.041
4.991,-0.050
4.992,-0.058
4.993,-0.063
4.994,-0.070
4.995,-0.075
4.996,-0.078
4.997,-0.081
4.998,-0.081
4.999,-0.081
5.000,-0.081
5.001,-0.081
5.002,-0.083
5.003,-0.084
5.004,-0.084
5.005,-0.084
5.006,-0.089
5.007,-0.094
5.008,-0.095
5.009,-0.100
5.010,-0.094
5.011,-0.094
5.012,-0.094
5.013,-0.097
5.014,-0.100
5.015,-0.100
5.016,-0.094
5.017,-0.091
5.018,-0.095
5.019,-0.097
5.020,-0.096
5.021,-0.097
5.022,-0.094
5.023,-0.094
5.024,-0.094
5.025,-0.094
5.026,-0.097
5.027,-0.097
5.028,-0.095
5.029,-0.097
5.030,-0.094
5.031,-0.088
5.032,-0.091
5.033,-0.088
5.034,-0.088
5.035,-0.091
5.036,-0.092
5.037,-0.094
5.038,-0.097
5.039,-0.103
5.040,-0.103
5.041,-0.103
5.042,-0.102
5.043,-0.100
5.044,-0.100
5.045,-0.100
5.046,-0.097
5.047,-0.100
5.048,-0.096
5.049,-0.088
5.050,-0.083
5.051,-0.075
5.052,-0.071
5.053,-0.063
5.054,-0.055
5.055,-0.044
5.056,-0.031
5.057,-0.013
5.058,0.006
5.059,0.022
5.060,0.045
5.061,0.072
5.062,0.083
5.063,0.091
5.064,0.100
5.065,0.100
5.066,0.100
5.067,0.097
5.068,0.091
5.069,0.087
5.070,0.092
5.071,0.103
5.072,0.131
5.073,0.169
5.074,0.220
5.075,0.278
5.076,0.347
5.077,0.428
5.078,0.526
5.079,0.650
5.080,0.792
5.081,0.941
5.082,1.091
5.083,1.234
5.084,1.300
5.085,1.316
5.086,1.262
5.087,1.153
5.088,1.066
5.089,1.006
5.090,0.941
5.091,0.862
5.092,0.774
5.093,0.678
5.094,0.586
5.095,0.506
5.096,0.414
5.097,0.303
5.098,0.214
5.099,0.144
5.100,0.075
5.101,0.025
5.102,-0.020
5.103,-0.066
5.104,-0.093
5.105,-0.122
5.106,-0.159
5.107,-0.191
5.108,-0.218
5.109,-0.253
5.110,-0.278
5.111,-0.294
5.112,-0.321
5.113,-0.341
5.114,-0.353
5.115,-0.363
5.116,-0.368
5.117,-0.366
5.118,-0.355
5.119,-0.334
5.120,-0.321
5.121,-0.300
5.122,-0.289
5.123,-0.275
5.124,-0.261
5.125,-0.247
5.126,-0.233
5.127,-0.219
5.128,-0.211
5.129,-0.197
5.130,-0.183
5.131,-0.175
5.132,-0.164
5.133,-0.153
5.134,-0.148
5.135,-0.144
5.136,-0.144
5.137,-0.141
5.138,-0.134
5.139,-0.122
5.140,-0.120
5.141,-0.116
5.142,-0.116
5.143,-0.109
5.144,-0.111
5.145,-0.106
5.146,-0.102
5.147,-0.097
5.148,-0.093
5.149,-0.084
5.150,-0.083
5.151,-0.084
5.152,-0.086
5.153,-0.091
5.154,-0.088
5.155,-0.088
5.156,-0.088
5.157,-0.088
5.158,-0.089
5.159,-0.088
5.160,-0.092
5.161,-0.091
5.162,-0.092
5.163,-0.091
5.164,-0.088
5.165,-0.084
5.166,-0.084
5.167,-0.084
5.168,-0.083
5.169,-0.084
5.170,-0.081
5.171,-0.081
5.172,-0.077
5.173,-0.072
5.174,-0.072
5.175,-0.072
5.176,-0.073
5.177,-0.075
5.178,-0.076
5.179,-0.075
5.180,-0.072
5.181,-0.069
5.182,-0.068
5.183,-0.066
5.184,-0.064
5.185,-0.066
5.186,-0.066
5.187,-0.066
5.188,-0.064
5.189,-0.056
5.190,-0.054
5.191,-0.056
5.192,-0.061
5.193,-0.059
5.194,-0.059
5.195,-0.059
5.196,-0.061
5.197,-0.063
5.198,-0.063
5.199,-0.063
5.200,-0.058
5.201,-0.056
5.202,-0.055
5.203,-0.053
5.204,-0.056
5.205,-0.053
5.206,-0.054
5.207,-0.053
5.208,-0.054
5.209,-0.056
5.210,-0.052
5.211,-0.050
5.212,-0.051
5.213,-0.053
5.214,-0.054
5.215,-0.056
5.216,-0.052
5.217,-0.050
5.218,-0.051
5.219,-0.050
5.220,-0.051
5.221,-0.053
5.222,-0.053
5.223,-0.053
5.224,-0.050
5.225,-0.053
5.226,-0.054
5.227,-0.053
5.228,-0.053
5.229,-0.053
5.230,-0.050
5.231,-0.047
5.232,-0.044
5.233,-0.038
5.234,-0.044
5.235,-0.047
5.236,-0.045
5.237,-0.047
5.238,-0.041
5.239,-0.041
5.240,-0.039
5.241,-0.041
5.242,-0.038
5.243,-0.038
5.244,-0.039
5.245,-0.038
5.246,-0.042
5.247,-0.041
5.248,-0.034
5.249,-0.028
5.250,-0.026
5.251,-0.028
5.252,-0.026
5.253,-0.028
5.254,-0.027
5.255,-0.022
5.256,-0.019
5.257,-0.019
5.258,-0.017
5.259,-0.019
5.260,-0.018
5.261,-0.013
5.262,-0.013
5.263,-0.013
5.264,-0.011
5.265,-0.009
5.266,-0.002
5.267,0.000
5.268,-0.001
5.269,-0.003
5.270,-0.002
5.271,0.003
5.272,0.002
5.273,0.003
5.274,0.002
5.275,0.003
5.276,0.003
5.277,0.003
5.278,0.003
5.279,0.003
5.280,0.006
5.281,0.009
5.282,0.012
5.283,0.019
5.284,0.022
5.285,0.022
5.286,0.021
5.287,0.019
5.288,0.021
5.289,0.019
5.290,0.022
5.291,0.022
5.292,0.022
5.293,0.022
5.294,0.023
5.295,0.025
5.296,0.027
5.297,0.022
5.298,0.025
5.299,0.025
5.300,0.024
5.301,0.025
5.302,0.025
5.303,0.025
5.304,0.025
5.305,0.025
5.306,0.026
5.307,0.028
5.308,0.028
5.309,0.028
5.310,0.025
5.311,0.025
5.312,0.026
5.313,0.025
5.314,0.029
5.315,0.028
5.316,0.031
5.317,0.034
5.318,0.031
5.319,0.034
5.320,0.034
5.321,0.041
5.322,0.038
5.323,0.031
5.324,0.031
5.325,0.028
5.326,0.032
5.327,0.031
5.328,0.033
5.329,0.031
5.330,0.031
5.331,0.031
5.332,0.032
5.333,0.031
5.334,0.031
5.335,0.031
5.336,0.034
5.337,0.034
5.338,0.030
5.339,0.031
5.340,0.036
5.341,0.041
5.342,0.039
5.343,0.038
5.344,0.039
5.345,0.044
5.346,0.041
5.347,0.041
5.348,0.044
5.349,0.047
5.350,0.050
5.351,0.053
5.352,0.050
5.353,0.047
5.354,0.047
5.355,0.047
5.356,0.046
5.357,0.044
5.358,0.042
5.359,0.041
5.360,0.041
5.361,0.044
5.362,0.038
5.363,0.038
5.364,0.042
5.365,0.047
5.366,0.050
5.367,0.053
5.368,0.053
5.369,0.053
5.370,0.050
5.371,0.053
5.372,0.056
5.373,0.059
5.374,0.059
5.375,0.056
5.376,0.057
5.377,0.062
5.378,0.061
5.379,0.062
5.380,0.066
5.381,0.072
5.382,0.073
5.383,0.075
5.384,0.072
5.385,0.072
5.386,0.073
5.387,0.075
5.388,0.078
5.389,0.078
5.390,0.078
5.391,0.081
5.392,0.078
5.393,0.078
5.394,0.077
5.395,0.078
5.396,0.077
5.397,0.078
5.398,0.081
5.399,0.084
5.400,0.084
5.401,0.084
5.402,0.083
5.403,0.081
5.404,0.081
5.405,0.084
5.406,0.083
5.407,0.078
5.408,0.079
5.409,0.078
5.410,0.078
5.411,0.084
5.412,0.081
5.413,0.078
5.414,0.078
5.415,0.078
5.416,0.078
5.417,0.078
5.418,0.079
5.419,0.078
5.420,0.078
5.421,0.078
5.422,0.078
5.423,0.078
5.424,0.069
5.425,0.069
5.426,0.069
5.427,0.069
5.428,0.069
5.429,0.069
5.430,0.066
5.431,0.066
5.432,0.067
5.433,0.066
5.434,0.064
5.435,0.062
5.436,0.058
5.437,0.053
5.438,0.052
5.439,0.053
5.440,0.047
5.441,0.041
5.442,0.042
5.443,0.044
5.444,0.045
5.445,0.044
5.446,0.044
5.447,0.044
5.448,0.047
5.449,0.047
5.450,0.047
5.451,0.047
5.452,0.042
5.453,0.038
5.454,0.038
5.455,0.038
5.456,0.041
5.457,0.041
5.458,0.034
5.459,0.031
5.460,0.034
5.461,0.034
5.462,0.036
5.463,0.034
5.464,0.036
5.465,0.038
5.466,0.034
5.467,0.034
5.468,0.034
5.469,0.028
5.470,0.024
5.471,0.022
5.472,0.023
5.473,0.025
5.474,0.024
5.475,0.022
5.476,0.017
5.477,0.016
5.478,0.011
5.479,0.012
5.480,0.014
5.481,0.012
5.482,0.012
5.483,0.012
5.484,0.014
5.485,0.016
5.486,0.020
5.487,0.022
5.488,0.017
5.489,0.016
5.490,0.016
5.491,0.012
5.492,0.014
5.493,0.012
5.494,0.011
5.495,0.009
5.496,0.011
5.497,0.006
5.498,0.006
5.499,0.003
5.500,-0.001
5.501,-0.003
5.502,-0.003
5.503,-0.003
5.504,0.000
5.505,0.003
5.506,0.003
5.507,0.003
5.508,0.000
5.509,-0.006
5.510,-0.008
5.511,-0.009
5.512,-0.011
5.513,-0.016
5.514,-0.022
5.515,-0.019
5.516,-0.017
5.517,-0.016
5.518,-0.022
5.519,-0.025
5.520,-0.028
5.521,-0.028
5.522,-0.025
5.523,-0.028
5.524,-0.030
5.525,-0.028
5.526,-0.028
5.527,-0.028
5.528,-0.027
5.529,-0.028
5.530,-0.029
5.531,-0.031
5.532,-0.027
5.533,-0.025
5.534,-0.024
5.535,-0.025
5.536,-0.025
5.537,-0.028
5.538,-0.029
5.539,-0.031
5.540,-0.039
5.541,-0.044
5.542,-0.044
5.543,-0.044
5.544,-0.044
5.545,-0.044
5.546,-0.046
5.547,-0.047
5.548,-0.046
5.549,-0.047
5.550,-0.048
5.551,-0.047
5.552,-0.051
5.553,-0.053
5.554,-0.053
5.555,-0.053
5.556,-0.059
5.557,-0.063
5.558,-0.064
5.559,-0.063
5.560,-0.058
5.561,-0.053
5.562,-0.053
5.563,-0.053
5.564,-0.053
5.565,-0.050
5.566,-0.051
5.567,-0.050
5.568,-0.050
5.569,-0.056
5.570,-0.058
5.571,-0.056
5.572,-0.056
5.573,-0.056
5.574,-0.052
5.575,-0.053
5.576,-0.050
5.577,-0.053
5.578,-0.050
5.579,-0.050
5.580,-0.053
5.581,-0.053
5.582,-0.053
5.583,-0.053
5.584,-0.054
5.585,-0.056
5.586,-0.061
5.587,-0.063
5.588,-0.064
5.589,-0.063
5.590,-0.059
5.591,-0.063
5.592,-0.061
5.593,-0.059
5.594,-0.064
5.595,-0.063
5.596,-0.066
5.597,-0.066
5.598,-0.066
5.599,-0.069
5.600,-0.064
5.601,-0.063
5.602,-0.061
5.603,-0.063
5.604,-0.064
5.605,-0.066
5.606,-0.064
5.607,-0.066
5.608,-0.064
5.609,-0.063
5.610,-0.058
5.611,-0.059
5.612,-0.061
5.613,-0.063
5.614,-0.061
5.615,-0.063
5.616,-0.061
5.617,-0.063
5.618,-0.064
5.619,-0.069
5.620,-0.068
5.621,-0.066
5.622,-0.066
5.623,-0.066
5.624,-0.068
5.625,-0.066
5.626,-0.064
5.627,-0.063
5.628,-0.067
5.629,-0.066
5.630,-0.067
5.631,-0.069
5.632,-0.068
5.633,-0.066
5.634,-0.066
5.635,-0.066
5.636,-0.066
5.637,-0.069
5.638,-0.072
5.639,-0.072
5.640,-0.070
5.641,-0.069
5.642,-0.072
5.643,-0.072
5.644,-0.071
5.645,-0.069
5.646,-0.070
5.647,-0.072
5.648,-0.068
5.649,-0.066
5.650,-0.066
5.651,-0.066
5.652,-0.068
5.653,-0.069
5.654,-0.059
5.655,-0.053
5.656,-0.058
5.657,-0.063
5.658,-0.063
5.659,-0.066
5.660,-0.066
5.661,-0.066
5.662,-0.067
5.663,-0.069
5.664,-0.069
5.665,-0.066
5.666,-0.069
5.667,-0.066
5.668,-0.066
5.669,-0.059
5.670,-0.056
5.671,-0.053
5.672,-0.058
5.673,-0.059
5.674,-0.061
5.675,-0.063
5.676,-0.061
5.677,-0.059
5.678,-0.056
5.679,-0.056
5.680,-0.052
5.681,-0.047
5.682,-0.036
5.683,-0.025
5.684,-0.017
5.685,-0.013
5.686,-0.009
5.687,-0.003
5.688,0.003
5.689,0.003
5.690,0.005
5.691,0.006
5.692,0.004
5.693,0.012
5.694,0.020
5.695,0.028
5.696,0.025
5.697,0.025
5.698,0.031
5.699,0.034
5.700,0.041
5.701,0.041
5.702,0.041
5.703,0.041
5.704,0.042
5.705,0.041
5.706,0.042
5.707,0.041
5.708,0.041
5.709,0.041
5.710,0.041
5.711,0.044
5.712,0.046
5.713,0.050
5.714,0.056
5.715,0.059
5.716,0.066
5.717,0.066
5.718,0.067
5.719,0.075
5.720,0.086
5.721,0.100
5.722,0.106
5.723,0.119
5.724,0.125
5.725,0.134
5.726,0.144
5.727,0.153
5.728,0.162
5.729,0.172
5.730,0.172
5.731,0.172
5.732,0.173
5.733,0.169
5.734,0.167
5.735,0.162
5.736,0.159
5.737,0.156
5.738,0.155
5.739,0.153
5.740,0.149
5.741,0.147
5.742,0.147
5.743,0.144
5.744,0.141
5.745,0.134
5.746,0.122
5.747,0.112
5.748,0.109
5.749,0.103
5.750,0.099
5.751,0.091
5.752,0.078
5.753,0.062
5.754,0.054
5.755,0.047
5.756,0.032
5.757,0.022
5.758,0.005
5.759,-0.009
5.760,-0.022
5.761,-0.031
5.762,-0.044
5.763,-0.053
5.764,-0.058
5.765,-0.059
5.766,-0.063
5.767,-0.066
5.768,-0.072
5.769,-0.078
5.770,-0.080
5.771,-0.081
5.772,-0.086
5.773,-0.088
5.774,-0.091
5.775,-0.094
5.776,-0.093
5.777,-0.094
5.778,-0.101
5.779,-0.106
5.780,-0.106
5.781,-0.106
5.782,-0.103
5.783,-0.100
5.784,-0.104
5.785,-0.103
5.786,-0.106
5.787,-0.106
5.788,-0.108
5.789,-0.109
5.790,-0.111
5.791,-0.109
5.792,-0.108
5.793,-0.109
5.794,-0.109
5.795,-0.109
5.796,-0.116
5.797,-0.116
5.798,-0.111
5.799,-0.106
5.800,-0.102
5.801,-0.097
5.802,-0.100
5.803,-0.103
5.804,-0.104
5.805,-0.106
5.806,-0.103
5.807,-0.106
5.808,-0.104
5.809,-0.106
5.810,-0.108
5.811,-0.106
5.812,-0.109
5.813,-0.113
5.814,-0.116
5.815,-0.113
5.816,-0.105
5.817,-0.100
5.818,-0.101
5.819,-0.103
5.820,-0.102
5.821,-0.097
5.822,-0.101
5.823,-0.103
5.824,-0.103
5.825,-0.106
5.826,-0.100
5.827,-0.094
5.828,-0.092
5.829,-0.091
5.830,-0.080
5.831,-0.066
5.832,-0.046
5.833,-0.028
5.834,-0.017
5.835,0.000
5.836,0.022
5.837,0.041
5.838,0.055
5.839,0.059
5.840,0.050
5.841,0.044
5.842,0.042
5.843,0.034
5.844,0.028
5.845,0.031
5.846,0.044
5.847,0.066
5.848,0.097
5.849,0.144
5.850,0.191
5.851,0.247
5.852,0.329
5.853,0.434
5.854,0.556
5.855,0.691
5.856,0.824
5.857,0.969
5.858,1.080
5.859,1.153
5.860,1.174
5.861,1.097
5.862,1.011
5.863,0.931
5.864,0.873
5.865,0.831
5.866,0.771
5.867,0.681
5.868,0.598
5.869,0.531
5.870,0.459
5.871,0.369
5.872,0.282
5.873,0.203
5.874,0.139
5.875,0.087
5.876,0.051
5.877,0.025
5.878,-0.006
5.879,-0.038
5.880,-0.077
5.881,-0.103
5.882,-0.125
5.883,-0.153
5.884,-0.194
5.885,-0.231
5.886,-0.259
5.887,-0.291
5.888,-0.314
5.889,-0.344
5.890,-0.372
5.891,-0.391
5.892,-0.406
5.893,-0.413
5.894,-0.403
5.895,-0.394
5.896,-0.377
5.897,-0.356
5.898,-0.333
5.899,-0.316
5.900,-0.296
5.901,-0.278
5.902,-0.264
5.903,-0.253
5.904,-0.236
5.905,-0.219
5.906,-0.208
5.907,-0.194
5.908,-0.181
5.909,-0.172
5.910,-0.163
5.911,-0.159
5.912,-0.154
5.913,-0.156
5.914,-0.150
5.915,-0.147
5.916,-0.144
5.917,-0.147
5.918,-0.138
5.919,-0.134
5.920,-0.125
5.921,-0.119
5.922,-0.116
5.923,-0.113
5.924,-0.109
5.925,-0.109
5.926,-0.111
5.927,-0.109
5.928,-0.105
5.929,-0.097
5.930,-0.098
5.931,-0.100
5.932,-0.099
5.933,-0.100
5.934,-0.101
5.935,-0.106
5.936,-0.104
5.937,-0.106
5.938,-0.104
5.939,-0.106
5.940,-0.105
5.941,-0.100
5.942,-0.096
5.943,-0.091
5.944,-0.088
5.945,-0.084
5.946,-0.089
5.947,-0.091
5.948,-0.089
5.949,-0.088
5.950,-0.088
5.951,-0.088
5.952,-0.086
5.953,-0.084
5.954,-0.080
5.955,-0.078
5.956,-0.078
5.957,-0.078
5.958,-0.081
5.959,-0.081
5.960,-0.081
5.961,-0.081
5.962,-0.078
5.963,-0.078
5.964,-0.079
5.965,-0.081
5.966,-0.080
5.967,-0.081
5.968,-0.079
5.969,-0.081
5.970,-0.080
5.971,-0.078
5.972,-0.078
5.973,-0.078
5.974,-0.079
5.975,-0.078
5.976,-0.077
5.977,-0.075
5.978,-0.075
5.979,-0.078
5.980,-0.078
5.981,-0.081
5.982,-0.077
5.983,-0.075
5.984,-0.075
5.985,-0.075
5.986,-0.081
5.987,-0.084
5.988,-0.084
5.989,-0.084
5.990,-0.081
5.991,-0.075
5.992,-0.074
5.993,-0.072
5.994,-0.069
5.995,-0.069
5.996,-0.069
5.997,-0.069
5.998,-0.069
5.999,-0.066
6.000,-0.069
6.001,-0.069
6.002,-0.066
6.003,-0.066
6.004,-0.066
6.005,-0.066
6.006,-0.066
6.007,-0.066
6.008,-0.063
6.009,-0.066
6.010,-0.066
6.011,-0.063
6.012,-0.064
6.013,-0.063
6.014,-0.063
6.015,-0.056
6.016,-0.052
6.017,-0.044
6.018,-0.047
6.019,-0.050
6.020,-0.048
6.021,-0.053
6.022,-0.049
6.023,-0.047
6.024,-0.048
6.025,-0.047
6.026,-0.050
6.027,-0.050
6.028,-0.051
6.029,-0.053
6.030,-0.051
6.031,-0.050
6.032,-0.049
6.033,-0.044
6.034,-0.043
6.035,-0.041
6.036,-0.039
6.037,-0.041
6.038,-0.041
6.039,-0.041
6.040,-0.039
6.041,-0.031
6.042,-0.028
6.043,-0.025
6.044,-0.022
6.045,-0.019
6.046,-0.017
6.047,-0.019
6.048,-0.017
6.049,-0.019
6.050,-0.019
6.051,-0.022
6.052,-0.023
6.053,-0.025
6.054,-0.022
6.055,-0.019
6.056,-0.020
6.057,-0.022
6.058,-0.020
6.059,-0.019
6.060,-0.020
6.061,-0.022
6.062,-0.023
6.063,-0.022
6.064,-0.019
6.065,-0.013
6.066,-0.009
6.067,-0.006
6.068,-0.006
6.069,-0.006
6.070,-0.006
6.071,-0.003
6.072,-0.005
6.073,0.000
6.074,-0.003
6.075,-0.006
6.076,-0.002
6.077,0.000
6.078,0.001
6.079,0.003
6.080,0.003
6.081,0.003
6.082,0.004
6.083,0.006
6.084,0.005
6.085,0.003
6.086,0.006
6.087,0.006
6.088,0.003
6.089,0.006
6.090,0.000
6.091,0.000
6.092,0.000
6.093,-0.006
6.094,-0.002
6.095,-0.003
6.096,0.001
6.097,0.003
6.098,0.000
6.099,0.003
6.100,0.003
6.101,0.006
6.102,0.002
6.103,0.003
6.104,0.007
6.105,0.012
6.106,0.012
6.107,0.012
6.108,0.009
6.109,0.009
6.110,0.012
6.111,0.019
6.112,0.019
6.113,0.016
6.114,0.020
6.115,0.022
6.116,0.023
6.117,0.025
6.118,0.024
6.119,0.022
6.120,0.022
6.121,0.016
6.122,0.014
6.123,0.012
6.124,0.011
6.125,0.009
6.126,0.008
6.127,0.006
6.128,0.006
6.129,0.006
6.130,0.006
6.131,0.006
6.132,0.007
6.133,0.009
6.134,0.008
6.135,0.006
6.136,0.011
6.137,0.009
6.138,0.012
6.139,0.012
6.140,0.009
6.141,0.009
6.142,0.011
6.143,0.009
6.144,0.017
6.145,0.022
6.146,0.024
6.147,0.022
6.148,0.023
6.149,0.028
6.150,0.029
6.151,0.031
6.152,0.033
6.153,0.031
6.154,0.036
6.155,0.038
6.156,0.039
6.157,0.038
6.158,0.038
6.159,0.038
6.160,0.041
6.161,0.041
6.162,0.039
6.163,0.041
6.164,0.041
6.165,0.041
6.166,0.045
6.167,0.044
6.168,0.044
6.169,0.044
6.170,0.046
6.171,0.044
6.172,0.047
6.173,0.047
6.174,0.047
6.175,0.047
6.176,0.047
6.177,0.047
6.178,0.046
6.179,0.044
6.180,0.044
6.181,0.044
6.182,0.045
6.183,0.047
6.184,0.047
6.185,0.047
6.186,0.049
6.187,0.047
6.188,0.050
6.189,0.053
6.190,0.053
6.191,0.053
6.192,0.053
6.193,0.053
6.194,0.051
6.195,0.053
6.196,0.053
6.197,0.053
6.198,0.053
6.199,0.047
6.200,0.051
6.201,0.050
6.202,0.042
6.203,0.038
6.204,0.039
6.205,0.038
6.206,0.038
6.207,0.038
6.208,0.038
6.209,0.041
6.210,0.042
6.211,0.041
6.212,0.038
6.213,0.038
6.214,0.041
6.215,0.038
6.216,0.031
6.217,0.028
6.218,0.029
6.219,0.031
6.220,0.028
6.221,0.028
6.222,0.024
6.223,0.019
6.224,0.009
6.225,0.003
6.226,0.004
6.227,0.003
6.228,0.003
6.229,0.006
6.230,0.005
6.231,0.006
6.232,0.007
6.233,0.006
6.234,0.009
6.235,0.012
6.236,0.008
6.237,0.006
6.238,0.003
6.239,0.003
6.240,0.004
6.241,0.003
6.242,0.002
6.243,0.003
6.244,-0.001
6.245,-0.006
6.246,-0.011
6.247,-0.016
6.248,-0.016
6.249,-0.016
6.250,-0.014
6.251,-0.016
6.252,-0.017
6.253,-0.022
6.254,-0.018
6.255,-0.016
6.256,-0.018
6.257,-0.016
6.258,-0.019
6.259,-0.022
6.260,-0.022
6.261,-0.019
6.262,-0.020
6.263,-0.025
6.264,-0.026
6.265,-0.028
6.266,-0.030
6.267,-0.028
6.268,-0.031
6.269,-0.031
6.270,-0.031
6.271,-0.028
6.272,-0.030
6.273,-0.028
6.274,-0.031
6.275,-0.034
6.276,-0.034
6.277,-0.034
6.278,-0.034
6.279,-0.034
6.280,-0.034
6.281,-0.034
6.282,-0.033
6.283,-0.031
6.284,-0.034
6.285,-0.034
6.286,-0.036
6.287,-0.038
6.288,-0.038
6.289,-0.041
6.290,-0.041
6.291,-0.041
6.292,-0.038
6.293,-0.041
6.294,-0.038
6.295,-0.038
6.296,-0.041
6.297,-0.041
6.298,-0.044
6.299,-0.047
6.300,-0.047
6.301,-0.047
6.302,-0.048
6.303,-0.050
6.304,-0.053
6.305,-0.053
6.306,-0.053
6.307,-0.050
6.308,-0.050
6.309,-0.050
6.310,-0.053
6.311,-0.053
6.312,-0.058
6.313,-0.059
6.314,-0.056
6.315,-0.056
6.316,-0.055
6.317,-0.053
6.318,-0.056
6.319,-0.059
6.320,-0.059
6.321,-0.063
6.322,-0.064
6.323,-0.063
6.324,-0.066
6.325,-0.066
6.326,-0.058
6.327,-0.056
6.328,-0.058
6.329,-0.059
6.330,-0.061
6.331,-0.063
6.332,-0.055
6.333,-0.053
6.334,-0.056
6.335,-0.059
6.336,-0.063
6.337,-0.066
6.338,-0.064
6.339,-0.066
6.340,-0.066
6.341,-0.066
6.342,-0.066
6.343,-0.069
6.344,-0.071
6.345,-0.066
6.346,-0.064
6.347,-0.066
6.348,-0.063
6.349,-0.056
6.350,-0.059
6.351,-0.056
6.352,-0.063
6.353,-0.063
6.354,-0.063
6.355,-0.066
6.356,-0.066
6.357,-0.066
6.358,-0.066
6.359,-0.066
6.360,-0.064
6.361,-0.066
6.362,-0.069
6.363,-0.072
6.364,-0.069
6.365,-0.066
6.366,-0.068
6.367,-0.066
6.368,-0.066
6.369,-0.069
6.370,-0.066
6.371,-0.069
6.372,-0.068
6.373,-0.066
6.374,-0.070
6.375,-0.069
6.376,-0.069
6.377,-0.069
6.378,-0.072
6.379,-0.072
6.380,-0.073
6.381,-0.072
6.382,-0.069
6.383,-0.066
6.384,-0.067
6.385,-0.066
6.386,-0.069
6.387,-0.069
6.388,-0.068
6.389,-0.066
6.390,-0.070
6.391,-0.069
6.392,-0.069
6.393,-0.069
6.394,-0.074
6.395,-0.072
6.396,-0.072
6.397,-0.072
6.398,-0.074
6.399,-0.069
6.400,-0.068
6.401,-0.066
6.402,-0.066
6.403,-0.066
6.404,-0.067
6.405,-0.069
6.406,-0.068
6.407,-0.069
6.408,-0.073
6.409,-0.075
6.410,-0.073
6.411,-0.072
6.412,-0.074
6.413,-0.072
6.414,-0.069
6.415,-0.066
6.416,-0.067
6.417,-0.069
6.418,-0.067
6.419,-0.069
6.420,-0.068
6.421,-0.066
6.422,-0.069
6.423,-0.072
6.424,-0.072
6.425,-0.075
6.426,-0.072
6.427,-0.069
6.428,-0.066
6.429,-0.066
6.430,-0.068
6.431,-0.069
6.432,-0.070
6.433,-0.072
6.434,-0.072
6.435,-0.069
6.436,-0.073
6.437,-0.072
6.438,-0.075
6.439,-0.072
6.440,-0.076
6.441,-0.081
6.442,-0.080
6.443,-0.075
6.444,-0.073
6.445,-0.072
6.446,-0.070
6.447,-0.069
6.448,-0.061
6.449,-0.056
6.450,-0.053
6.451,-0.050
6.452,-0.042
6.453,-0.034
6.454,-0.024
6.455,-0.016
6.456,-0.017
6.457,-0.016
6.458,-0.008
6.459,-0.006
6.460,-0.002
6.461,0.003
6.462,0.000
6.463,0.006
6.464,0.014
6.465,0.022
6.466,0.021
6.467,0.022
6.468,0.025
6.469,0.025
6.470,0.029
6.471,0.028
6.472,0.028
6.473,0.028
6.474,0.030
6.475,0.028
6.476,0.031
6.477,0.031
6.478,0.032
6.479,0.034
6.480,0.030
6.481,0.028
6.482,0.032
6.483,0.041
6.484,0.050
6.485,0.056
6.486,0.062
6.487,0.062
6.488,0.066
6.489,0.075
6.490,0.081
6.491,0.091
6.492,0.097
6.493,0.109
6.494,0.120
6.495,0.134
6.496,0.141
6.497,0.147
6.498,0.157
6.499,0.169
6.500,0.172
6.501,0.175
6.502,0.175
6.503,0.169
6.504,0.170
6.505,0.169
6.506,0.166
6.507,0.162
6.508,0.159
6.509,0.156
6.510,0.156
6.511,0.159
6.512,0.156
6.513,0.150
6.514,0.144
6.515,0.134
6.516,0.126
6.517,0.122
6.518,0.120
6.519,0.116
6.520,0.109
6.521,0.100
6.522,0.092
6.523,0.081
6.524,0.071
6.525,0.059
6.526,0.048
6.527,0.041
6.528,0.025
6.529,0.012
6.530,-0.003
6.531,-0.016
6.532,-0.027
6.533,-0.034
6.534,-0.047
6.535,-0.056
6.536,-0.069
6.537,-0.081
6.538,-0.084
6.539,-0.088
6.540,-0.089
6.541,-0.091
6.542,-0.093
6.543,-0.091
6.544,-0.092
6.545,-0.094
6.546,-0.095
6.547,-0.100
6.548,-0.103
6.549,-0.103
6.550,-0.103
6.551,-0.103
6.552,-0.103
6.553,-0.103
6.554,-0.105
6.555,-0.100
6.556,-0.103
6.557,-0.103
6.558,-0.103
6.559,-0.103
6.560,-0.106
6.561,-0.106
6.562,-0.109
6.563,-0.116
6.564,-0.117
6.565,-0.119
6.566,-0.123
6.567,-0.122
6.568,-0.122
6.569,-0.122
6.570,-0.118
6.571,-0.113
6.572,-0.108
6.573,-0.103
6.574,-0.103
6.575,-0.103
6.576,-0.100
6.577,-0.103
6.578,-0.101
6.579,-0.103
6.580,-0.106
6.581,-0.106
6.582,-0.105
6.583,-0.103
6.584,-0.108
6.585,-0.106
6.586,-0.104
6.587,-0.106
6.588,-0.108
6.589,-0.109
6.590,-0.111
6.591,-0.109
6.592,-0.109
6.593,-0.106
6.594,-0.102
6.595,-0.100
6.596,-0.098
6.597,-0.097
6.598,-0.091
6.599,-0.084
6.600,-0.071
6.601,-0.053
6.602,-0.039
6.603,-0.028
6.604,-0.016
6.605,0.003
6.606,0.021
6.607,0.034
6.608,0.049
6.609,0.053
6.610,0.050
6.611,0.050
6.612,0.048
6.613,0.041
6.614,0.038
6.615,0.044
6.616,0.054
6.617,0.075
6.618,0.109
6.619,0.159
6.620,0.216
6.621,0.281
6.622,0.359
6.623,0.459
6.624,0.574
6.625,0.700
6.626,0.837
6.627,0.987
6.628,1.128
6.629,1.231
6.630,1.269
6.631,1.209
6.632,1.128
6.633,1.053
6.634,0.992
6.635,0.947
6.636,0.884
6.637,0.794
6.638,0.706
6.639,0.634
6.640,0.559
6.641,0.466
6.642,0.362
6.643,0.266
6.644,0.194
6.645,0.134
6.646,0.086
6.647,0.047
6.648,0.011
6.649,-0.025
6.650,-0.063
6.651,-0.088
6.652,-0.114
6.653,-0.147
6.654,-0.186
6.655,-0.222
6.656,-0.250
6.657,-0.281
6.658,-0.304
6.659,-0.334
6.660,-0.361
6.661,-0.378
6.662,-0.389
6.663,-0.391
6.664,-0.378
6.665,-0.366
6.666,-0.346
6.667,-0.322
6.668,-0.301
6.669,-0.288
6.670,-0.273
6.671,-0.263
6.672,-0.250
6.673,-0.241
6.674,-0.224
6.675,-0.206
6.676,-0.197
6.677,-0.184
6.678,-0.172
6.679,-0.163
6.680,-0.156
6.681,-0.156
6.682,-0.149
6.683,-0.147
6.684,-0.138
6.685,-0.131
6.686,-0.124
6.687,-0.122
6.688,-0.117
6.689,-0.119
6.690,-0.119
6.691,-0.122
6.692,-0.122
6.693,-0.122
6.694,-0.109
6.695,-0.100
6.696,-0.101
6.697,-0.100
6.698,-0.097
6.699,-0.091
6.700,-0.089
6.701,-0.088
6.702,-0.088
6.703,-0.091
6.704,-0.091
6.705,-0.094
6.706,-0.094
6.707,-0.097
6.708,-0.094
6.709,-0.094
6.710,-0.094
6.711,-0.091
6.712,-0.089
6.713,-0.088
6.714,-0.083
6.715,-0.078
6.716,-0.080
6.717,-0.078
6.718,-0.079
6.719,-0.081
6.720,-0.083
6.721,-0.084
6.722,-0.081
6.723,-0.078
6.724,-0.076
6.725,-0.078
6.726,-0.078
6.727,-0.078
6.728,-0.077
6.729,-0.072
6.730,-0.072
6.731,-0.072
6.732,-0.071
6.733,-0.072
6.734,-0.072
6.735,-0.072
6.736,-0.071
6.737,-0.072
6.738,-0.069
6.739,-0.069
6.740,-0.069
6.741,-0.069
6.742,-0.068
6.743,-0.066
6.744,-0.069
6.745,-0.069
6.746,-0.070
6.747,-0.072
6.748,-0.071
6.749,-0.072
6.750,-0.068
6.751,-0.066
6.752,-0.061
6.753,-0.059
6.754,-0.058
6.755,-0.056
6.756,-0.059
6.757,-0.059
6.758,-0.061
6.759,-0.063
6.760,-0.064
6.761,-0.063
6.762,-0.063
6.763,-0.063
6.764,-0.059
6.765,-0.059
6.766,-0.056
6.767,-0.053
6.768,-0.054
6.769,-0.053
6.770,-0.055
6.771,-0.053
6.772,-0.047
6.773,-0.044
6.774,-0.044
6.775,-0.044
6.776,-0.045
6.777,-0.047
6.778,-0.044
6.779,-0.047
6.780,-0.050
6.781,-0.050
6.782,-0.050
6.783,-0.047
6.784,-0.049
6.785,-0.044
6.786,-0.047
6.787,-0.047
6.788,-0.044
6.789,-0.041
6.790,-0.038
6.791,-0.041
6.792,-0.039
6.793,-0.041
6.794,-0.039
6.795,-0.034
6.796,-0.036
6.797,-0.034
6.798,-0.033
6.799,-0.031
6.800,-0.029
6.801,-0.028
6.802,-0.027
6.803,-0.022
6.804,-0.019
6.805,-0.016
6.806,-0.014
6.807,-0.016
6.808,-0.016
6.809,-0.016
6.810,-0.019
6.811,-0.016
6.812,-0.017
6.813,-0.019
6.814,-0.019
6.815,-0.019
6.816,-0.014
6.817,-0.013
6.818,-0.011
6.819,-0.013
6.820,-0.008
6.821,-0.006
6.822,-0.005
6.823,-0.003
6.824,-0.004
6.825,-0.006
6.826,-0.003
6.827,0.000
6.828,0.002
6.829,0.003
6.830,0.003
6.831,0.003
6.832,0.004
6.833,0.009
6.834,0.008
6.835,0.009
6.836,0.009
6.837,0.009
6.838,0.009
6.839,0.009
6.840,0.009
6.841,0.012
6.842,0.008
6.843,0.009
6.844,0.009
6.845,0.009
6.846,0.012
6.847,0.012
6.848,0.014
6.849,0.016
6.850,0.017
6.851,0.019
6.852,0.017
6.853,0.016
6.854,0.017
6.855,0.019
6.856,0.025
6.857,0.028
6.858,0.024
6.859,0.025
6.860,0.023
6.861,0.028
6.862,0.032
6.863,0.031
6.864,0.034
6.865,0.031
6.866,0.033
6.867,0.031
6.868,0.027
6.869,0.028
6.870,0.028
6.871,0.031
6.872,0.028
6.873,0.031
6.874,0.031
6.875,0.031
6.876,0.032
6.877,0.034
6.878,0.031
6.879,0.031
6.880,0.030
6.881,0.031
6.882,0.031
6.883,0.028
6.884,0.031
6.885,0.031
6.886,0.031
6.887,0.031
6.888,0.034
6.889,0.038
6.890,0.041
6.891,0.038
6.892,0.036
6.893,0.034
6.894,0.034
6.895,0.034
6.896,0.033
6.897,0.031
6.898,0.031
6.899,0.031
6.900,0.030
6.901,0.028
6.902,0.028
6.903,0.028
6.904,0.028
6.905,0.028
6.906,0.031
6.907,0.028
6.908,0.031
6.909,0.031
6.910,0.031
6.911,0.034
6.912,0.036
6.913,0.034
6.914,0.036
6.915,0.034
6.916,0.041
6.917,0.044
6.918,0.042
6.919,0.044
6.920,0.044
6.921,0.044
6.922,0.047
6.923,0.047
6.924,0.050
6.925,0.050
6.926,0.054
6.927,0.056
6.928,0.056
6.929,0.056
6.930,0.056
6.931,0.053
6.932,0.054
6.933,0.059
6.934,0.061
6.935,0.062
6.936,0.069
6.937,0.069
6.938,0.067
6.939,0.066
6.940,0.067
6.941,0.066
6.942,0.069
6.943,0.069
6.944,0.070
6.945,0.072
6.946,0.072
6.947,0.072
6.948,0.072
6.949,0.072
6.950,0.074
6.951,0.075
6.952,0.076
6.953,0.078
6.954,0.076
6.955,0.075
6.956,0.075
6.957,0.072
6.958,0.071
6.959,0.069
6.960,0.070
6.961,0.072
6.962,0.075
6.963,0.078
6.964,0.076
6.965,0.078
6.966,0.077
6.967,0.075
6.968,0.074
6.969,0.066
6.970,0.070
6.971,0.069
6.972,0.066
6.973,0.066
6.974,0.062
6.975,0.056
6.976,0.055
6.977,0.053
6.978,0.050
6.979,0.050
6.980,0.047
6.981,0.041
6.982,0.041
6.983,0.044
6.984,0.047
6.985,0.044
6.986,0.036
6.987,0.031
6.988,0.031
6.989,0.031
6.990,0.029
6.991,0.031
6.992,0.032
6.993,0.034
6.994,0.032
6.995,0.034
6.996,0.034
6.997,0.031
6.998,0.028
6.999,0.028
7.000,0.028
7.001,0.031
7.002,0.032
7.003,0.031
7.004,0.030
7.005,0.028
7.006,0.021
7.007,0.016
7.008,0.012
7.009,0.012
7.010,0.014
7.011,0.012
7.012,0.012
7.013,0.016
7.014,0.014
7.015,0.012
7.016,0.012
7.017,0.012
7.018,0.012
7.019,0.012
7.020,0.012
7.021,0.009
7.022,0.009
7.023,0.006
7.024,0.009
7.025,0.009
7.026,0.006
7.027,0.006
7.028,0.006
7.029,0.006
7.030,0.003
7.031,0.003
7.032,0.004
7.033,0.003
7.034,0.004
7.035,0.006
7.036,0.003
7.037,0.003
7.038,0.001
7.039,0.003
7.040,0.002
7.041,0.003
7.042,-0.001
7.043,-0.003
7.044,-0.006
7.045,-0.009
7.046,-0.009
7.047,-0.009
7.048,-0.009
7.049,-0.009
7.050,-0.009
7.051,-0.009
7.052,-0.009
7.053,-0.009
7.054,-0.013
7.055,-0.013
7.056,-0.013
7.057,-0.013
7.058,-0.014
7.059,-0.019
7.060,-0.019
7.061,-0.019
7.062,-0.014
7.063,-0.016
7.064,-0.017
7.065,-0.022
7.066,-0.019
7.067,-0.013
7.068,-0.016
7.069,-0.019
7.070,-0.023
7.071,-0.028
7.072,-0.025
7.073,-0.022
7.074,-0.025
7.075,-0.025
7.076,-0.026
7.077,-0.025
7.078,-0.021
7.079,-0.016
7.080,-0.020
7.081,-0.022
7.082,-0.026
7.083,-0.028
7.084,-0.027
7.085,-0.028
7.086,-0.028
7.087,-0.028
7.088,-0.029
7.089,-0.031
7.090,-0.031
7.091,-0.034
7.092,-0.036
7.093,-0.034
7.094,-0.036
7.095,-0.034
7.096,-0.034
7.097,-0.041
7.098,-0.039
7.099,-0.038
7.100,-0.036
7.101,-0.034
7.102,-0.031
7.103,-0.034
7.104,-0.034
7.105,-0.034
7.106,-0.034
7.107,-0.034
7.108,-0.038
7.109,-0.044
7.110,-0.044
7.111,-0.044
7.112,-0.041
7.113,-0.041
7.114,-0.046
7.115,-0.044
7.116,-0.042
7.117,-0.044
7.118,-0.045
7.119,-0.044
7.120,-0.047
7.121,-0.044
7.122,-0.044
7.123,-0.038
7.124,-0.036
7.125,-0.038
7.126,-0.039
7.127,-0.041
7.128,-0.041
7.129,-0.041
7.130,-0.041
7.131,-0.044
7.132,-0.045
7.133,-0.047
7.134,-0.044
7.135,-0.041
7.136,-0.043
7.137,-0.041
7.138,-0.038
7.139,-0.038
7.140,-0.036
7.141,-0.041
7.142,-0.042
7.143,-0.044
7.144,-0.047
7.145,-0.044
7.146,-0.044
7.147,-0.044
7.148,-0.047
7.149,-0.047
7.150,-0.044
7.151,-0.038
7.152,-0.042
7.153,-0.047
7.154,-0.050
7.155,-0.050
7.156,-0.053
7.157,-0.053
7.158,-0.052
7.159,-0.050
7.160,-0.054
7.161,-0.053
7.162,-0.050
7.163,-0.050
7.164,-0.050
7.165,-0.053
7.166,-0.049
7.167,-0.047
7.168,-0.047
7.169,-0.047
7.170,-0.048
7.171,-0.050
7.172,-0.053
7.173,-0.056
7.174,-0.056
7.175,-0.056
7.176,-0.058
7.177,-0.056
7.178,-0.053
7.179,-0.056
7.180,-0.053
7.181,-0.050
7.182,-0.050
7.183,-0.050
7.184,-0.051
7.185,-0.050
7.186,-0.050
7.187,-0.050
7.188,-0.049
7.189,-0.050
7.190,-0.054
7.191,-0.053
7.192,-0.053
7.193,-0.053
7.194,-0.053
7.195,-0.050
7.196,-0.053
7.197,-0.059
7.198,-0.063
7.199,-0.063
7.200,-0.061
7.201,-0.059
7.202,-0.055
7.203,-0.056
7.204,-0.053
7.205,-0.056
7.206,-0.056
7.207,-0.059
7.208,-0.059
7.209,-0.063
7.210,-0.059
7.211,-0.053
7.212,-0.051
7.213,-0.050
7.214,-0.048
7.215,-0.047
7.216,-0.044
7.217,-0.038
7.218,-0.036
7.219,-0.028
7.220,-0.019
7.221,-0.009
7.222,-0.003
7.223,0.000
7.224,0.005
7.225,0.009
7.226,0.011
7.227,0.016
7.228,0.022
7.229,0.022
7.230,0.025
7.231,0.025
7.232,0.029
7.233,0.034
7.234,0.039
7.235,0.044
7.236,0.044
7.237,0.044
7.238,0.042
7.239,0.044
7.240,0.041
7.241,0.041
7.242,0.039
7.243,0.041
7.244,0.041
7.245,0.041
7.246,0.045
7.247,0.047
7.248,0.047
7.249,0.050
7.250,0.057
7.251,0.066
7.252,0.067
7.253,0.075
7.254,0.079
7.255,0.081
7.256,0.091
7.257,0.103
7.258,0.116
7.259,0.122
7.260,0.130
7.261,0.134
7.262,0.150
7.263,0.159
7.264,0.167
7.265,0.178
7.266,0.184
7.267,0.184
7.268,0.183
7.269,0.178
7.270,0.173
7.271,0.175
7.272,0.175
7.273,0.175
7.274,0.169
7.275,0.166
7.276,0.167
7.277,0.166
7.278,0.170
7.279,0.175
7.280,0.167
7.281,0.156
7.282,0.148
7.283,0.141
7.284,0.134
7.285,0.131
7.286,0.122
7.287,0.116
7.288,0.112
7.289,0.106
7.290,0.091
7.291,0.078
7.292,0.070
7.293,0.056
7.294,0.047
7.295,0.038
7.296,0.024
7.297,0.006
7.298,-0.003
7.299,-0.019
7.300,-0.027
7.301,-0.031
7.302,-0.039
7.303,-0.050
7.304,-0.058
7.305,-0.063
7.306,-0.070
7.307,-0.075
7.308,-0.081
7.309,-0.088
7.310,-0.088
7.311,-0.088
7.312,-0.086
7.313,-0.084
7.314,-0.086
7.315,-0.088
7.316,-0.088
7.317,-0.088
7.318,-0.088
7.319,-0.088
7.320,-0.088
7.321,-0.091
7.322,-0.088
7.323,-0.091
7.324,-0.089
7.325,-0.091
7.326,-0.095
7.327,-0.097
7.328,-0.097
7.329,-0.100
7.330,-0.103
7.331,-0.103
7.332,-0.100
7.333,-0.100
7.334,-0.096
7.335,-0.094
7.336,-0.094
7.337,-0.094
7.338,-0.094
7.339,-0.091
7.340,-0.088
7.341,-0.088
7.342,-0.088
7.343,-0.084
7.344,-0.089
7.345,-0.088
7.346,-0.086
7.347,-0.088
7.348,-0.088
7.349,-0.088
7.350,-0.086
7.351,-0.088
7.352,-0.086
7.353,-0.084
7.354,-0.084
7.355,-0.084
7.356,-0.086
7.357,-0.088
7.358,-0.078
7.359,-0.075
7.360,-0.078
7.361,-0.078
7.362,-0.077
7.363,-0.072
7.364,-0.068
7.365,-0.059
7.366,-0.046
7.367,-0.028
7.368,-0.013
7.369,0.009
7.370,0.026
7.371,0.041
7.372,0.059
7.373,0.081
7.374,0.094
7.375,0.103
7.376,0.109
7.377,0.106
7.378,0.108
7.379,0.106
7.380,0.100
7.381,0.097
7.382,0.104
7.383,0.119
7.384,0.153
7.385,0.197
7.386,0.245
7.387,0.300
7.388,0.375
7.389,0.462
7.390,0.566
7.391,0.694
7.392,0.826
7.393,0.966
7.394,1.103
7.395,1.234
7.396,1.287
7.397,1.291
7.398,1.247
7.399,1.147
7.400,1.066
7.401,1.012
7.402,0.946
7.403,0.866
7.404,0.781
7.405,0.691
7.406,0.609
7.407,0.541
7.408,0.456
7.409,0.353
7.410,0.257
7.411,0.181
7.412,0.119
7.413,0.075
7.414,0.031
7.415,-0.013
7.416,-0.041
7.417,-0.072
7.418,-0.108
7.419,-0.138
7.420,-0.164
7.421,-0.200
7.422,-0.228
7.423,-0.247
7.424,-0.275
7.425,-0.297
7.426,-0.316
7.427,-0.331
7.428,-0.341
7.429,-0.344
7.430,-0.344
7.431,-0.334
7.432,-0.321
7.433,-0.300
7.434,-0.283
7.435,-0.263
7.436,-0.253
7.437,-0.244
7.438,-0.230
7.439,-0.216
7.440,-0.203
7.441,-0.184
7.442,-0.172
7.443,-0.166
7.444,-0.156
7.445,-0.147
7.446,-0.141
7.447,-0.134
7.448,-0.131
7.449,-0.125
7.450,-0.124
7.451,-0.116
7.452,-0.114
7.453,-0.109
7.454,-0.108
7.455,-0.100
7.456,-0.099
7.457,-0.091
7.458,-0.089
7.459,-0.088
7.460,-0.086
7.461,-0.081
7.462,-0.078
7.463,-0.078
7.464,-0.075
7.465,-0.075
7.466,-0.071
7.467,-0.069
7.468,-0.072
7.469,-0.075
7.470,-0.079
7.471,-0.081
7.472,-0.080
7.473,-0.072
7.474,-0.071
7.475,-0.066
7.476,-0.063
7.477,-0.059
7.478,-0.056
7.479,-0.053
7.480,-0.053
7.481,-0.056
7.482,-0.055
7.483,-0.056
7.484,-0.056
7.485,-0.056
7.486,-0.059
7.487,-0.063
7.488,-0.063
7.489,-0.063
7.490,-0.064
7.491,-0.063
7.492,-0.064
7.493,-0.066
7.494,-0.067
7.495,-0.069
7.496,-0.067
7.497,-0.069
7.498,-0.064
7.499,-0.059
7.500,-0.061
7.501,-0.056
7.502,-0.054
7.503,-0.056
7.504,-0.061
7.505,-0.059
7.506,-0.058
7.507,-0.056
7.508,-0.056
7.509,-0.056
7.510,-0.056
7.511,-0.056
7.512,-0.054
7.513,-0.056
7.514,-0.055
7.515,-0.053
7.516,-0.056
7.517,-0.053
7.518,-0.054
7.519,-0.053
7.520,-0.053
7.521,-0.053
7.522,-0.052
7.523,-0.053
7.524,-0.053
7.525,-0.053
7.526,-0.053
7.527,-0.053
7.528,-0.047
7.529,-0.044
7.530,-0.045
7.531,-0.044
7.532,-0.043
7.533,-0.041
7.534,-0.044
7.535,-0.047
7.536,-0.044
7.537,-0.047
7.538,-0.050
7.539,-0.050
7.540,-0.050
7.541,-0.050
7.542,-0.050
7.543,-0.050
7.544,-0.050
7.545,-0.047
7.546,-0.050
7.547,-0.050
7.548,-0.048
7.549,-0.050
7.550,-0.047
7.551,-0.050
7.552,-0.048
7.553,-0.050
7.554,-0.046
7.555,-0.044
7.556,-0.041
7.557,-0.034
7.558,-0.038
7.559,-0.034
7.560,-0.036
7.561,-0.038
7.562,-0.036
7.563,-0.038
7.564,-0.031
7.565,-0.028
7.566,-0.025
7.567,-0.019
7.568,-0.017
7.569,-0.019
7.570,-0.016
7.571,-0.016
7.572,-0.019
7.573,-0.019
7.574,-0.019
7.575,-0.019
7.576,-0.019
7.577,-0.019
7.578,-0.013
7.579,-0.013
7.580,-0.013
7.581,-0.013
7.582,-0.014
7.583,-0.013
7.584,-0.008
7.585,0.000
7.586,-0.001
7.587,0.000
7.588,0.001
7.589,0.003
7.590,0.003
7.591,0.003
7.592,0.003
7.593,0.003
7.594,0.002
7.595,0.003
7.596,0.005
7.597,0.003
7.598,0.006
7.599,0.009
7.600,0.016
7.601,0.019
7.602,0.017
7.603,0.012
7.604,0.012
7.605,0.012
7.606,0.014
7.607,0.016
7.608,0.017
7.609,0.012
7.610,0.016
7.611,0.016
7.612,0.016
7.613,0.019
7.614,0.019
7.615,0.019
7.616,0.022
7.617,0.025
7.618,0.026
7.619,0.028
7.620,0.028
7.621,0.028
7.622,0.028
7.623,0.031
7.624,0.031
7.625,0.028
7.626,0.031
7.627,0.028
7.628,0.028
7.629,0.028
7.630,0.025
7.631,0.028
7.632,0.024
7.633,0.025
7.634,0.026
7.635,0.025
7.636,0.028
7.637,0.028
7.638,0.031
7.639,0.028
7.640,0.031
7.641,0.031
7.642,0.031
7.643,0.031
7.644,0.038
7.645,0.041
7.646,0.039
7.647,0.038
7.648,0.042
7.649,0.044
7.650,0.039
7.651,0.041
7.652,0.038
7.653,0.034
7.654,0.034
7.655,0.034
7.656,0.036
7.657,0.041
7.658,0.038
7.659,0.038
7.660,0.039
7.661,0.041
7.662,0.039
7.663,0.038
7.664,0.036
7.665,0.034
7.666,0.039
7.667,0.044
7.668,0.044
7.669,0.044
7.670,0.044
7.671,0.044
7.672,0.045
7.673,0.050
7.674,0.047
7.675,0.050
7.676,0.051
7.677,0.053
7.678,0.056
7.679,0.059
7.680,0.055
7.681,0.050
7.682,0.050
7.683,0.056
7.684,0.059
7.685,0.062
7.686,0.064
7.687,0.062
7.688,0.066
7.689,0.072
7.690,0.071
7.691,0.072
7.692,0.071
7.693,0.072
7.694,0.072
7.695,0.072
7.696,0.071
7.697,0.072
7.698,0.072
7.699,0.072
7.700,0.079
7.701,0.084
7.702,0.083
7.703,0.084
7.704,0.081
7.705,0.081
7.706,0.080
7.707,0.081
7.708,0.080
7.709,0.081
7.710,0.082
7.711,0.084
7.712,0.084
7.713,0.084
7.714,0.083
7.715,0.081
7.716,0.080
7.717,0.081
7.718,0.084
7.719,0.084
7.720,0.083
7.721,0.078
7.722,0.075
7.723,0.078
7.724,0.077
7.725,0.075
7.726,0.074
7.727,0.072
7.728,0.072
7.729,0.072
7.730,0.071
7.731,0.066
7.732,0.066
7.733,0.066
7.734,0.067
7.735,0.069
7.736,0.064
7.737,0.069
7.738,0.067
7.739,0.066
7.740,0.066
7.741,0.066
7.742,0.061
7.743,0.059
7.744,0.061
7.745,0.059
7.746,0.056
7.747,0.053
7.748,0.053
7.749,0.053
7.750,0.052
7.751,0.053
7.752,0.051
7.753,0.050
7.754,0.050
7.755,0.050
7.756,0.051
7.757,0.050
7.758,0.049
7.759,0.047
7.760,0.048
7.761,0.047
7.762,0.047
7.763,0.047
7.764,0.042
7.765,0.038
7.766,0.036
7.767,0.034
7.768,0.034
7.769,0.031
7.770,0.028
7.771,0.028
7.772,0.029
7.773,0.028
7.774,0.028
7.775,0.025
7.776,0.025
7.777,0.025
7.778,0.023
7.779,0.025
7.780,0.028
7.781,0.025
7.782,0.025
7.783,0.028
7.784,0.028
7.785,0.028
7.786,0.028
7.787,0.028
7.788,0.022
7.789,0.019
7.790,0.014
7.791,0.016
7.792,0.017
7.793,0.016
7.794,0.014
7.795,0.012
7.796,0.012
7.797,0.012
7.798,0.016
7.799,0.016
7.800,0.012
7.801,0.012
7.802,0.011
7.803,0.006
7.804,0.005
7.805,0.000
7.806,0.003
7.807,0.006
7.808,0.009
7.809,0.006
7.810,0.007
7.811,0.006
7.812,0.003
7.813,0.003
7.814,0.004
7.815,0.006
7.816,0.007
7.817,0.009
7.818,0.008
7.819,0.006
7.820,0.003
7.821,-0.003
7.822,-0.004
7.823,-0.006
7.824,-0.008
7.825,-0.013
7.826,-0.020
7.827,-0.019
7.828,-0.014
7.829,-0.009
7.830,-0.013
7.831,-0.013
7.832,-0.016
7.833,-0.016
7.834,-0.011
7.835,-0.013
7.836,-0.014
7.837,-0.013
7.838,-0.013
7.839,-0.013
7.840,-0.011
7.841,-0.013
7.842,-0.013
7.843,-0.013
7.844,-0.009
7.845,-0.009
7.846,-0.008
7.847,-0.009
7.848,-0.008
7.849,-0.009
7.850,-0.011
7.851,-0.013
7.852,-0.016
7.853,-0.016
7.854,-0.017
7.855,-0.019
7.856,-0.018
7.857,-0.016
7.858,-0.019
7.859,-0.022
7.860,-0.023
7.861,-0.028
7.862,-0.031
7.863,-0.031
7.864,-0.033
7.865,-0.031
7.866,-0.030
7.867,-0.028
7.868,-0.029
7.869,-0.028
7.870,-0.036
7.871,-0.041
7.872,-0.039
7.873,-0.038
7.874,-0.039
7.875,-0.041
7.876,-0.044
7.877,-0.044
7.878,-0.041
7.879,-0.034
7.880,-0.031
7.881,-0.034
7.882,-0.031
7.883,-0.025
7.884,-0.028
7.885,-0.031
7.886,-0.028
7.887,-0.031
7.888,-0.028
7.889,-0.031
7.890,-0.028
7.891,-0.028
7.892,-0.036
7.893,-0.041
7.894,-0.042
7.895,-0.044
7.896,-0.043
7.897,-0.041
7.898,-0.043
7.899,-0.041
7.900,-0.042
7.901,-0.041
7.902,-0.038
7.903,-0.041
7.904,-0.042
7.905,-0.044
7.906,-0.047
7.907,-0.044
7.908,-0.047
7.909,-0.047
7.910,-0.049
7.911,-0.047
7.912,-0.044
7.913,-0.041
7.914,-0.045
7.915,-0.044
7.916,-0.041
7.917,-0.038
7.918,-0.038
7.919,-0.038
7.920,-0.039
7.921,-0.041
7.922,-0.038
7.923,-0.038
7.924,-0.041
7.925,-0.041
7.926,-0.038
7.927,-0.034
7.928,-0.036
7.929,-0.034
7.930,-0.038
7.931,-0.041
7.932,-0.041
7.933,-0.041
7.934,-0.039
7.935,-0.041
7.936,-0.044
7.937,-0.047
7.938,-0.049
7.939,-0.050
7.940,-0.048
7.941,-0.050
7.942,-0.050
7.943,-0.050
7.944,-0.048
7.945,-0.050
7.946,-0.052
7.947,-0.053
7.948,-0.050
7.949,-0.047
7.950,-0.048
7.951,-0.047
7.952,-0.050
7.953,-0.047
7.954,-0.051
7.955,-0.050
7.956,-0.046
7.957,-0.041
7.958,-0.043
7.959,-0.041
7.960,-0.039
7.961,-0.038
7.962,-0.038
7.963,-0.038
7.964,-0.036
7.965,-0.038
7.966,-0.034
7.967,-0.031
7.968,-0.025
7.969,-0.019
7.970,-0.008
7.971,0.000
7.972,0.006
7.973,0.016
7.974,0.022
7.975,0.022
7.976,0.022
7.977,0.022
7.978,0.016
7.979,0.019
7.980,0.021
7.981,0.022
7.982,0.028
7.983,0.038
7.984,0.044
7.985,0.047
7.986,0.051
7.987,0.050
7.988,0.049
7.989,0.047
7.990,0.051
7.991,0.053
7.992,0.056
7.993,0.056
7.994,0.056
7.995,0.056
7.996,0.052
7.997,0.050
7.998,0.056
7.999,0.066
8.000,0.075
8.001,0.081
8.002,0.092
8.003,0.097
8.004,0.097
8.005,0.103
8.006,0.109
8.007,0.119
8.008,0.124
8.009,0.134
8.010,0.137
8.011,0.144
8.012,0.153
8.013,0.162
8.014,0.169
8.015,0.175
8.016,0.186
8.017,0.197
8.018,0.198
8.019,0.194
8.020,0.192
8.021,0.187
8.022,0.186
8.023,0.184
8.024,0.183
8.025,0.181
8.026,0.178
8.027,0.178
8.028,0.179
8.029,0.178
8.030,0.173
8.031,0.166
8.032,0.155
8.033,0.147
8.034,0.142
8.035,0.134
8.036,0.128
8.037,0.119
8.038,0.114
8.039,0.106
8.040,0.096
8.041,0.084
8.042,0.070
8.043,0.059
8.044,0.053
8.045,0.050
8.046,0.031
8.047,0.016
8.048,-0.001
8.049,-0.016
8.050,-0.026
8.051,-0.034
8.052,-0.043
8.053,-0.050
8.054,-0.058
8.055,-0.066
8.056,-0.069
8.057,-0.072
8.058,-0.075
8.059,-0.075
8.060,-0.075
8.061,-0.075
8.062,-0.074
8.063,-0.075
8.064,-0.078
8.065,-0.078
8.066,-0.078
8.067,-0.078
8.068,-0.079
8.069,-0.081
8.070,-0.084
8.071,-0.081
8.072,-0.083
8.073,-0.081
8.074,-0.086
8.075,-0.091
8.076,-0.094
8.077,-0.094
8.078,-0.089
8.079,-0.088
8.080,-0.088
8.081,-0.088
8.082,-0.092
8.083,-0.091
8.084,-0.089
8.085,-0.088
8.086,-0.089
8.087,-0.091
8.088,-0.088
8.089,-0.084
8.090,-0.086
8.091,-0.088
8.092,-0.084
8.093,-0.088
8.094,-0.084
8.095,-0.084
8.096,-0.088
8.097,-0.088
8.098,-0.088
8.099,-0.088
8.100,-0.091
8.101,-0.088
8.102,-0.084
8.103,-0.084
8.104,-0.086
8.105,-0.088
8.106,-0.089
8.107,-0.088
8.108,-0.091
8.109,-0.091
8.110,-0.088
8.111,-0.088
8.112,-0.084
8.113,-0.081
8.114,-0.076
8.115,-0.072
8.116,-0.063
8.117,-0.050
8.118,-0.036
8.119,-0.025
8.120,-0.017
8.121,-0.003
8.122,0.023
8.123,0.047
8.124,0.059
8.125,0.062
8.126,0.062
8.127,0.066
8.128,0.066
8.129,0.059
8.130,0.046
8.131,0.041
8.132,0.044
8.133,0.056
8.134,0.074
8.135,0.106
8.136,0.149
8.137,0.200
8.138,0.266
8.139,0.353
8.140,0.467
8.141,0.594
8.142,0.728
8.143,0.875
8.144,1.026
8.145,1.141
8.146,1.207
8.147,1.178
8.148,1.092
8.149,1.012
8.150,0.957
8.151,0.919
8.152,0.870
8.153,0.794
8.154,0.709
8.155,0.641
8.156,0.579
8.157,0.500
8.158,0.407
8.159,0.322
8.160,0.248
8.161,0.187
8.162,0.145
8.163,0.112
8.164,0.074
8.165,0.034
8.166,-0.008
8.167,-0.038
8.168,-0.058
8.169,-0.084
8.170,-0.125
8.171,-0.163
8.172,-0.197
8.173,-0.234
8.174,-0.263
8.175,-0.297
8.176,-0.325
8.177,-0.344
8.178,-0.367
8.179,-0.381
8.180,-0.386
8.181,-0.391
8.182,-0.376
8.183,-0.359
8.184,-0.341
8.185,-0.328
8.186,-0.309
8.187,-0.294
8.188,-0.277
8.189,-0.263
8.190,-0.247
8.191,-0.231
8.192,-0.219
8.193,-0.203
8.194,-0.195
8.195,-0.191
8.196,-0.177
8.197,-0.169
8.198,-0.158
8.199,-0.153
8.200,-0.150
8.201,-0.150
8.202,-0.143
8.203,-0.141
8.204,-0.136
8.205,-0.138
8.206,-0.128
8.207,-0.122
8.208,-0.116
8.209,-0.109
8.210,-0.104
8.211,-0.103
8.212,-0.100
8.213,-0.094
8.214,-0.095
8.215,-0.094
8.216,-0.093
8.217,-0.091
8.218,-0.089
8.219,-0.091
8.220,-0.095
8.221,-0.103
8.222,-0.100
8.223,-0.100
8.224,-0.096
8.225,-0.094
8.226,-0.097
8.227,-0.097
8.228,-0.094
8.229,-0.091
8.230,-0.091
8.231,-0.091
8.232,-0.093
8.233,-0.091
8.234,-0.091
8.235,-0.091
8.236,-0.091
8.237,-0.091
8.238,-0.091
8.239,-0.091
8.240,-0.084
8.241,-0.081
8.242,-0.081
8.243,-0.081
8.244,-0.081
8.245,-0.078
8.246,-0.078
8.247,-0.078
8.248,-0.079
8.249,-0.084
8.250,-0.080
8.251,-0.075
8.252,-0.072
8.253,-0.072
8.254,-0.070
8.255,-0.072
8.256,-0.072
8.257,-0.072
8.258,-0.072
8.259,-0.072
8.260,-0.073
8.261,-0.072
8.262,-0.072
8.263,-0.072
8.264,-0.071
8.265,-0.072
8.266,-0.070
8.267,-0.072
8.268,-0.068
8.269,-0.066
8.270,-0.066
8.271,-0.066
8.272,-0.069
8.273,-0.069
8.274,-0.069
8.275,-0.069
8.276,-0.069
8.277,-0.066
8.278,-0.066
8.279,-0.066
8.280,-0.064
8.281,-0.066
8.282,-0.066
8.283,-0.066
8.284,-0.066
8.285,-0.063
8.286,-0.063
8.287,-0.059
8.288,-0.056
8.289,-0.056
8.290,-0.058
8.291,-0.059
8.292,-0.058
8.293,-0.056
8.294,-0.052
8.295,-0.053
8.296,-0.052
8.297,-0.047
8.298,-0.048
8.299,-0.047
8.300,-0.051
8.301,-0.050
8.302,-0.051
8.303,-0.050
8.304,-0.046
8.305,-0.041
8.306,-0.038
8.307,-0.041
8.308,-0.041
8.309,-0.044
8.310,-0.045
8.311,-0.044
8.312,-0.045
8.313,-0.044
8.314,-0.043
8.315,-0.041
8.316,-0.038
8.317,-0.034
8.318,-0.034
8.319,-0.031
8.320,-0.031
8.321,-0.031
8.322,-0.028
8.323,-0.028
8.324,-0.028
8.325,-0.028
8.326,-0.032
8.327,-0.031
8.328,-0.027
8.329,-0.022
8.330,-0.025
8.331,-0.028
8.332,-0.026
8.333,-0.028
8.334,-0.026
8.335,-0.028
8.336,-0.026
8.337,-0.028
8.338,-0.027
8.339,-0.025
8.340,-0.025
8.341,-0.025
8.342,-0.025
8.343,-0.025
8.344,-0.022
8.345,-0.019
8.346,-0.018
8.347,-0.016
8.348,-0.017
8.349,-0.016
8.350,-0.016
8.351,-0.013
8.352,-0.011
8.353,-0.009
8.354,-0.009
8.355,-0.009
8.356,-0.011
8.357,-0.009
8.358,-0.008
8.359,0.000
8.360,0.001
8.361,0.003
8.362,0.005
8.363,0.003
8.364,0.000
8.365,-0.003
8.366,-0.006
8.367,-0.009
8.368,-0.009
8.369,-0.009
8.370,-0.011
8.371,-0.013
8.372,-0.009
8.373,-0.009
8.374,-0.013
8.375,-0.009
8.376,-0.016
8.377,-0.016
8.378,-0.013
8.379,-0.016
8.380,-0.013
8.381,-0.016
8.382,-0.008
8.383,-0.003
8.384,-0.005
8.385,0.000
8.386,-0.001
8.387,0.000
8.388,-0.002
8.389,0.003
8.390,0.006
8.391,0.009
8.392,0.011
8.393,0.012
8.394,0.008
8.395,0.006
8.396,0.002
8.397,0.000
8.398,0.000
8.399,-0.003
8.400,-0.001
8.401,-0.003
8.402,-0.003
8.403,-0.003
8.404,-0.004
8.405,-0.006
8.406,0.000
8.407,0.000
8.408,0.001
8.409,0.003
8.410,0.003
8.411,0.003
8.412,0.004
8.413,0.006
8.414,0.005
8.415,0.003
8.416,0.003
8.417,0.003
8.418,0.003
8.419,0.003
8.420,0.002
8.421,0.000
8.422,0.003
8.423,0.000
8.424,0.002
8.425,0.000
8.426,0.001
8.427,0.006
8.428,0.008
8.429,0.006
8.430,0.007
8.431,0.006
8.432,0.009
8.433,0.009
8.434,0.011
8.435,0.016
8.436,0.017
8.437,0.019
8.438,0.021
8.439,0.019
8.440,0.023
8.441,0.025
8.442,0.028
8.443,0.028
8.444,0.028
8.445,0.028
8.446,0.030
8.447,0.028
8.448,0.027
8.449,0.028
8.450,0.028
8.451,0.028
8.452,0.032
8.453,0.031
8.454,0.030
8.455,0.028
8.456,0.032
8.457,0.034
8.458,0.036
8.459,0.034
8.460,0.036
8.461,0.038
8.462,0.038
8.463,0.038
8.464,0.039
8.465,0.041
8.466,0.044
8.467,0.047
8.468,0.047
8.469,0.047
8.470,0.042
8.471,0.038
8.472,0.042
8.473,0.044
8.474,0.044
8.475,0.044
8.476,0.044
8.477,0.044
8.478,0.045
8.479,0.047
8.480,0.044
8.481,0.044
8.482,0.044
8.483,0.044
8.484,0.045
8.485,0.041
8.486,0.039
8.487,0.031
8.488,0.028
8.489,0.028
8.490,0.028
8.491,0.025
8.492,0.025
8.493,0.025
8.494,0.019
8.495,0.016
8.496,0.012
8.497,0.006
8.498,0.002
8.499,0.000
8.500,0.003
8.501,0.000
8.502,0.000
8.503,0.003
8.504,0.003
8.505,0.003
8.506,0.001
8.507,0.003
8.508,0.000
8.509,-0.003
8.510,-0.008
8.511,-0.009
8.512,-0.006
8.513,-0.006
8.514,-0.011
8.515,-0.013
8.516,-0.013
8.517,-0.009
8.518,-0.009
8.519,-0.013
8.520,-0.014
8.521,-0.016
8.522,-0.018
8.523,-0.016
8.524,-0.019
8.525,-0.019
8.526,-0.020
8.527,-0.025
8.528,-0.025
8.529,-0.022
8.530,-0.021
8.531,-0.019
8.532,-0.020
8.533,-0.022
8.534,-0.022
8.535,-0.022
8.536,-0.022
8.537,-0.025
8.538,-0.025
8.539,-0.028
8.540,-0.026
8.541,-0.028
8.542,-0.031
8.543,-0.031
8.544,-0.031
8.545,-0.031
8.546,-0.032
8.547,-0.031
8.548,-0.031
8.549,-0.034
8.550,-0.034
8.551,-0.034
8.552,-0.036
8.553,-0.034
8.554,-0.036
8.555,-0.034
8.556,-0.034
8.557,-0.031
8.558,-0.036
8.559,-0.038
8.560,-0.042
8.561,-0.047
8.562,-0.048
8.563,-0.050
8.564,-0.053
8.565,-0.056
8.566,-0.056
8.567,-0.056
8.568,-0.053
8.569,-0.050
8.570,-0.053
8.571,-0.053
8.572,-0.050
8.573,-0.047
8.574,-0.047
8.575,-0.050
8.576,-0.051
8.577,-0.053
8.578,-0.046
8.579,-0.044
8.580,-0.048
8.581,-0.056
8.582,-0.058
8.583,-0.056
8.584,-0.056
8.585,-0.056
8.586,-0.056
8.587,-0.056
8.588,-0.053
8.589,-0.050
8.590,-0.052
8.591,-0.050
8.592,-0.053
8.593,-0.053
8.594,-0.054
8.595,-0.056
8.596,-0.059
8.597,-0.059
8.598,-0.064
8.599,-0.066
8.600,-0.066
8.601,-0.069
8.602,-0.069
8.603,-0.069
8.604,-0.068
8.605,-0.066
8.606,-0.064
8.607,-0.066
8.608,-0.072
8.609,-0.075
8.610,-0.078
8.611,-0.078
8.612,-0.075
8.613,-0.078
8.614,-0.079
8.615,-0.081
8.616,-0.078
8.617,-0.075
8.618,-0.072
8.619,-0.075
8.620,-0.075
8.621,-0.075
8.622,-0.075
8.623,-0.075
8.624,-0.074
8.625,-0.075
8.626,-0.075
8.627,-0.075
8.628,-0.075
8.629,-0.078
8.630,-0.088
8.631,-0.091
8.632,-0.084
8.633,-0.081
8.634,-0.080
8.635,-0.075
8.636,-0.078
8.637,-0.075
8.638,-0.079
8.639,-0.078
8.640,-0.074
8.641,-0.072
8.642,-0.072
8.643,-0.072
8.644,-0.071
8.645,-0.069
8.646,-0.068
8.647,-0.069
8.648,-0.070
8.649,-0.072
8.650,-0.066
8.651,-0.059
8.652,-0.063
8.653,-0.063
8.654,-0.064
8.655,-0.069
8.656,-0.066
8.657,-0.069
8.658,-0.069
8.659,-0.069
8.660,-0.067
8.661,-0.069
8.662,-0.069
8.663,-0.072
8.664,-0.073
8.665,-0.078
8.666,-0.079
8.667,-0.081
8.668,-0.080
8.669,-0.078
8.670,-0.077
8.671,-0.075
8.672,-0.069
8.673,-0.063
8.674,-0.067
8.675,-0.069
8.676,-0.067
8.677,-0.072
8.678,-0.072
8.679,-0.072
8.680,-0.073
8.681,-0.075
8.682,-0.074
8.683,-0.069
8.684,-0.068
8.685,-0.066
8.686,-0.064
8.687,-0.066
8.688,-0.070
8.689,-0.069
8.690,-0.070
8.691,-0.072
8.692,-0.075
8.693,-0.075
8.694,-0.072
8.695,-0.072
8.696,-0.074
8.697,-0.072
8.698,-0.073
8.699,-0.075
8.700,-0.071
8.701,-0.072
8.702,-0.069
8.703,-0.072
8.704,-0.070
8.705,-0.072
8.706,-0.071
8.707,-0.072
8.708,-0.069
8.709,-0.063
8.710,-0.059
8.711,-0.056
8.712,-0.053
8.713,-0.050
8.714,-0.051
8.715,-0.050
8.716,-0.047
8.717,-0.038
8.718,-0.027
8.719,-0.016
8.720,-0.009
8.721,-0.006
8.722,-0.001
8.723,0.003
8.724,0.002
8.725,0.003
8.726,0.007
8.727,0.006
8.728,0.017
8.729,0.025
8.730,0.025
8.731,0.025
8.732,0.034
8.733,0.044
8.734,0.050
8.735,0.056
8.736,0.053
8.737,0.053
8.738,0.052
8.739,0.053
8.740,0.052
8.741,0.053
8.742,0.053
8.743,0.053
8.744,0.052
8.745,0.047
8.746,0.047
8.747,0.050
8.748,0.053
8.749,0.056
8.750,0.058
8.751,0.066
8.752,0.072
8.753,0.075
8.754,0.075
8.755,0.078
8.756,0.095
8.757,0.106
8.758,0.116
8.759,0.122
8.760,0.136
8.761,0.144
8.762,0.153
8.763,0.166
8.764,0.174
8.765,0.175
8.766,0.179
8.767,0.181
8.768,0.176
8.769,0.178
8.770,0.172
8.771,0.166
8.772,0.164
8.773,0.166
8.774,0.167
8.775,0.166
8.776,0.166
8.777,0.166
8.778,0.161
8.779,0.153
8.780,0.147
8.781,0.141
8.782,0.137
8.783,0.137
8.784,0.130
8.785,0.125
8.786,0.119
8.787,0.109
8.788,0.096
8.789,0.084
8.790,0.075
8.791,0.059
8.792,0.042
8.793,0.025
8.794,0.020
8.795,0.012
8.796,0.004
8.797,-0.009
8.798,-0.022
8.799,-0.031
8.800,-0.038
8.801,-0.047
8.802,-0.061
8.803,-0.072
8.804,-0.079
8.805,-0.084
8.806,-0.084
8.807,-0.084
8.808,-0.086
8.809,-0.088
8.810,-0.091
8.811,-0.094
8.812,-0.093
8.813,-0.091
8.814,-0.091
8.815,-0.091
8.816,-0.092
8.817,-0.094
8.818,-0.094
8.819,-0.097
8.820,-0.097
8.821,-0.103
8.822,-0.102
8.823,-0.103
8.824,-0.108
8.825,-0.109
8.826,-0.106
8.827,-0.106
8.828,-0.108
8.829,-0.106
8.830,-0.105
8.831,-0.106
8.832,-0.104
8.833,-0.106
8.834,-0.105
8.835,-0.103
8.836,-0.100
8.837,-0.094
8.838,-0.086
8.839,-0.081
8.840,-0.083
8.841,-0.081
8.842,-0.089
8.843,-0.091
8.844,-0.091
8.845,-0.094
8.846,-0.094
8.847,-0.094
8.848,-0.093
8.849,-0.094
8.850,-0.094
8.851,-0.094
8.852,-0.094
8.853,-0.094
8.854,-0.093
8.855,-0.091
8.856,-0.086
8.857,-0.088
8.858,-0.089
8.859,-0.088
8.860,-0.091
8.861,-0.091
8.862,-0.088
8.863,-0.081
8.864,-0.078
8.865,-0.072
8.866,-0.058
8.867,-0.038
8.868,-0.019
8.869,-0.003
8.870,0.017
8.871,0.041
8.872,0.061
8.873,0.078
8.874,0.084
8.875,0.081
8.876,0.082
8.877,0.081
8.878,0.075
8.879,0.072
8.880,0.069
8.881,0.072
8.882,0.087
8.883,0.112
8.884,0.157
8.885,0.209
8.886,0.267
8.887,0.337
8.888,0.428
8.889,0.544
8.890,0.671
8.891,0.803
8.892,0.961
8.893,1.112
8.894,1.245
8.895,1.328
8.896,1.303
8.897,1.222
8.898,1.128
8.899,1.062
8.900,1.022
8.901,0.969
8.902,0.881
8.903,0.787
8.904,0.708
8.905,0.641
8.906,0.555
8.907,0.450
8.908,0.346
8.909,0.259
8.910,0.184
8.911,0.128
8.912,0.080
8.913,0.031
8.914,-0.011
8.915,-0.056
8.916,-0.088
8.917,-0.113
8.918,-0.142
8.919,-0.181
8.920,-0.217
8.921,-0.244
8.922,-0.271
8.923,-0.291
8.924,-0.322
8.925,-0.350
8.926,-0.367
8.927,-0.378
8.928,-0.384
8.929,-0.381
8.930,-0.372
8.931,-0.356
8.932,-0.336
8.933,-0.312
8.934,-0.298
8.935,-0.284
8.936,-0.273
8.937,-0.263
8.938,-0.252
8.939,-0.234
8.940,-0.216
8.941,-0.203
8.942,-0.191
8.943,-0.178
8.944,-0.169
8.945,-0.159
8.946,-0.156
8.947,-0.150
8.948,-0.153
8.949,-0.150
8.950,-0.144
8.951,-0.134
8.952,-0.134
8.953,-0.128
8.954,-0.131
8.955,-0.128
8.956,-0.122
8.957,-0.116
8.958,-0.116
8.959,-0.113
8.960,-0.111
8.961,-0.113
8.962,-0.105
8.963,-0.100
8.964,-0.096
8.965,-0.094
8.966,-0.094
8.967,-0.094
8.968,-0.096
8.969,-0.094
8.970,-0.098
8.971,-0.097
8.972,-0.097
8.973,-0.094
8.974,-0.094
8.975,-0.094
8.976,-0.092
8.977,-0.091
8.978,-0.086
8.979,-0.084
8.980,-0.084
8.981,-0.088
8.982,-0.089
8.983,-0.091
8.984,-0.089
8.985,-0.088
8.986,-0.088
8.987,-0.088
8.988,-0.089
8.989,-0.088
8.990,-0.088
8.991,-0.088
8.992,-0.089
8.993,-0.091
8.994,-0.086
8.995,-0.084
8.996,-0.084
8.997,-0.084
8.998,-0.089
8.999,-0.088
9.000,-0.084
9.001,-0.084
9.002,-0.089
9.003,-0.088
9.004,-0.086
9.005,-0.084
9.006,-0.080
9.007,-0.075
9.008,-0.078
9.009,-0.081
9.010,-0.077
9.011,-0.075
9.012,-0.074
9.013,-0.072
9.014,-0.076
9.015,-0.075
9.016,-0.074
9.017,-0.069
9.018,-0.069
9.019,-0.069
9.020,-0.072
9.021,-0.078
9.022,-0.077
9.023,-0.075
9.024,-0.075
9.025,-0.075
9.026,-0.071
9.027,-0.069
9.028,-0.070
9.029,-0.069
9.030,-0.069
9.031,-0.069
9.032,-0.069
9.033,-0.069
9.034,-0.066
9.035,-0.069
9.036,-0.072
9.037,-0.072
9.038,-0.072
9.039,-0.072
9.040,-0.072
9.041,-0.072
9.042,-0.073
9.043,-0.072
9.044,-0.075
9.045,-0.075
9.046,-0.071
9.047,-0.069
9.048,-0.066
9.049,-0.069
9.050,-0.064
9.051,-0.063
9.052,-0.058
9.053,-0.056
9.054,-0.061
9.055,-0.063
9.056,-0.066
9.057,-0.063
9.058,-0.061
9.059,-0.059
9.060,-0.056
9.061,-0.056
9.062,-0.049
9.063,-0.044
9.064,-0.048
9.065,-0.050
9.066,-0.048
9.067,-0.050
9.068,-0.046
9.069,-0.044
9.070,-0.044
9.071,-0.041
9.072,-0.041
9.073,-0.041
9.074,-0.044
9.075,-0.047
9.076,-0.042
9.077,-0.044
9.078,-0.043
9.079,-0.041
9.080,-0.042
9.081,-0.041
9.082,-0.039
9.083,-0.034
9.084,-0.033
9.085,-0.028
9.086,-0.028
9.087,-0.028
9.088,-0.028
9.089,-0.028
9.090,-0.028
9.091,-0.028
9.092,-0.027
9.093,-0.022
9.094,-0.016
9.095,-0.013
9.096,-0.013
9.097,-0.013
9.098,-0.008
9.099,-0.006
9.100,-0.003
9.101,-0.003
9.102,-0.003
9.103,-0.003
9.104,-0.006
9.105,-0.009
9.106,-0.006
9.107,-0.009
9.108,-0.008
9.109,-0.009
9.110,-0.009
9.111,-0.006
9.112,-0.003
9.113,0.000
9.114,-0.001
9.115,-0.003
9.116,-0.002
9.117,0.000
9.118,0.001
9.119,0.003
9.120,0.004
9.121,0.009
9.122,0.014
9.123,0.016
9.124,0.016
9.125,0.009
9.126,0.009
9.127,0.009
9.128,0.007
9.129,0.012
9.130,0.005
9.131,0.003
9.132,0.003
9.133,0.000
9.134,0.004
9.135,0.006
9.136,0.009
9.137,0.006
9.138,0.008
9.139,0.006
9.140,0.006
9.141,0.006
9.142,0.006
9.143,0.003
9.144,0.003
9.145,0.003
9.146,0.006
9.147,0.006
9.148,0.002
9.149,0.003
9.150,0.006
9.151,0.009
9.152,0.009
9.153,0.009
9.154,0.008
9.155,0.009
9.156,0.006
9.157,0.006
9.158,0.007
9.159,0.009
9.160,0.009
9.161,0.009
9.162,0.011
9.163,0.012
9.164,0.011
9.165,0.009
9.166,0.009
9.167,0.009
9.168,0.009
9.169,0.009
9.170,0.008
9.171,0.009
9.172,0.009
9.173,0.016
9.174,0.016
9.175,0.016
9.176,0.017
9.177,0.019
9.178,0.020
9.179,0.022
9.180,0.016
9.181,0.016
9.182,0.016
9.183,0.016
9.184,0.019
9.185,0.019
9.186,0.019
9.187,0.022
9.188,0.023
9.189,0.028
9.190,0.028
9.191,0.031
9.192,0.031
9.193,0.031
9.194,0.030
9.195,0.031
9.196,0.032
9.197,0.034
9.198,0.036
9.199,0.034
9.200,0.033
9.201,0.034
9.202,0.034
9.203,0.038
9.204,0.036
9.205,0.038
9.206,0.039
9.207,0.044
9.208,0.044
9.209,0.044
9.210,0.042
9.211,0.041
9.212,0.041
9.213,0.041
9.214,0.038
9.215,0.038
9.216,0.045
9.217,0.050
9.218,0.051
9.219,0.050
9.220,0.046
9.221,0.047
9.222,0.047
9.223,0.047
9.224,0.047
9.225,0.047
9.226,0.047
9.227,0.047
9.228,0.047
9.229,0.044
9.230,0.044
9.231,0.044
9.232,0.047
9.233,0.050
9.234,0.041
9.235,0.041
9.236,0.036
9.237,0.031
9.238,0.031
9.239,0.031
9.240,0.028
9.241,0.028
9.242,0.028
9.243,0.025
9.244,0.026
9.245,0.028
9.246,0.026
9.247,0.025
9.248,0.022
9.249,0.022
9.250,0.019
9.251,0.016
9.252,0.014
9.253,0.012
9.254,0.014
9.255,0.012
9.256,0.011
9.257,0.009
9.258,0.011
9.259,0.009
9.260,0.009
9.261,0.009
9.262,0.009
9.263,0.009
9.264,0.009
9.265,0.009
9.266,0.012
9.267,0.012
9.268,0.009
9.269,0.009
9.270,0.008
9.271,0.003
9.272,0.004
9.273,0.003
9.274,0.003
9.275,0.003
9.276,0.001
9.277,0.003
9.278,0.007
9.279,0.006
9.280,-0.003
9.281,-0.009
9.282,-0.009
9.283,-0.009
9.284,-0.009
9.285,-0.009
9.286,-0.011
9.287,-0.009
9.288,-0.014
9.289,-0.013
9.290,-0.011
9.291,-0.013
9.292,-0.014
9.293,-0.016
9.294,-0.013
9.295,-0.009
9.296,-0.006
9.297,-0.006
9.298,-0.009
9.299,-0.009
9.300,-0.006
9.301,-0.006
9.302,-0.005
9.303,-0.006
9.304,-0.009
9.305,-0.013
9.306,-0.009
9.307,-0.013
9.308,-0.011
9.309,-0.013
9.310,-0.019
9.311,-0.022
9.312,-0.021
9.313,-0.019
9.314,-0.020
9.315,-0.022
9.316,-0.021
9.317,-0.019
9.318,-0.019
9.319,-0.022
9.320,-0.025
9.321,-0.028
9.322,-0.027
9.323,-0.028
9.324,-0.034
9.325,-0.031
9.326,-0.031
9.327,-0.031
9.328,-0.030
9.329,-0.025
9.330,-0.029
9.331,-0.031
9.332,-0.028
9.333,-0.031
9.334,-0.034
9.335,-0.034
9.336,-0.034
9.337,-0.034
9.338,-0.031
9.339,-0.031
9.340,-0.025
9.341,-0.019
9.342,-0.009
9.343,-0.003
9.344,-0.002
9.345,-0.003
9.346,-0.002
9.347,-0.003
9.348,-0.013
9.349,-0.022
9.350,-0.036
9.351,-0.047
9.352,-0.047
9.353,-0.047
9.354,-0.047
9.355,-0.047
9.356,-0.050
9.357,-0.053
9.358,-0.052
9.359,-0.053
9.360,-0.054
9.361,-0.053
9.362,-0.056
9.363,-0.056
9.364,-0.056
9.365,-0.056
9.366,-0.055
9.367,-0.050
9.368,-0.052
9.369,-0.050
9.370,-0.051
9.371,-0.053
9.372,-0.052
9.373,-0.050
9.374,-0.054
9.375,-0.056
9.376,-0.058
9.377,-0.056
9.378,-0.053
9.379,-0.056
9.380,-0.058
9.381,-0.056
9.382,-0.056
9.383,-0.056
9.384,-0.052
9.385,-0.053
9.386,-0.049
9.387,-0.050
9.388,-0.050
9.389,-0.053
9.390,-0.059
9.391,-0.063
9.392,-0.064
9.393,-0.066
9.394,-0.064
9.395,-0.063
9.396,-0.064
9.397,-0.063
9.398,-0.063
9.399,-0.059
9.400,-0.056
9.401,-0.059
9.402,-0.058
9.403,-0.056
9.404,-0.061
9.405,-0.059
9.406,-0.059
9.407,-0.056
9.408,-0.056
9.409,-0.059
9.410,-0.059
9.411,-0.059
9.412,-0.058
9.413,-0.056
9.414,-0.063
9.415,-0.063
9.416,-0.059
9.417,-0.056
9.418,-0.055
9.419,-0.053
9.420,-0.053
9.421,-0.053
9.422,-0.050
9.423,-0.050
9.424,-0.059
9.425,-0.066
9.426,-0.066
9.427,-0.066
9.428,-0.068
9.429,-0.066
9.430,-0.069
9.431,-0.072
9.432,-0.073
9.433,-0.075
9.434,-0.072
9.435,-0.072
9.436,-0.069
9.437,-0.066
9.438,-0.068
9.439,-0.069
9.440,-0.066
9.441,-0.066
9.442,-0.067
9.443,-0.069
9.444,-0.066
9.445,-0.066
9.446,-0.066
9.447,-0.066
9.448,-0.066
9.449,-0.066
9.450,-0.067
9.451,-0.066
9.452,-0.069
9.453,-0.066
9.454,-0.070
9.455,-0.069
9.456,-0.068
9.457,-0.066
9.458,-0.070
9.459,-0.072
9.460,-0.070
9.461,-0.069
9.462,-0.063
9.463,-0.056
9.464,-0.054
9.465,-0.056
9.466,-0.053
9.467,-0.050
9.468,-0.039
9.469,-0.028
9.470,-0.018
9.471,-0.009
9.472,-0.005
9.473,0.003
9.474,0.008
9.475,0.006
9.476,0.006
9.477,0.006
9.478,0.004
9.479,0.012
9.480,0.016
9.481,0.019
9.482,0.019
9.483,0.022
9.484,0.027
9.485,0.028
9.486,0.032
9.487,0.031
9.488,0.032
9.489,0.034
9.490,0.041
9.491,0.044
9.492,0.046
9.493,0.044
9.494,0.042
9.495,0.041
9.496,0.038
9.497,0.038
9.498,0.038
9.499,0.041
9.500,0.050
9.501,0.056
9.502,0.069
9.503,0.075
9.504,0.072
9.505,0.075
9.506,0.087
9.507,0.103
9.508,0.109
9.509,0.122
9.510,0.127
9.511,0.134
9.512,0.142
9.513,0.150
9.514,0.158
9.515,0.166
9.516,0.170
9.517,0.175
9.518,0.176
