'Elapsed time','II'
'seconds','mV'
0.000,-0.017
0.001,0.041
0.002,0.041
0.003,0.044
0.004,0.042
0.005,0.044
0.006,0.044
0.007,0.047
0.008,0.056
0.009,0.062
0.010,0.079
0.011,0.091
0.012,0.094
0.013,0.097
0.014,0.096
0.015,0.091
0.016,0.087
0.017,0.081
0.018,0.078
0.019,0.072
0.020,0.067
0.021,0.059
0.022,0.061
0.023,0.059
0.024,0.053
0.025,0.044
0.026,0.036
0.027,0.028
0.028,0.025
0.029,0.019
0.030,0.017
0.031,0.012
0.032,0.006
0.033,0.000
0.034,-0.009
0.035,-0.016
0.036,-0.022
0.037,-0.028
0.038,-0.031
0.039,-0.031
0.040,-0.030
0.041,-0.028
0.042,-0.022
0.043,-0.019
0.044,-0.025
0.045,-0.031
0.046,-0.036
0.047,-0.044
0.048,-0.043
0.049,-0.044
0.050,-0.047
0.051,-0.047
0.052,-0.046
0.053,-0.047
0.054,-0.047
0.055,-0.050
0.056,-0.052
0.057,-0.053
0.058,-0.058
0.059,-0.063
0.060,-0.064
0.061,-0.063
0.062,-0.061
0.063,-0.059
0.064,-0.064
0.065,-0.066
0.066,-0.067
0.067,-0.069
0.068,-0.069
0.069,-0.066
0.070,-0.066
0.071,-0.066
0.072,-0.066
0.073,-0.069
0.074,-0.070
0.075,-0.072
0.076,-0.071
0.077,-0.072
0.078,-0.069
0.079,-0.069
0.080,-0.071
0.081,-0.072
0.082,-0.073
0.083,-0.072
0.084,-0.069
0.085,-0.069
0.086,-0.064
0.087,-0.056
0.088,-0.058
0.089,-0.056
0.090,-0.058
0.091,-0.059
0.092,-0.061
0.093,-0.063
0.094,-0.064
0.095,-0.066
0.096,-0.070
0.097,-0.072
0.098,-0.076
0.099,-0.081
0.100,-0.081
0.101,-0.087
0.102,-0.094
0.103,-0.097
0.104,-0.106
0.105,-0.113
0.106,-0.113
0.107,-0.113
0.108,-0.105
0.109,-0.097
0.110,-0.087
0.111,-0.078
0.112,-0.061
0.113,-0.047
0.114,-0.023
0.115,0.000
0.116,0.034
0.117,0.072
0.118,0.117
0.119,0.169
0.120,0.225
0.121,0.281
0.122,0.333
0.123,0.381
0.124,0.428
0.125,0.478
0.126,0.537
0.127,0.603
0.128,0.675
0.129,0.744
0.130,0.799
0.131,0.853
0.132,0.912
0.133,0.966
0.134,1.019
0.135,1.066
0.136,1.087
0.137,1.100
0.138,1.095
0.139,1.084
0.140,1.034
0.141,0.975
0.142,0.909
0.143,0.841
0.144,0.759
0.145,0.684
0.146,0.622
0.147,0.556
0.148,0.491
0.149,0.425
0.150,0.364
0.151,0.306
0.152,0.244
0.153,0.178
0.154,0.122
0.155,0.069
0.156,0.039
0.157,0.016
0.158,0.012
0.159,0.012
0.160,0.016
0.161,0.016
0.162,0.006
0.163,-0.006
0.164,-0.022
0.165,-0.038
0.166,-0.049
0.167,-0.056
0.168,-0.063
0.169,-0.072
0.170,-0.077
0.171,-0.078
0.172,-0.077
0.173,-0.075
0.174,-0.072
0.175,-0.066
0.176,-0.063
0.177,-0.059
0.178,-0.059
0.179,-0.059
0.180,-0.056
0.181,-0.053
0.182,-0.047
0.183,-0.041
0.184,-0.039
0.185,-0.034
0.186,-0.034
0.187,-0.034
0.188,-0.034
0.189,-0.034
0.190,-0.036
0.191,-0.031
0.192,-0.038
0.193,-0.041
0.194,-0.044
0.195,-0.047
0.196,-0.048
0.197,-0.053
0.198,-0.059
0.199,-0.059
0.200,-0.061
0.201,-0.059
0.202,-0.058
0.203,-0.056
0.204,-0.058
0.205,-0.059
0.206,-0.056
0.207,-0.056
0.208,-0.059
0.209,-0.063
0.210,-0.064
0.211,-0.063
0.212,-0.059
0.213,-0.059
0.214,-0.059
0.215,-0.056
0.216,-0.055
0.217,-0.053
0.218,-0.053
0.219,-0.053
0.220,-0.054
0.221,-0.056
0.222,-0.055
0.223,-0.053
0.224,-0.053
0.225,-0.053
0.226,-0.053
0.227,-0.056
0.228,-0.056
0.229,-0.053
0.230,-0.056
0.231,-0.053
0.232,-0.055
0.233,-0.056
0.234,-0.058
0.235,-0.056
0.236,-0.056
0.237,-0.059
0.238,-0.058
0.239,-0.059
0.240,-0.056
0.241,-0.056
0.242,-0.059
0.243,-0.059
0.244,-0.061
0.245,-0.063
0.246,-0.061
0.247,-0.059
0.248,-0.058
0.249,-0.059
0.250,-0.058
0.251,-0.056
0.252,-0.059
0.253,-0.056
0.254,-0.053
0.255,-0.050
0.256,-0.051
0.257,-0.050
0.258,-0.049
0.259,-0.047
0.260,-0.049
0.261,-0.047
0.262,-0.048
0.263,-0.047
0.264,-0.046
0.265,-0.047
0.266,-0.047
0.267,-0.047
0.268,-0.050
0.269,-0.050
0.270,-0.051
0.271,-0.050
0.272,-0.050
0.273,-0.050
0.274,-0.049
0.275,-0.047
0.276,-0.050
0.277,-0.050
0.278,-0.051
0.279,-0.053
0.280,-0.054
0.281,-0.053
0.282,-0.053
0.283,-0.053
0.284,-0.050
0.285,-0.050
0.286,-0.048
0.287,-0.047
0.288,-0.051
0.289,-0.053
0.290,-0.050
0.291,-0.053
0.292,-0.053
0.293,-0.053
0.294,-0.054
0.295,-0.053
0.296,-0.053
0.297,-0.053
0.298,-0.047
0.299,-0.047
0.300,-0.044
0.301,-0.041
0.302,-0.041
0.303,-0.041
0.304,-0.042
0.305,-0.041
0.306,-0.041
0.307,-0.041
0.308,-0.042
0.309,-0.041
0.310,-0.042
0.311,-0.047
0.312,-0.044
0.313,-0.047
0.314,-0.050
0.315,-0.050
0.316,-0.053
0.317,-0.053
0.318,-0.047
0.319,-0.044
0.320,-0.045
0.321,-0.047
0.322,-0.050
0.323,-0.053
0.324,-0.052
0.325,-0.050
0.326,-0.050
0.327,-0.044
0.328,-0.044
0.329,-0.044
0.330,-0.045
0.331,-0.047
0.332,-0.047
0.333,-0.053
0.334,-0.051
0.335,-0.050
0.336,-0.050
0.337,-0.050
0.338,-0.047
0.339,-0.044
0.340,-0.043
0.341,-0.041
0.342,-0.038
0.343,-0.034
0.344,-0.036
0.345,-0.038
0.346,-0.034
0.347,-0.034
0.348,-0.034
0.349,-0.031
0.350,-0.034
0.351,-0.034
0.352,-0.039
0.353,-0.038
0.354,-0.036
0.355,-0.034
0.356,-0.036
0.357,-0.034
0.358,-0.034
0.359,-0.034
0.360,-0.034
0.361,-0.034
0.362,-0.034
0.363,-0.034
0.364,-0.036
0.365,-0.034
0.366,-0.033
0.367,-0.034
0.368,-0.034
0.369,-0.034
0.370,-0.031
0.371,-0.034
0.372,-0.033
0.373,-0.034
0.374,-0.034
0.375,-0.034
0.376,-0.034
0.377,-0.031
0.378,-0.031
0.379,-0.031
0.380,-0.030
0.381,-0.031
0.382,-0.033
0.383,-0.034
0.384,-0.036
0.385,-0.038
0.386,-0.036
0.387,-0.034
0.388,-0.036
0.389,-0.038
0.390,-0.044
0.391,-0.044
0.392,-0.043
0.393,-0.044
0.394,-0.042
0.395,-0.047
0.396,-0.045
0.397,-0.047
0.398,-0.046
0.399,-0.044
0.400,-0.043
0.401,-0.041
0.402,-0.041
0.403,-0.041
0.404,-0.038
0.405,-0.034
0.406,-0.034
0.407,-0.034
0.408,-0.036
0.409,-0.034
0.410,-0.036
0.411,-0.038
0.412,-0.034
0.413,-0.034
0.414,-0.036
0.415,-0.034
0.416,-0.034
0.417,-0.034
0.418,-0.039
0.419,-0.044
0.420,-0.044
0.421,-0.044
0.422,-0.045
0.423,-0.047
0.424,-0.045
0.425,-0.047
0.426,-0.048
0.427,-0.047
0.428,-0.043
0.429,-0.038
0.430,-0.038
0.431,-0.038
0.432,-0.038
0.433,-0.038
0.434,-0.038
0.435,-0.034
0.436,-0.034
0.437,-0.031
0.438,-0.029
0.439,-0.028
0.440,-0.029
0.441,-0.028
0.442,-0.028
0.443,-0.025
0.444,-0.025
0.445,-0.022
0.446,-0.017
0.447,-0.016
0.448,-0.017
0.449,-0.016
0.450,-0.016
0.451,-0.013
0.452,-0.009
0.453,-0.009
0.454,-0.011
0.455,-0.009
0.456,-0.009
0.457,-0.006
0.458,-0.005
0.459,0.000
0.460,0.002
0.461,0.003
0.462,0.002
0.463,0.003
0.464,0.005
0.465,0.006
0.466,0.009
0.467,0.009
0.468,0.009
0.469,0.009
0.470,0.014
0.471,0.019
0.472,0.023
0.473,0.025
0.474,0.028
0.475,0.031
0.476,0.030
0.477,0.031
0.478,0.031
0.479,0.034
0.480,0.034
0.481,0.034
0.482,0.036
0.483,0.034
0.484,0.036
0.485,0.037
0.486,0.034
0.487,0.034
0.488,0.033
0.489,0.034
0.490,0.034
0.491,0.034
0.492,0.036
0.493,0.034
0.494,0.033
0.495,0.031
0.496,0.029
0.497,0.031
0.498,0.031
0.499,0.031
0.500,0.028
0.501,0.028
0.502,0.025
0.503,0.025
0.504,0.026
0.505,0.025
0.506,0.025
0.507,0.025
0.508,0.022
0.509,0.022
0.510,0.019
0.511,0.016
0.512,0.014
0.513,0.009
0.514,0.009
0.515,0.009
0.516,0.009
0.517,0.009
0.518,0.009
0.519,0.009
0.520,0.009
0.521,0.009
0.522,0.009
0.523,0.009
0.524,0.006
0.525,0.003
0.526,0.003
0.527,0.000
0.528,0.002
0.529,0.000
0.530,0.000
0.531,-0.003
0.532,-0.004
0.533,-0.006
0.534,-0.008
0.535,-0.009
0.536,-0.008
0.537,-0.009
0.538,-0.013
0.539,-0.013
0.540,-0.016
0.541,-0.016
0.542,-0.014
0.543,-0.009
0.544,-0.009
0.545,-0.006
0.546,-0.006
0.547,-0.006
0.548,-0.006
0.549,-0.006
0.550,-0.009
0.551,-0.009
0.552,-0.008
0.553,-0.006
0.554,-0.006
0.555,-0.006
0.556,-0.008
0.557,-0.006
0.558,-0.008
0.559,-0.006
0.560,-0.011
0.561,-0.009
0.562,-0.005
0.563,-0.003
0.564,-0.003
0.565,-0.006
0.566,-0.005
0.567,-0.006
0.568,-0.004
0.569,-0.006
0.570,-0.006
0.571,-0.009
0.572,-0.006
0.573,-0.003
0.574,-0.001
0.575,-0.003
0.576,-0.008
0.577,-0.013
0.578,-0.011
0.579,-0.013
0.580,-0.014
0.581,-0.013
0.582,-0.013
0.583,-0.013
0.584,-0.011
0.585,-0.013
0.586,-0.014
0.587,-0.016
0.588,-0.016
0.589,-0.016
0.590,-0.016
0.591,-0.013
0.592,-0.016
0.593,-0.016
0.594,-0.017
0.595,-0.019
0.596,-0.017
0.597,-0.019
0.598,-0.019
0.599,-0.019
0.600,-0.017
0.601,-0.019
0.602,-0.017
0.603,-0.019
0.604,-0.016
0.605,-0.013
0.606,-0.013
0.607,-0.013
0.608,-0.011
0.609,-0.013
0.610,-0.016
0.611,-0.022
0.612,-0.020
0.613,-0.022
0.614,-0.026
0.615,-0.025
0.616,-0.028
0.617,-0.028
0.618,-0.029
0.619,-0.031
0.620,-0.033
0.621,-0.034
0.622,-0.034
0.623,-0.034
0.624,-0.033
0.625,-0.034
0.626,-0.036
0.627,-0.034
0.628,-0.034
0.629,-0.034
0.630,-0.033
0.631,-0.034
0.632,-0.031
0.633,-0.031
0.634,-0.029
0.635,-0.031
0.636,-0.031
0.637,-0.034
0.638,-0.036
0.639,-0.038
0.640,-0.036
0.641,-0.034
0.642,-0.036
0.643,-0.038
0.644,-0.038
0.645,-0.038
0.646,-0.041
0.647,-0.041
0.648,-0.041
0.649,-0.041
0.650,-0.038
0.651,-0.038
0.652,-0.038
0.653,-0.038
0.654,-0.041
0.655,-0.044
0.656,-0.044
0.657,-0.044
0.658,-0.047
0.659,-0.047
0.660,-0.048
0.661,-0.047
0.662,-0.047
0.663,-0.047
0.664,-0.046
0.665,-0.047
0.666,-0.046
0.667,-0.044
0.668,-0.042
0.669,-0.047
0.670,-0.047
0.671,-0.047
0.672,-0.044
0.673,-0.041
0.674,-0.044
0.675,-0.044
0.676,-0.047
0.677,-0.050
0.678,-0.053
0.679,-0.053
0.680,-0.053
0.681,-0.053
0.682,-0.053
0.683,-0.056
0.684,-0.054
0.685,-0.056
0.686,-0.056
0.687,-0.056
0.688,-0.053
0.689,-0.050
0.690,-0.050
0.691,-0.050
0.692,-0.049
0.693,-0.050
0.694,-0.048
0.695,-0.050
0.696,-0.050
0.697,-0.050
0.698,-0.053
0.699,-0.053
0.700,-0.050
0.701,-0.050
0.702,-0.053
0.703,-0.056
0.704,-0.059
0.705,-0.059
0.706,-0.056
0.707,-0.056
0.708,-0.058
0.709,-0.056
0.710,-0.058
0.711,-0.056
0.712,-0.056
0.713,-0.056
0.714,-0.058
0.715,-0.059
0.716,-0.063
0.717,-0.066
0.718,-0.067
0.719,-0.072
0.720,-0.071
0.721,-0.069
0.722,-0.069
0.723,-0.066
0.724,-0.069
0.725,-0.069
0.726,-0.069
0.727,-0.069
0.728,-0.068
0.729,-0.066
0.730,-0.061
0.731,-0.056
0.732,-0.058
0.733,-0.059
0.734,-0.058
0.735,-0.056
0.736,-0.052
0.737,-0.047
0.738,-0.047
0.739,-0.047
0.740,-0.050
0.741,-0.053
0.742,-0.053
0.743,-0.053
0.744,-0.054
0.745,-0.056
0.746,-0.056
0.747,-0.056
0.748,-0.055
0.749,-0.056
0.750,-0.058
0.751,-0.059
0.752,-0.059
0.753,-0.059
0.754,-0.059
0.755,-0.059
0.756,-0.056
0.757,-0.059
0.758,-0.058
0.759,-0.056
0.760,-0.061
0.761,-0.059
0.762,-0.061
0.763,-0.063
0.764,-0.063
0.765,-0.059
0.766,-0.059
0.767,-0.063
0.768,-0.061
0.769,-0.059
0.770,-0.059
0.771,-0.059
0.772,-0.064
0.773,-0.066
0.774,-0.059
0.775,-0.059
0.776,-0.061
0.777,-0.056
0.778,-0.058
0.779,-0.059
0.780,-0.061
0.781,-0.063
0.782,-0.063
0.783,-0.066
0.784,-0.067
0.785,-0.066
0.786,-0.067
0.787,-0.066
0.788,-0.066
0.789,-0.066
0.790,-0.066
0.791,-0.066
0.792,-0.063
0.793,-0.066
0.794,-0.064
0.795,-0.063
0.796,-0.058
0.797,-0.056
0.798,-0.052
0.799,-0.047
0.800,-0.043
0.801,-0.034
0.802,-0.031
0.803,-0.028
0.804,-0.029
0.805,-0.028
0.806,-0.028
0.807,-0.031
0.808,-0.024
0.809,-0.019
0.810,-0.009
0.811,0.000
0.812,0.012
0.813,0.022
0.814,0.021
0.815,0.019
0.816,0.021
0.817,0.016
0.818,0.011
0.819,0.009
0.820,0.006
0.821,0.006
0.822,0.006
0.823,0.006
0.824,0.011
0.825,0.019
0.826,0.020
0.827,0.025
0.828,0.027
0.829,0.028
0.830,0.032
0.831,0.034
0.832,0.041
0.833,0.044
0.834,0.047
0.835,0.047
0.836,0.049
0.837,0.056
0.838,0.064
0.839,0.078
0.840,0.083
0.841,0.084
0.842,0.087
0.843,0.087
0.844,0.087
0.845,0.087
0.846,0.078
0.847,0.072
0.848,0.067
0.849,0.066
0.850,0.056
0.851,0.050
0.852,0.042
0.853,0.037
0.854,0.032
0.855,0.028
0.856,0.022
0.857,0.019
0.858,0.012
0.859,0.009
0.860,0.002
0.861,-0.006
0.862,-0.008
0.863,-0.009
0.864,-0.011
0.865,-0.016
0.866,-0.022
0.867,-0.025
0.868,-0.022
0.869,-0.019
0.870,-0.019
0.871,-0.019
0.872,-0.028
0.873,-0.038
0.874,-0.042
0.875,-0.047
0.876,-0.052
0.877,-0.050
0.878,-0.052
0.879,-0.053
0.880,-0.054
0.881,-0.056
0.882,-0.058
0.883,-0.056
0.884,-0.056
0.885,-0.056
0.886,-0.061
0.887,-0.063
0.888,-0.063
0.889,-0.066
0.890,-0.067
0.891,-0.069
0.892,-0.068
0.893,-0.069
0.894,-0.066
0.895,-0.063
0.896,-0.063
0.897,-0.063
0.898,-0.061
0.899,-0.063
0.900,-0.064
0.901,-0.066
0.902,-0.070
0.903,-0.072
0.904,-0.072
0.905,-0.072
0.906,-0.076
0.907,-0.075
0.908,-0.076
0.909,-0.081
0.910,-0.080
0.911,-0.075
0.912,-0.071
0.913,-0.066
0.914,-0.067
0.915,-0.069
0.916,-0.066
0.917,-0.069
0.918,-0.069
0.919,-0.069
0.920,-0.070
0.921,-0.072
0.922,-0.069
0.923,-0.069
0.924,-0.071
0.925,-0.072
0.926,-0.071
0.927,-0.072
0.928,-0.081
0.929,-0.091
0.930,-0.103
0.931,-0.113
0.932,-0.114
0.933,-0.122
0.934,-0.127
0.935,-0.125
0.936,-0.126
0.937,-0.122
0.938,-0.117
0.939,-0.106
0.940,-0.091
0.941,-0.069
0.942,-0.054
0.943,-0.028
0.944,0.003
0.945,0.041
0.946,0.086
0.947,0.137
0.948,0.186
0.949,0.237
0.950,0.288
0.951,0.337
0.952,0.391
0.953,0.441
0.954,0.495
0.955,0.562
0.956,0.630
0.957,0.703
0.958,0.775
0.959,0.831
0.960,0.883
0.961,0.931
0.962,0.974
0.963,1.016
0.964,1.047
0.965,1.056
0.966,1.061
0.967,1.044
0.968,1.017
0.969,0.956
0.970,0.891
0.971,0.816
0.972,0.745
0.973,0.675
0.974,0.614
0.975,0.559
0.976,0.489
0.977,0.422
0.978,0.359
0.979,0.294
0.980,0.236
0.981,0.178
0.982,0.117
0.983,0.069
0.984,0.023
0.985,0.003
0.986,-0.013
0.987,-0.013
0.988,-0.016
0.989,-0.016
0.990,-0.019
0.991,-0.028
0.992,-0.038
0.993,-0.053
0.994,-0.066
0.995,-0.075
0.996,-0.084
0.997,-0.087
0.998,-0.091
0.999,-0.094
1.000,-0.094
1.001,-0.091
1.002,-0.092
1.003,-0.091
1.004,-0.084
1.005,-0.081
1.006,-0.078
1.007,-0.075
1.008,-0.073
1.009,-0.072
1.010,-0.069
1.011,-0.063
1.012,-0.055
1.013,-0.050
1.014,-0.045
1.015,-0.047
1.016,-0.047
1.017,-0.047
1.018,-0.046
1.019,-0.047
1.020,-0.047
1.021,-0.056
1.022,-0.061
1.023,-0.066
1.024,-0.068
1.025,-0.066
1.026,-0.068
1.027,-0.069
1.028,-0.069
1.029,-0.072
1.030,-0.069
1.031,-0.069
1.032,-0.069
1.033,-0.069
1.034,-0.070
1.035,-0.069
1.036,-0.063
1.037,-0.059
1.038,-0.067
1.039,-0.072
1.040,-0.070
1.041,-0.072
1.042,-0.074
1.043,-0.075
1.044,-0.078
1.045,-0.081
1.046,-0.080
1.047,-0.075
1.048,-0.071
1.049,-0.069
1.050,-0.069
1.051,-0.069
1.052,-0.066
1.053,-0.063
1.054,-0.058
1.055,-0.053
1.056,-0.058
1.057,-0.059
1.058,-0.055
1.059,-0.056
1.060,-0.052
1.061,-0.053
1.062,-0.055
1.063,-0.053
1.064,-0.053
1.065,-0.053
1.066,-0.053
1.067,-0.053
1.068,-0.059
1.069,-0.059
1.070,-0.059
1.071,-0.063
1.072,-0.058
1.073,-0.053
1.074,-0.053
1.075,-0.053
1.076,-0.056
1.077,-0.056
1.078,-0.059
1.079,-0.063
1.080,-0.061
1.081,-0.063
1.082,-0.058
1.083,-0.056
1.084,-0.058
1.085,-0.059
1.086,-0.059
1.087,-0.063
1.088,-0.061
1.089,-0.063
1.090,-0.066
1.091,-0.069
1.092,-0.066
1.093,-0.066
1.094,-0.068
1.095,-0.066
1.096,-0.066
1.097,-0.066
1.098,-0.061
1.099,-0.059
1.100,-0.059
1.101,-0.063
1.102,-0.063
1.103,-0.063
1.104,-0.058
1.105,-0.056
1.106,-0.053
1.107,-0.050
1.108,-0.050
1.109,-0.050
1.110,-0.048
1.111,-0.050
1.112,-0.050
1.113,-0.050
1.114,-0.054
1.115,-0.053
1.116,-0.050
1.117,-0.053
1.118,-0.053
1.119,-0.050
1.120,-0.053
1.121,-0.053
1.122,-0.053
1.123,-0.053
1.124,-0.050
1.125,-0.050
1.126,-0.051
1.127,-0.050
1.128,-0.053
1.129,-0.053
1.130,-0.053
1.131,-0.053
1.132,-0.053
1.133,-0.053
1.134,-0.051
1.135,-0.053
1.136,-0.053
1.137,-0.053
1.138,-0.050
1.139,-0.050
1.140,-0.053
1.141,-0.050
1.142,-0.052
1.143,-0.050
1.144,-0.047
1.145,-0.050
1.146,-0.051
1.147,-0.050
1.148,-0.051
1.149,-0.053
1.150,-0.050
1.151,-0.047
1.152,-0.044
1.153,-0.041
1.154,-0.042
1.155,-0.047
1.156,-0.047
1.157,-0.050
1.158,-0.050
1.159,-0.050
1.160,-0.049
1.161,-0.044
1.162,-0.048
1.163,-0.047
1.164,-0.047
1.165,-0.050
1.166,-0.050
1.167,-0.050
1.168,-0.050
1.169,-0.050
1.170,-0.050
1.171,-0.050
1.172,-0.050
1.173,-0.050
1.174,-0.049
1.175,-0.044
1.176,-0.043
1.177,-0.041
1.178,-0.038
1.179,-0.041
1.180,-0.039
1.181,-0.041
1.182,-0.036
1.183,-0.034
1.184,-0.034
1.185,-0.034
1.186,-0.033
1.187,-0.034
1.188,-0.034
1.189,-0.034
1.190,-0.034
1.191,-0.034
1.192,-0.033
1.193,-0.031
1.194,-0.028
1.195,-0.028
1.196,-0.031
1.197,-0.031
1.198,-0.030
1.199,-0.028
1.200,-0.036
1.201,-0.034
1.202,-0.034
1.203,-0.034
1.204,-0.038
1.205,-0.041
1.206,-0.041
1.207,-0.044
1.208,-0.043
1.209,-0.041
1.210,-0.043
1.211,-0.041
1.212,-0.042
1.213,-0.044
1.214,-0.045
1.215,-0.047
1.216,-0.047
1.217,-0.047
1.218,-0.046
1.219,-0.047
1.220,-0.045
1.221,-0.047
1.222,-0.050
1.223,-0.047
1.224,-0.049
1.225,-0.044
1.226,-0.043
1.227,-0.041
1.228,-0.041
1.229,-0.041
1.230,-0.041
1.231,-0.041
1.232,-0.041
1.233,-0.041
1.234,-0.041
1.235,-0.041
1.236,-0.039
1.237,-0.041
1.238,-0.041
1.239,-0.041
1.240,-0.042
1.241,-0.041
1.242,-0.041
1.243,-0.041
1.244,-0.039
1.245,-0.041
1.246,-0.042
1.247,-0.047
1.248,-0.049
1.249,-0.047
1.250,-0.048
1.251,-0.050
1.252,-0.049
1.253,-0.044
1.254,-0.043
1.255,-0.041
1.256,-0.039
1.257,-0.041
1.258,-0.039
1.259,-0.038
1.260,-0.039
1.261,-0.041
1.262,-0.039
1.263,-0.038
1.264,-0.033
1.265,-0.034
1.266,-0.034
1.267,-0.031
1.268,-0.028
1.269,-0.028
1.270,-0.026
1.271,-0.028
1.272,-0.026
1.273,-0.028
1.274,-0.024
1.275,-0.019
1.276,-0.017
1.277,-0.016
1.278,-0.013
1.279,-0.013
1.280,-0.009
1.281,-0.006
1.282,-0.003
1.283,0.000
1.284,0.003
1.285,0.003
1.286,0.005
1.287,0.003
1.288,0.005
1.289,0.006
1.290,0.012
1.291,0.016
1.292,0.019
1.293,0.022
1.294,0.024
1.295,0.025
1.296,0.028
1.297,0.031
1.298,0.032
1.299,0.037
1.300,0.039
1.301,0.041
1.302,0.044
1.303,0.047
1.304,0.047
1.305,0.047
1.306,0.049
1.307,0.047
1.308,0.049
1.309,0.047
1.310,0.046
1.311,0.047
1.312,0.047
1.313,0.047
1.314,0.048
1.315,0.047
1.316,0.047
1.317,0.047
1.318,0.051
1.319,0.053
1.320,0.056
1.321,0.059
1.322,0.056
1.323,0.056
1.324,0.057
1.325,0.056
1.326,0.056
1.327,0.056
1.328,0.056
1.329,0.053
1.330,0.053
1.331,0.050
1.332,0.049
1.333,0.047
1.334,0.044
1.335,0.044
1.336,0.045
1.337,0.044
1.338,0.042
1.339,0.041
1.340,0.042
1.341,0.044
1.342,0.041
1.343,0.037
1.344,0.034
1.345,0.034
1.346,0.036
1.347,0.037
1.348,0.034
1.349,0.031
1.350,0.030
1.351,0.028
1.352,0.029
1.353,0.028
1.354,0.026
1.355,0.028
1.356,0.024
1.357,0.025
1.358,0.025
1.359,0.025
1.360,0.022
1.361,0.022
1.362,0.022
1.363,0.022
1.364,0.023
1.365,0.025
1.366,0.022
1.367,0.022
1.368,0.022
1.369,0.016
1.370,0.016
1.371,0.016
1.372,0.020
1.373,0.019
1.374,0.017
1.375,0.016
1.376,0.016
1.377,0.016
1.378,0.017
1.379,0.016
1.380,0.014
1.381,0.012
1.382,0.012
1.383,0.012
1.384,0.012
1.385,0.012
1.386,0.016
1.387,0.012
1.388,0.012
1.389,0.009
1.390,0.016
1.391,0.019
1.392,0.014
1.393,0.016
1.394,0.016
1.395,0.016
1.396,0.011
1.397,0.012
1.398,0.014
1.399,0.016
1.400,0.011
1.401,0.009
1.402,0.008
1.403,0.009
1.404,0.011
1.405,0.012
1.406,0.016
1.407,0.019
1.408,0.017
1.409,0.019
1.410,0.021
1.411,0.019
1.412,0.019
1.413,0.019
1.414,0.017
1.415,0.019
1.416,0.019
1.417,0.019
1.418,0.019
1.419,0.019
1.420,0.023
1.421,0.022
1.422,0.022
1.423,0.022
1.424,0.022
1.425,0.022
1.426,0.017
1.427,0.016
1.428,0.016
1.429,0.016
1.430,0.011
1.431,0.012
1.432,0.011
1.433,0.009
1.434,0.009
1.435,0.009
1.436,0.011
1.437,0.012
1.438,0.009
1.439,0.009
1.440,0.003
1.441,0.003
1.442,0.003
1.443,0.000
1.444,0.004
1.445,0.003
1.446,0.002
1.447,0.000
1.448,0.000
1.449,0.000
1.450,-0.001
1.451,-0.003
1.452,0.000
1.453,0.003
1.454,0.000
1.455,-0.003
1.456,-0.004
1.457,-0.006
1.458,-0.002
1.459,0.003
1.460,0.000
1.461,0.000
1.462,-0.004
1.463,-0.003
1.464,-0.006
1.465,-0.009
1.466,-0.013
1.467,-0.013
1.468,-0.006
1.469,0.000
1.470,-0.001
1.471,-0.003
1.472,-0.003
1.473,-0.003
1.474,-0.002
1.475,-0.003
1.476,-0.004
1.477,-0.006
1.478,-0.006
1.479,-0.006
1.480,-0.009
1.481,-0.009
1.482,-0.009
1.483,-0.009
1.484,-0.011
1.485,-0.013
1.486,-0.011
1.487,-0.013
1.488,-0.014
1.489,-0.016
1.490,-0.014
1.491,-0.016
1.492,-0.014
1.493,-0.013
1.494,-0.016
1.495,-0.016
1.496,-0.016
1.497,-0.013
1.498,-0.016
1.499,-0.016
1.500,-0.016
1.501,-0.016
1.502,-0.016
1.503,-0.019
1.504,-0.022
1.505,-0.025
1.506,-0.022
1.507,-0.022
1.508,-0.025
1.509,-0.028
1.510,-0.028
1.511,-0.028
1.512,-0.031
1.513,-0.028
1.514,-0.028
1.515,-0.028
1.516,-0.028
1.517,-0.028
1.518,-0.028
1.519,-0.028
1.520,-0.024
1.521,-0.019
1.522,-0.023
1.523,-0.022
1.524,-0.022
1.525,-0.022
1.526,-0.022
1.527,-0.025
1.528,-0.028
1.529,-0.028
1.530,-0.025
1.531,-0.022
1.532,-0.024
1.533,-0.025
1.534,-0.026
1.535,-0.028
1.536,-0.028
1.537,-0.028
1.538,-0.029
1.539,-0.031
1.540,-0.033
1.541,-0.034
1.542,-0.033
1.543,-0.031
1.544,-0.030
1.545,-0.028
1.546,-0.029
1.547,-0.031
1.548,-0.031
1.549,-0.031
1.550,-0.030
1.551,-0.028
1.552,-0.028
1.553,-0.031
1.554,-0.031
1.555,-0.031
1.556,-0.031
1.557,-0.031
1.558,-0.033
1.559,-0.034
1.560,-0.028
1.561,-0.028
1.562,-0.029
1.563,-0.031
1.564,-0.034
1.565,-0.031
1.566,-0.030
1.567,-0.028
1.568,-0.031
1.569,-0.031
1.570,-0.030
1.571,-0.031
1.572,-0.031
1.573,-0.031
1.574,-0.031
1.575,-0.031
1.576,-0.034
1.577,-0.034
1.578,-0.033
1.579,-0.038
1.580,-0.042
1.581,-0.041
1.582,-0.041
1.583,-0.041
1.584,-0.042
1.585,-0.044
1.586,-0.043
1.587,-0.044
1.588,-0.047
1.589,-0.047
1.590,-0.047
1.591,-0.044
1.592,-0.041
1.593,-0.038
1.594,-0.034
1.595,-0.031
1.596,-0.028
1.597,-0.031
1.598,-0.033
1.599,-0.034
1.600,-0.031
1.601,-0.031
1.602,-0.027
1.603,-0.022
1.604,-0.020
1.605,-0.016
1.606,-0.009
1.607,-0.003
1.608,-0.004
1.609,-0.003
1.610,0.001
1.611,0.003
1.612,0.011
1.613,0.016
1.614,0.023
1.615,0.031
1.616,0.037
1.617,0.041
1.618,0.041
1.619,0.041
1.620,0.042
1.621,0.037
1.622,0.032
1.623,0.031
1.624,0.030
1.625,0.031
1.626,0.036
1.627,0.041
1.628,0.039
1.629,0.041
1.630,0.044
1.631,0.050
1.632,0.057
1.633,0.066
1.634,0.067
1.635,0.066
1.636,0.066
1.637,0.062
1.638,0.066
1.639,0.066
1.640,0.072
1.641,0.084
1.642,0.092
1.643,0.106
1.644,0.111
1.645,0.112
1.646,0.112
1.647,0.109
1.648,0.107
1.649,0.106
1.650,0.100
1.651,0.097
1.652,0.091
1.653,0.087
1.654,0.081
1.655,0.078
1.656,0.072
1.657,0.069
1.658,0.064
1.659,0.059
1.660,0.053
1.661,0.050
1.662,0.041
1.663,0.034
1.664,0.028
1.665,0.022
1.666,0.016
1.667,0.009
1.668,0.006
1.669,0.000
1.670,-0.005
1.671,-0.006
1.672,-0.005
1.673,-0.003
1.674,-0.002
1.675,0.000
1.676,-0.004
1.677,-0.009
1.678,-0.014
1.679,-0.019
1.680,-0.025
1.681,-0.025
1.682,-0.028
1.683,-0.031
1.684,-0.031
1.685,-0.031
1.686,-0.034
1.687,-0.034
1.688,-0.041
1.689,-0.047
1.690,-0.047
1.691,-0.044
1.692,-0.043
1.693,-0.044
1.694,-0.045
1.695,-0.047
1.696,-0.044
1.697,-0.044
1.698,-0.045
1.699,-0.047
1.700,-0.050
1.701,-0.053
1.702,-0.051
1.703,-0.053
1.704,-0.052
1.705,-0.050
1.706,-0.053
1.707,-0.053
1.708,-0.052
1.709,-0.050
1.710,-0.053
1.711,-0.050
1.712,-0.049
1.713,-0.050
1.714,-0.053
1.715,-0.053
1.716,-0.053
1.717,-0.053
1.718,-0.052
1.719,-0.050
1.720,-0.047
1.721,-0.050
1.722,-0.051
1.723,-0.053
1.724,-0.053
1.725,-0.053
1.726,-0.053
1.727,-0.056
1.728,-0.061
1.729,-0.066
1.730,-0.067
1.731,-0.072
1.732,-0.075
1.733,-0.078
1.734,-0.087
1.735,-0.094
1.736,-0.097
1.737,-0.106
1.738,-0.111
1.739,-0.109
1.740,-0.109
1.741,-0.103
1.742,-0.094
1.743,-0.078
1.744,-0.064
1.745,-0.044
1.746,-0.028
1.747,0.000
1.748,0.024
1.749,0.053
1.750,0.094
1.751,0.141
1.752,0.187
1.753,0.237
1.754,0.291
1.755,0.344
1.756,0.395
1.757,0.444
1.758,0.492
1.759,0.553
1.760,0.622
1.761,0.697
1.762,0.766
1.763,0.819
1.764,0.871
1.765,0.919
1.766,0.961
1.767,1.003
1.768,1.045
1.769,1.066
1.770,1.075
1.771,1.062
1.772,1.044
1.773,0.991
1.774,0.925
1.775,0.850
1.776,0.776
1.777,0.703
1.778,0.636
1.779,0.575
1.780,0.505
1.781,0.437
1.782,0.376
1.783,0.312
1.784,0.256
1.785,0.200
1.786,0.134
1.787,0.081
1.788,0.031
1.789,0.006
1.790,-0.013
1.791,-0.016
1.792,-0.017
1.793,-0.016
1.794,-0.013
1.795,-0.016
1.796,-0.021
1.797,-0.031
1.798,-0.046
1.799,-0.056
1.800,-0.069
1.801,-0.075
1.802,-0.081
1.803,-0.087
1.804,-0.089
1.805,-0.087
1.806,-0.091
1.807,-0.091
1.808,-0.089
1.809,-0.091
1.810,-0.084
1.811,-0.078
1.812,-0.075
1.813,-0.072
1.814,-0.068
1.815,-0.059
1.816,-0.054
1.817,-0.053
1.818,-0.046
1.819,-0.044
1.820,-0.044
1.821,-0.044
1.822,-0.044
1.823,-0.047
1.824,-0.044
1.825,-0.050
1.826,-0.052
1.827,-0.053
1.828,-0.059
1.829,-0.063
1.830,-0.066
1.831,-0.069
1.832,-0.067
1.833,-0.069
1.834,-0.066
1.835,-0.066
1.836,-0.059
1.837,-0.053
1.838,-0.054
1.839,-0.053
1.840,-0.053
1.841,-0.056
1.842,-0.061
1.843,-0.063
1.844,-0.058
1.845,-0.056
1.846,-0.058
1.847,-0.059
1.848,-0.061
1.849,-0.063
1.850,-0.063
1.851,-0.059
1.852,-0.058
1.853,-0.059
1.854,-0.059
1.855,-0.059
1.856,-0.061
1.857,-0.063
1.858,-0.061
1.859,-0.059
1.860,-0.063
1.861,-0.063
1.862,-0.059
1.863,-0.063
1.864,-0.058
1.865,-0.059
1.866,-0.063
1.867,-0.063
1.868,-0.063
1.869,-0.063
1.870,-0.059
1.871,-0.056
1.872,-0.061
1.873,-0.059
1.874,-0.061
1.875,-0.066
1.876,-0.067
1.877,-0.069
1.878,-0.069
1.879,-0.069
1.880,-0.070
1.881,-0.069
1.882,-0.069
1.883,-0.069
1.884,-0.069
1.885,-0.072
1.886,-0.066
1.887,-0.063
1.888,-0.061
1.889,-0.059
1.890,-0.055
1.891,-0.053
1.892,-0.050
1.893,-0.050
1.894,-0.051
1.895,-0.053
1.896,-0.051
1.897,-0.053
1.898,-0.055
1.899,-0.053
1.900,-0.054
1.901,-0.056
1.902,-0.056
1.903,-0.059
1.904,-0.058
1.905,-0.059
1.906,-0.059
1.907,-0.059
1.908,-0.058
1.909,-0.059
1.910,-0.063
1.911,-0.066
1.912,-0.067
1.913,-0.069
1.914,-0.063
1.915,-0.059
1.916,-0.059
1.917,-0.059
1.918,-0.063
1.919,-0.059
1.920,-0.056
1.921,-0.059
1.922,-0.058
1.923,-0.053
1.924,-0.056
1.925,-0.056
1.926,-0.058
1.927,-0.059
1.928,-0.056
1.929,-0.056
1.930,-0.053
1.931,-0.047
1.932,-0.049
1.933,-0.047
1.934,-0.048
1.935,-0.050
1.936,-0.053
1.937,-0.056
1.938,-0.054
1.939,-0.056
1.940,-0.058
1.941,-0.059
1.942,-0.055
1.943,-0.053
1.944,-0.056
1.945,-0.053
1.946,-0.056
1.947,-0.056
1.948,-0.053
1.949,-0.056
1.950,-0.058
1.951,-0.056
1.952,-0.053
1.953,-0.050
1.954,-0.050
1.955,-0.050
1.956,-0.051
1.957,-0.053
1.958,-0.052
1.959,-0.053
1.960,-0.050
1.961,-0.050
1.962,-0.050
1.963,-0.050
1.964,-0.051
1.965,-0.050
1.966,-0.054
1.967,-0.053
1.968,-0.050
1.969,-0.050
1.970,-0.050
1.971,-0.050
1.972,-0.050
1.973,-0.050
1.974,-0.050
1.975,-0.050
1.976,-0.050
1.977,-0.050
1.978,-0.050
1.979,-0.047
1.980,-0.047
1.981,-0.047
1.982,-0.044
1.983,-0.047
1.984,-0.047
1.985,-0.050
1.986,-0.046
1.987,-0.044
1.988,-0.045
1.989,-0.047
1.990,-0.044
1.991,-0.044
1.992,-0.044
1.993,-0.044
1.994,-0.045
1.995,-0.047
1.996,-0.047
1.997,-0.047
1.998,-0.045
1.999,-0.047
2.000,-0.050
2.001,-0.050
2.002,-0.049
2.003,-0.047
2.004,-0.050
2.005,-0.044
2.006,-0.043
2.007,-0.041
2.008,-0.039
2.009,-0.038
2.010,-0.036
2.011,-0.038
2.012,-0.041
2.013,-0.044
2.014,-0.046
2.015,-0.044
2.016,-0.044
2.017,-0.044
2.018,-0.044
2.019,-0.044
2.020,-0.047
2.021,-0.050
2.022,-0.049
2.023,-0.050
2.024,-0.044
2.025,-0.041
2.026,-0.043
2.027,-0.038
2.028,-0.042
2.029,-0.041
2.030,-0.039
2.031,-0.038
2.032,-0.039
2.033,-0.041
2.034,-0.044
2.035,-0.047
2.036,-0.047
2.037,-0.047
2.038,-0.046
2.039,-0.044
2.040,-0.041
2.041,-0.041
2.042,-0.042
2.043,-0.044
2.044,-0.045
2.045,-0.044
2.046,-0.044
2.047,-0.044
2.048,-0.041
2.049,-0.041
2.050,-0.038
2.051,-0.038
2.052,-0.042
2.053,-0.044
2.054,-0.044
2.055,-0.044
2.056,-0.044
2.057,-0.041
2.058,-0.041
2.059,-0.041
2.060,-0.039
2.061,-0.041
2.062,-0.041
2.063,-0.041
2.064,-0.041
2.065,-0.041
2.066,-0.041
2.067,-0.041
2.068,-0.036
2.069,-0.038
2.070,-0.039
2.071,-0.038
2.072,-0.033
2.073,-0.031
2.074,-0.028
2.075,-0.028
2.076,-0.024
2.077,-0.022
2.078,-0.022
2.079,-0.022
2.080,-0.022
2.081,-0.022
2.082,-0.019
2.083,-0.019
2.084,-0.016
2.085,-0.013
2.086,-0.013
2.087,-0.013
2.088,-0.008
2.089,-0.006
2.090,-0.003
2.091,-0.003
2.092,0.000
2.093,0.003
2.094,0.006
2.095,0.006
2.096,0.008
2.097,0.009
2.098,0.011
2.099,0.012
2.100,0.011
2.101,0.009
2.102,0.014
2.103,0.022
2.104,0.024
2.105,0.025
2.106,0.025
2.107,0.025
2.108,0.025
2.109,0.025
2.110,0.028
2.111,0.028
2.112,0.030
2.113,0.028
2.114,0.027
2.115,0.028
2.116,0.029
2.117,0.031
2.118,0.032
2.119,0.031
2.120,0.030
2.121,0.028
2.122,0.031
2.123,0.031
2.124,0.032
2.125,0.034
2.126,0.031
2.127,0.031
2.128,0.032
2.129,0.031
2.130,0.030
2.131,0.028
2.132,0.029
2.133,0.028
2.134,0.029
2.135,0.028
2.136,0.028
2.137,0.028
2.138,0.026
2.139,0.028
2.140,0.028
2.141,0.025
2.142,0.025
2.143,0.025
2.144,0.024
2.145,0.022
2.146,0.017
2.147,0.012
2.148,0.009
2.149,0.009
2.150,0.009
2.151,0.009
2.152,0.009
2.153,0.009
2.154,0.009
2.155,0.009
2.156,0.012
2.157,0.012
2.158,0.011
2.159,0.012
2.160,0.006
2.161,0.006
2.162,0.005
2.163,0.003
2.164,0.000
2.165,0.000
2.166,0.000
2.167,0.000
2.168,0.001
2.169,0.003
2.170,-0.003
2.171,-0.006
2.172,-0.003
2.173,-0.006
2.174,-0.003
2.175,0.000
2.176,0.004
2.177,0.003
2.178,0.003
2.179,0.003
2.180,0.003
2.181,0.003
2.182,0.003
2.183,0.000
2.184,-0.003
2.185,-0.006
2.186,-0.006
2.187,-0.006
2.188,-0.005
2.189,-0.003
2.190,-0.001
2.191,-0.006
2.192,-0.005
2.193,-0.006
2.194,-0.004
2.195,-0.006
2.196,-0.011
2.197,-0.009
2.198,-0.008
2.199,-0.006
2.200,-0.011
2.201,-0.009
2.202,-0.008
2.203,-0.006
2.204,-0.009
2.205,-0.009
2.206,-0.011
2.207,-0.009
2.208,-0.009
2.209,-0.009
2.210,-0.008
2.211,-0.006
2.212,-0.011
2.213,-0.013
2.214,-0.011
2.215,-0.013
2.216,-0.013
2.217,-0.013
2.218,-0.014
2.219,-0.013
2.220,-0.013
2.221,-0.013
2.222,-0.013
2.223,-0.013
2.224,-0.009
2.225,-0.013
2.226,-0.011
2.227,-0.009
2.228,-0.008
2.229,-0.006
2.230,-0.011
2.231,-0.013
2.232,-0.013
2.233,-0.013
2.234,-0.016
2.235,-0.013
2.236,-0.011
2.237,-0.009
2.238,-0.009
2.239,-0.009
2.240,-0.009
2.241,-0.009
2.242,-0.011
2.243,-0.009
2.244,-0.014
2.245,-0.013
2.246,-0.011
2.247,-0.013
2.248,-0.009
2.249,-0.013
2.250,-0.013
2.251,-0.013
2.252,-0.014
2.253,-0.016
2.254,-0.017
2.255,-0.019
2.256,-0.019
2.257,-0.019
2.258,-0.019
2.259,-0.019
2.260,-0.022
2.261,-0.025
2.262,-0.025
2.263,-0.025
2.264,-0.027
2.265,-0.025
2.266,-0.029
2.267,-0.028
2.268,-0.027
2.269,-0.025
2.270,-0.028
2.271,-0.028
2.272,-0.028
2.273,-0.028
2.274,-0.028
2.275,-0.028
2.276,-0.029
2.277,-0.031
2.278,-0.030
2.279,-0.031
2.280,-0.031
2.281,-0.031
2.282,-0.033
2.283,-0.034
2.284,-0.041
2.285,-0.044
2.286,-0.044
2.287,-0.044
2.288,-0.043
2.289,-0.041
2.290,-0.039
2.291,-0.041
2.292,-0.041
2.293,-0.041
2.294,-0.039
2.295,-0.041
2.296,-0.042
2.297,-0.044
2.298,-0.046
2.299,-0.044
2.300,-0.043
2.301,-0.038
2.302,-0.042
2.303,-0.044
2.304,-0.045
2.305,-0.047
2.306,-0.046
2.307,-0.047
2.308,-0.047
2.309,-0.047
2.310,-0.046
2.311,-0.047
2.312,-0.046
2.313,-0.044
2.314,-0.044
2.315,-0.044
2.316,-0.048
2.317,-0.047
2.318,-0.047
2.319,-0.047
2.320,-0.047
2.321,-0.047
2.322,-0.047
2.323,-0.047
2.324,-0.048
2.325,-0.050
2.326,-0.054
2.327,-0.053
2.328,-0.052
2.329,-0.050
2.330,-0.049
2.331,-0.050
2.332,-0.051
2.333,-0.050
2.334,-0.049
2.335,-0.047
2.336,-0.046
2.337,-0.047
2.338,-0.047
2.339,-0.047
2.340,-0.051
2.341,-0.053
2.342,-0.051
2.343,-0.053
2.344,-0.049
2.345,-0.050
2.346,-0.053
2.347,-0.053
2.348,-0.050
2.349,-0.047
2.350,-0.047
2.351,-0.047
2.352,-0.050
2.353,-0.050
2.354,-0.051
2.355,-0.053
2.356,-0.050
2.357,-0.053
2.358,-0.053
2.359,-0.053
2.360,-0.053
2.361,-0.053
2.362,-0.054
2.363,-0.056
2.364,-0.056
2.365,-0.056
2.366,-0.056
2.367,-0.056
2.368,-0.056
2.369,-0.056
2.370,-0.053
2.371,-0.053
2.372,-0.056
2.373,-0.056
2.374,-0.056
2.375,-0.056
2.376,-0.055
2.377,-0.053
2.378,-0.053
2.379,-0.053
2.380,-0.053
2.381,-0.053
2.382,-0.053
2.383,-0.053
2.384,-0.052
2.385,-0.050
2.386,-0.050
2.387,-0.050
2.388,-0.050
2.389,-0.050
2.390,-0.051
2.391,-0.053
2.392,-0.052
2.393,-0.053
2.394,-0.053
2.395,-0.053
2.396,-0.053
2.397,-0.053
2.398,-0.053
2.399,-0.053
2.400,-0.050
2.401,-0.053
2.402,-0.054
2.403,-0.056
2.404,-0.063
2.405,-0.063
2.406,-0.063
2.407,-0.063
2.408,-0.059
2.409,-0.053
2.410,-0.052
2.411,-0.053
2.412,-0.054
2.413,-0.056
2.414,-0.059
2.415,-0.063
2.416,-0.064
2.417,-0.063
2.418,-0.059
2.419,-0.063
2.420,-0.066
2.421,-0.063
2.422,-0.063
2.423,-0.063
2.424,-0.064
2.425,-0.066
2.426,-0.064
2.427,-0.066
2.428,-0.069
2.429,-0.069
2.430,-0.070
2.431,-0.069
2.432,-0.066
2.433,-0.063
2.434,-0.061
2.435,-0.059
2.436,-0.056
2.437,-0.059
2.438,-0.061
2.439,-0.063
2.440,-0.061
2.441,-0.063
2.442,-0.063
2.443,-0.063
2.444,-0.059
2.445,-0.053
2.446,-0.046
2.447,-0.038
2.448,-0.038
2.449,-0.034
2.450,-0.030
2.451,-0.028
2.452,-0.022
2.453,-0.019
2.454,-0.011
2.455,-0.003
2.456,0.006
2.457,0.012
2.458,0.019
2.459,0.025
2.460,0.027
2.461,0.022
2.462,0.016
2.463,0.012
2.464,0.011
2.465,0.012
2.466,0.014
2.467,0.016
2.468,0.016
2.469,0.019
2.470,0.019
2.471,0.022
2.472,0.027
2.473,0.031
2.474,0.033
2.475,0.031
2.476,0.039
2.477,0.044
2.478,0.046
2.479,0.044
2.480,0.044
2.481,0.050
2.482,0.061
2.483,0.078
2.484,0.087
2.485,0.094
2.486,0.094
2.487,0.091
2.488,0.089
2.489,0.087
2.490,0.078
2.491,0.072
2.492,0.069
2.493,0.069
2.494,0.062
2.495,0.059
2.496,0.054
2.497,0.053
2.498,0.046
2.499,0.037
2.500,0.031
2.501,0.028
2.502,0.022
2.503,0.019
2.504,0.014
2.505,0.009
2.506,0.004
2.507,0.000
2.508,-0.004
2.509,-0.013
2.510,-0.022
2.511,-0.028
2.512,-0.028
2.513,-0.028
2.514,-0.028
2.515,-0.028
2.516,-0.030
2.517,-0.031
2.518,-0.036
2.519,-0.041
2.520,-0.047
2.521,-0.047
2.522,-0.050
2.523,-0.053
2.524,-0.054
2.525,-0.056
2.526,-0.063
2.527,-0.066
2.528,-0.068
2.529,-0.069
2.530,-0.071
2.531,-0.069
2.532,-0.068
2.533,-0.069
2.534,-0.069
2.535,-0.069
2.536,-0.069
2.537,-0.072
2.538,-0.072
2.539,-0.072
2.540,-0.072
2.541,-0.072
2.542,-0.070
2.543,-0.072
2.544,-0.069
2.545,-0.066
2.546,-0.068
2.547,-0.066
2.548,-0.069
2.549,-0.072
2.550,-0.076
2.551,-0.075
2.552,-0.074
2.553,-0.075
2.554,-0.079
2.555,-0.081
2.556,-0.079
2.557,-0.078
2.558,-0.078
2.559,-0.078
2.560,-0.076
2.561,-0.081
2.562,-0.081
2.563,-0.081
2.564,-0.078
2.565,-0.075
2.566,-0.072
2.567,-0.072
2.568,-0.074
2.569,-0.075
2.570,-0.076
2.571,-0.081
2.572,-0.084
2.573,-0.087
2.574,-0.097
2.575,-0.103
2.576,-0.103
2.577,-0.109
2.578,-0.114
2.579,-0.113
2.580,-0.114
2.581,-0.109
2.582,-0.104
2.583,-0.094
2.584,-0.078
2.585,-0.056
2.586,-0.039
2.587,-0.009
2.588,0.014
2.589,0.044
2.590,0.084
2.591,0.131
2.592,0.178
2.593,0.228
2.594,0.281
2.595,0.334
2.596,0.383
2.597,0.428
2.598,0.472
2.599,0.528
2.600,0.594
2.601,0.666
2.602,0.737
2.603,0.794
2.604,0.851
2.605,0.906
2.606,0.959
2.607,1.013
2.608,1.050
2.609,1.066
2.610,1.079
2.611,1.072
2.612,1.057
2.613,1.009
2.614,0.941
2.615,0.862
2.616,0.789
2.617,0.716
2.618,0.644
2.619,0.578
2.620,0.514
2.621,0.453
2.622,0.391
2.623,0.325
2.624,0.261
2.625,0.197
2.626,0.130
2.627,0.075
2.628,0.028
2.629,0.006
2.630,-0.013
2.631,-0.016
2.632,-0.016
2.633,-0.013
2.634,-0.008
2.635,-0.009
2.636,-0.023
2.637,-0.044
2.638,-0.059
2.639,-0.072
2.640,-0.083
2.641,-0.087
2.642,-0.097
2.643,-0.106
2.644,-0.108
2.645,-0.106
2.646,-0.106
2.647,-0.103
2.648,-0.096
2.649,-0.091
2.650,-0.087
2.651,-0.084
2.652,-0.081
2.653,-0.078
2.654,-0.074
2.655,-0.066
2.656,-0.061
2.657,-0.059
2.658,-0.054
2.659,-0.056
2.660,-0.056
2.661,-0.056
2.662,-0.055
2.663,-0.056
2.664,-0.052
2.665,-0.056
2.666,-0.058
2.667,-0.059
2.668,-0.063
2.669,-0.063
2.670,-0.067
2.671,-0.072
2.672,-0.070
2.673,-0.072
2.674,-0.069
2.675,-0.069
2.676,-0.070
2.677,-0.072
2.678,-0.073
2.679,-0.072
2.680,-0.069
2.681,-0.069
2.682,-0.073
2.683,-0.075
2.684,-0.072
2.685,-0.072
2.686,-0.074
2.687,-0.075
2.688,-0.075
2.689,-0.075
2.690,-0.076
2.691,-0.075
2.692,-0.072
2.693,-0.072
2.694,-0.072
2.695,-0.072
2.696,-0.072
2.697,-0.072
2.698,-0.069
2.699,-0.066
2.700,-0.069
2.701,-0.069
2.702,-0.066
2.703,-0.069
2.704,-0.064
2.705,-0.066
2.706,-0.069
2.707,-0.069
2.708,-0.069
2.709,-0.069
2.710,-0.068
2.711,-0.066
2.712,-0.070
2.713,-0.069
2.714,-0.068
2.715,-0.069
2.716,-0.069
2.717,-0.069
2.718,-0.069
2.719,-0.069
2.720,-0.069
2.721,-0.066
2.722,-0.066
2.723,-0.066
2.724,-0.064
2.725,-0.066
2.726,-0.067
2.727,-0.072
2.728,-0.072
2.729,-0.072
2.730,-0.070
2.731,-0.072
2.732,-0.068
2.733,-0.066
2.734,-0.066
2.735,-0.066
2.736,-0.063
2.737,-0.063
2.738,-0.066
2.739,-0.066
2.740,-0.067
2.741,-0.069
2.742,-0.067
2.743,-0.069
2.744,-0.067
2.745,-0.069
2.746,-0.069
2.747,-0.069
2.748,-0.069
2.749,-0.072
2.750,-0.069
2.751,-0.066
2.752,-0.067
2.753,-0.069
2.754,-0.069
2.755,-0.072
2.756,-0.072
2.757,-0.072
2.758,-0.074
2.759,-0.069
2.760,-0.064
2.761,-0.066
2.762,-0.066
2.763,-0.063
2.764,-0.066
2.765,-0.066
2.766,-0.067
2.767,-0.069
2.768,-0.066
2.769,-0.066
2.770,-0.066
2.771,-0.063
2.772,-0.066
2.773,-0.066
2.774,-0.066
2.775,-0.066
2.776,-0.067
2.777,-0.069
2.778,-0.066
2.779,-0.066
2.780,-0.063
2.781,-0.059
2.782,-0.055
2.783,-0.053
2.784,-0.056
2.785,-0.053
2.786,-0.056
2.787,-0.056
2.788,-0.054
2.789,-0.059
2.790,-0.063
2.791,-0.063
2.792,-0.061
2.793,-0.059
2.794,-0.059
2.795,-0.059
2.796,-0.061
2.797,-0.063
2.798,-0.063
2.799,-0.066
2.800,-0.064
2.801,-0.066
2.802,-0.066
2.803,-0.066
2.804,-0.063
2.805,-0.056
2.806,-0.058
2.807,-0.053
2.808,-0.050
2.809,-0.050
2.810,-0.050
2.811,-0.050
2.812,-0.049
2.813,-0.047
2.814,-0.047
2.815,-0.047
2.816,-0.047
2.817,-0.047
2.818,-0.048
2.819,-0.047
2.820,-0.048
2.821,-0.050
2.822,-0.047
2.823,-0.050
2.824,-0.050
2.825,-0.053
2.826,-0.050
2.827,-0.050
2.828,-0.051
2.829,-0.053
2.830,-0.049
2.831,-0.047
2.832,-0.047
2.833,-0.047
2.834,-0.047
2.835,-0.047
2.836,-0.048
2.837,-0.050
2.838,-0.047
2.839,-0.047
2.840,-0.050
2.841,-0.050
2.842,-0.046
2.843,-0.041
2.844,-0.050
2.845,-0.050
2.846,-0.051
2.847,-0.053
2.848,-0.053
2.849,-0.053
2.850,-0.051
2.851,-0.053
2.852,-0.053
2.853,-0.053
2.854,-0.056
2.855,-0.056
2.856,-0.053
2.857,-0.050
2.858,-0.050
2.859,-0.050
2.860,-0.050
2.861,-0.050
2.862,-0.049
2.863,-0.050
2.864,-0.046
2.865,-0.044
2.866,-0.047
2.867,-0.044
2.868,-0.048
2.869,-0.047
2.870,-0.048
2.871,-0.050
2.872,-0.049
2.873,-0.047
2.874,-0.047
2.875,-0.047
2.876,-0.047
2.877,-0.047
2.878,-0.048
2.879,-0.050
2.880,-0.046
2.881,-0.044
2.882,-0.043
2.883,-0.041
2.884,-0.044
2.885,-0.044
2.886,-0.044
2.887,-0.044
2.888,-0.039
2.889,-0.038
2.890,-0.036
2.891,-0.038
2.892,-0.042
2.893,-0.044
2.894,-0.044
2.895,-0.044
2.896,-0.045
2.897,-0.044
2.898,-0.044
2.899,-0.044
2.900,-0.041
2.901,-0.041
2.902,-0.041
2.903,-0.041
2.904,-0.039
2.905,-0.038
2.906,-0.038
2.907,-0.038
2.908,-0.030
2.909,-0.028
2.910,-0.029
2.911,-0.028
2.912,-0.026
2.913,-0.028
2.914,-0.028
2.915,-0.031
2.916,-0.029
2.917,-0.031
2.918,-0.028
2.919,-0.025
2.920,-0.024
2.921,-0.022
2.922,-0.020
2.923,-0.022
2.924,-0.022
2.925,-0.022
2.926,-0.019
2.927,-0.016
2.928,-0.013
2.929,-0.013
2.930,-0.011
2.931,-0.013
2.932,-0.009
2.933,-0.006
2.934,-0.003
2.935,-0.003
2.936,-0.001
2.937,0.000
2.938,0.004
2.939,0.009
2.940,0.011
2.941,0.012
2.942,0.014
2.943,0.019
2.944,0.022
2.945,0.025
2.946,0.028
2.947,0.031
2.948,0.034
2.949,0.037
2.950,0.039
2.951,0.037
2.952,0.041
2.953,0.041
2.954,0.037
2.955,0.037
2.956,0.036
2.957,0.034
2.958,0.037
2.959,0.037
2.960,0.036
2.961,0.034
2.962,0.036
2.963,0.034
2.964,0.033
2.965,0.031
2.966,0.028
2.967,0.028
2.968,0.029
2.969,0.028
2.970,0.028
2.971,0.028
2.972,0.025
2.973,0.019
2.974,0.019
2.975,0.016
2.976,0.017
2.977,0.019
2.978,0.016
2.979,0.016
2.980,0.016
2.981,0.012
2.982,0.012
2.983,0.012
2.984,0.014
2.985,0.016
2.986,0.014
2.987,0.012
2.988,0.008
2.989,0.006
2.990,0.006
2.991,0.006
2.992,0.007
2.993,0.009
2.994,0.009
2.995,0.009
2.996,0.009
2.997,0.006
2.998,-0.001
2.999,-0.006
3.000,-0.009
3.001,-0.006
3.002,-0.006
3.003,-0.006
3.004,-0.008
3.005,-0.006
3.006,-0.006
3.007,-0.006
3.008,-0.005
3.009,-0.003
3.010,-0.008
3.011,-0.009
3.012,-0.006
3.013,-0.009
3.014,-0.006
3.015,-0.003
3.016,0.001
3.017,0.000
3.018,0.000
3.019,0.000
3.020,-0.003
3.021,-0.006
3.022,-0.005
3.023,-0.006
3.024,-0.005
3.025,-0.003
3.026,-0.003
3.027,-0.003
3.028,-0.003
3.029,-0.003
3.030,0.000
3.031,-0.003
3.032,-0.004
3.033,-0.009
3.034,-0.003
3.035,0.000
3.036,-0.004
3.037,-0.003
3.038,-0.004
3.039,-0.006
3.040,-0.009
3.041,-0.006
3.042,-0.006
3.043,-0.006
3.044,-0.009
3.045,-0.009
3.046,-0.011
3.047,-0.009
3.048,-0.009
3.049,-0.009
3.050,-0.011
3.051,-0.013
3.052,-0.016
3.053,-0.016
3.054,-0.013
3.055,-0.013
3.056,-0.013
3.057,-0.013
3.058,-0.014
3.059,-0.013
3.060,-0.013
3.061,-0.013
3.062,-0.011
3.063,-0.009
3.064,-0.006
3.065,-0.009
3.066,-0.013
3.067,-0.016
3.068,-0.014
3.069,-0.013
3.070,-0.016
3.071,-0.016
3.072,-0.016
3.073,-0.016
3.074,-0.022
3.075,-0.022
3.076,-0.023
3.077,-0.025
3.078,-0.021
3.079,-0.016
3.080,-0.016
3.081,-0.016
3.082,-0.016
3.083,-0.013
3.084,-0.016
3.085,-0.013
3.086,-0.011
3.087,-0.013
3.088,-0.009
3.089,-0.013
3.090,-0.014
3.091,-0.016
3.092,-0.016
3.093,-0.016
3.094,-0.016
3.095,-0.016
3.096,-0.014
3.097,-0.013
3.098,-0.017
3.099,-0.022
3.100,-0.021
3.101,-0.019
3.102,-0.022
3.103,-0.025
3.104,-0.028
3.105,-0.028
3.106,-0.033
3.107,-0.031
3.108,-0.027
3.109,-0.022
3.110,-0.025
3.111,-0.025
3.112,-0.028
3.113,-0.031
3.114,-0.031
3.115,-0.031
3.116,-0.031
3.117,-0.031
3.118,-0.034
3.119,-0.041
3.120,-0.039
3.121,-0.038
3.122,-0.036
3.123,-0.034
3.124,-0.038
3.125,-0.038
3.126,-0.038
3.127,-0.038
3.128,-0.038
3.129,-0.038
3.130,-0.036
3.131,-0.038
3.132,-0.038
3.133,-0.038
3.134,-0.034
3.135,-0.034
3.136,-0.036
3.137,-0.038
3.138,-0.041
3.139,-0.041
3.140,-0.039
3.141,-0.034
3.142,-0.038
3.143,-0.038
3.144,-0.039
3.145,-0.041
3.146,-0.039
3.147,-0.041
3.148,-0.041
3.149,-0.041
3.150,-0.039
3.151,-0.041
3.152,-0.041
3.153,-0.041
3.154,-0.044
3.155,-0.047
3.156,-0.050
3.157,-0.047
3.158,-0.046
3.159,-0.044
3.160,-0.043
3.161,-0.041
3.162,-0.042
3.163,-0.044
3.164,-0.044
3.165,-0.044
3.166,-0.048
3.167,-0.047
3.168,-0.048
3.169,-0.050
3.170,-0.049
3.171,-0.050
3.172,-0.051
3.173,-0.050
3.174,-0.050
3.175,-0.050
3.176,-0.049
3.177,-0.050
3.178,-0.050
3.179,-0.050
3.180,-0.053
3.181,-0.053
3.182,-0.051
3.183,-0.053
3.184,-0.049
3.185,-0.050
3.186,-0.053
3.187,-0.053
3.188,-0.053
3.189,-0.053
3.190,-0.052
3.191,-0.050
3.192,-0.056
3.193,-0.059
3.194,-0.059
3.195,-0.059
3.196,-0.055
3.197,-0.056
3.198,-0.056
3.199,-0.056
3.200,-0.056
3.201,-0.056
3.202,-0.058
3.203,-0.059
3.204,-0.058
3.205,-0.056
3.206,-0.056
3.207,-0.056
3.208,-0.056
3.209,-0.056
3.210,-0.053
3.211,-0.053
3.212,-0.053
3.213,-0.050
3.214,-0.050
3.215,-0.050
3.216,-0.051
3.217,-0.053
3.218,-0.053
3.219,-0.053
3.220,-0.050
3.221,-0.053
3.222,-0.053
3.223,-0.053
3.224,-0.056
3.225,-0.059
3.226,-0.061
3.227,-0.063
3.228,-0.060
3.229,-0.056
3.230,-0.058
3.231,-0.059
3.232,-0.061
3.233,-0.063
3.234,-0.063
3.235,-0.063
3.236,-0.063
3.237,-0.063
3.238,-0.063
3.239,-0.063
3.240,-0.063
3.241,-0.063
3.242,-0.063
3.243,-0.063
3.244,-0.059
3.245,-0.056
3.246,-0.058
3.247,-0.059
3.248,-0.059
3.249,-0.063
3.250,-0.061
3.251,-0.059
3.252,-0.061
3.253,-0.063
3.254,-0.064
3.255,-0.066
3.256,-0.063
3.257,-0.066
3.258,-0.066
3.259,-0.066
3.260,-0.070
3.261,-0.069
3.262,-0.069
3.263,-0.069
3.264,-0.070
3.265,-0.069
3.266,-0.068
3.267,-0.069
3.268,-0.068
3.269,-0.066
3.270,-0.068
3.271,-0.069
3.272,-0.070
3.273,-0.069
3.274,-0.063
3.275,-0.063
3.276,-0.067
3.277,-0.066
3.278,-0.067
3.279,-0.069
3.280,-0.066
3.281,-0.063
3.282,-0.058
3.283,-0.056
3.284,-0.059
3.285,-0.059
3.286,-0.064
3.287,-0.066
3.288,-0.066
3.289,-0.066
3.290,-0.066
3.291,-0.066
3.292,-0.063
3.293,-0.066
3.294,-0.063
3.295,-0.059
3.296,-0.058
3.297,-0.059
3.298,-0.058
3.299,-0.056
3.300,-0.058
3.301,-0.056
3.302,-0.049
3.303,-0.041
3.304,-0.039
3.305,-0.034
3.306,-0.031
3.307,-0.031
3.308,-0.025
3.309,-0.022
3.310,-0.014
3.311,-0.006
3.312,0.004
3.313,0.012
3.314,0.016
3.315,0.019
3.316,0.023
3.317,0.022
3.318,0.014
3.319,0.009
3.320,0.008
3.321,0.009
3.322,0.009
3.323,0.009
3.324,0.008
3.325,0.009
3.326,0.009
3.327,0.012
3.328,0.019
3.329,0.025
3.330,0.029
3.331,0.031
3.332,0.033
3.333,0.031
3.334,0.033
3.335,0.031
3.336,0.036
3.337,0.047
3.338,0.054
3.339,0.069
3.340,0.075
3.341,0.078
3.342,0.081
3.343,0.081
3.344,0.079
3.345,0.078
3.346,0.072
3.347,0.069
3.348,0.064
3.349,0.062
3.350,0.055
3.351,0.050
3.352,0.047
3.353,0.047
3.354,0.036
3.355,0.025
3.356,0.017
3.357,0.012
3.358,0.007
3.359,0.006
3.360,0.003
3.361,0.000
3.362,-0.005
3.363,-0.009
3.364,-0.013
3.365,-0.019
3.366,-0.025
3.367,-0.028
3.368,-0.029
3.369,-0.031
3.370,-0.031
3.371,-0.031
3.372,-0.031
3.373,-0.031
3.374,-0.031
3.375,-0.031
3.376,-0.039
3.377,-0.041
3.378,-0.045
3.379,-0.050
3.380,-0.050
3.381,-0.050
3.382,-0.052
3.383,-0.050
3.384,-0.053
3.385,-0.056
3.386,-0.061
3.387,-0.063
3.388,-0.063
3.389,-0.066
3.390,-0.067
3.391,-0.069
3.392,-0.068
3.393,-0.069
3.394,-0.070
3.395,-0.072
3.396,-0.073
3.397,-0.075
3.398,-0.071
3.399,-0.069
3.400,-0.066
3.401,-0.063
3.402,-0.066
3.403,-0.066
3.404,-0.067
3.405,-0.069
3.406,-0.073
3.407,-0.072
3.408,-0.069
3.409,-0.069
3.410,-0.073
3.411,-0.075
3.412,-0.075
3.413,-0.075
3.414,-0.075
3.415,-0.075
3.416,-0.072
3.417,-0.075
3.418,-0.075
3.419,-0.075
3.420,-0.075
3.421,-0.075
3.422,-0.074
3.423,-0.075
3.424,-0.078
3.425,-0.081
3.426,-0.080
3.427,-0.081
3.428,-0.087
3.429,-0.094
3.430,-0.103
3.431,-0.109
3.432,-0.117
3.433,-0.131
3.434,-0.136
3.435,-0.134
3.436,-0.134
3.437,-0.128
3.438,-0.121
3.439,-0.106
3.440,-0.091
3.441,-0.069
3.442,-0.053
3.443,-0.025
3.444,0.003
3.445,0.037
3.446,0.076
3.447,0.122
3.448,0.172
3.449,0.225
3.450,0.277
3.451,0.328
3.452,0.377
3.453,0.422
3.454,0.473
3.455,0.537
3.456,0.607
3.457,0.684
3.458,0.757
3.459,0.816
3.460,0.869
3.461,0.919
3.462,0.969
3.463,1.019
3.464,1.056
3.465,1.072
3.466,1.080
3.467,1.066
3.468,1.046
3.469,0.991
3.470,0.929
3.471,0.859
3.472,0.792
3.473,0.725
3.474,0.655
3.475,0.591
3.476,0.526
3.477,0.466
3.478,0.407
3.479,0.347
3.480,0.281
3.481,0.216
3.482,0.146
3.483,0.087
3.484,0.041
3.485,0.019
3.486,0.004
3.487,0.006
3.488,0.003
3.489,0.003
3.490,0.000
3.491,-0.009
3.492,-0.022
3.493,-0.041
3.494,-0.058
3.495,-0.072
3.496,-0.084
3.497,-0.091
3.498,-0.097
3.499,-0.103
3.500,-0.105
3.501,-0.103
3.502,-0.100
3.503,-0.094
3.504,-0.086
3.505,-0.081
3.506,-0.077
3.507,-0.072
3.508,-0.070
3.509,-0.069
3.510,-0.070
3.511,-0.069
3.512,-0.061
3.513,-0.056
3.514,-0.050
3.515,-0.050
3.516,-0.050
3.517,-0.050
3.518,-0.050
3.519,-0.053
3.520,-0.049
3.521,-0.053
3.522,-0.055
3.523,-0.056
3.524,-0.063
3.525,-0.066
3.526,-0.068
3.527,-0.069
3.528,-0.067
3.529,-0.069
3.530,-0.067
3.531,-0.069
3.532,-0.069
3.533,-0.069
3.534,-0.070
3.535,-0.069
3.536,-0.068
3.537,-0.069
3.538,-0.072
3.539,-0.072
3.540,-0.069
3.541,-0.069
3.542,-0.069
3.543,-0.069
3.544,-0.069
3.545,-0.069
3.546,-0.072
3.547,-0.072
3.548,-0.070
3.549,-0.072
3.550,-0.071
3.551,-0.069
3.552,-0.068
3.553,-0.066
3.554,-0.067
3.555,-0.069
3.556,-0.072
3.557,-0.072
3.558,-0.070
3.559,-0.075
3.560,-0.071
3.561,-0.072
3.562,-0.075
3.563,-0.075
3.564,-0.075
3.565,-0.075
3.566,-0.074
3.567,-0.072
3.568,-0.076
3.569,-0.075
3.570,-0.074
3.571,-0.075
3.572,-0.075
3.573,-0.075
3.574,-0.076
3.575,-0.078
3.576,-0.077
3.577,-0.072
3.578,-0.072
3.579,-0.072
3.580,-0.071
3.581,-0.072
3.582,-0.070
3.583,-0.072
3.584,-0.071
3.585,-0.069
3.586,-0.067
3.587,-0.069
3.588,-0.068
3.589,-0.069
3.590,-0.069
3.591,-0.069
3.592,-0.066
3.593,-0.066
3.594,-0.069
3.595,-0.069
3.596,-0.070
3.597,-0.072
3.598,-0.069
3.599,-0.069
3.600,-0.066
3.601,-0.066
3.602,-0.066
3.603,-0.066
3.604,-0.064
3.605,-0.066
3.606,-0.066
3.607,-0.066
3.608,-0.064
3.609,-0.063
3.610,-0.061
3.611,-0.063
3.612,-0.066
3.613,-0.069
3.614,-0.073
3.615,-0.072
3.616,-0.066
3.617,-0.066
3.618,-0.067
3.619,-0.066
3.620,-0.069
3.621,-0.069
3.622,-0.066
3.623,-0.063
3.624,-0.059
3.625,-0.059
3.626,-0.059
3.627,-0.056
3.628,-0.059
3.629,-0.059
3.630,-0.058
3.631,-0.056
3.632,-0.058
3.633,-0.059
3.634,-0.056
3.635,-0.056
3.636,-0.058
3.637,-0.059
3.638,-0.055
3.639,-0.053
3.640,-0.058
3.641,-0.056
3.642,-0.058
3.643,-0.056
3.644,-0.053
3.645,-0.056
3.646,-0.058
3.647,-0.056
3.648,-0.056
3.649,-0.056
3.650,-0.056
3.651,-0.056
3.652,-0.055
3.653,-0.053
3.654,-0.053
3.655,-0.056
3.656,-0.054
3.657,-0.056
3.658,-0.056
3.659,-0.056
3.660,-0.055
3.661,-0.050
3.662,-0.054
3.663,-0.053
3.664,-0.050
3.665,-0.050
3.666,-0.050
3.667,-0.050
3.668,-0.050
3.669,-0.050
3.670,-0.051
3.671,-0.053
3.672,-0.052
3.673,-0.050
3.674,-0.051
3.675,-0.050
3.676,-0.049
3.677,-0.047
3.678,-0.041
3.679,-0.041
3.680,-0.042
3.681,-0.047
3.682,-0.044
3.683,-0.044
3.684,-0.045
3.685,-0.047
3.686,-0.045
3.687,-0.047
3.688,-0.048
3.689,-0.050
3.690,-0.049
3.691,-0.047
3.692,-0.047
3.693,-0.047
3.694,-0.043
3.695,-0.041
3.696,-0.044
3.697,-0.044
3.698,-0.043
3.699,-0.041
3.700,-0.047
3.701,-0.044
3.702,-0.044
3.703,-0.044
3.704,-0.044
3.705,-0.044
3.706,-0.042
3.707,-0.044
3.708,-0.043
3.709,-0.041
3.710,-0.045
3.711,-0.047
3.712,-0.048
3.713,-0.050
3.714,-0.050
3.715,-0.050
3.716,-0.047
3.717,-0.044
3.718,-0.043
3.719,-0.044
3.720,-0.044
3.721,-0.047
3.722,-0.051
3.723,-0.050
3.724,-0.052
3.725,-0.047
3.726,-0.046
3.727,-0.044
3.728,-0.044
3.729,-0.044
3.730,-0.045
3.731,-0.047
3.732,-0.047
3.733,-0.047
3.734,-0.050
3.735,-0.053
3.736,-0.053
3.737,-0.056
3.738,-0.055
3.739,-0.053
3.740,-0.052
3.741,-0.047
3.742,-0.046
3.743,-0.044
3.744,-0.042
3.745,-0.044
3.746,-0.041
3.747,-0.041
3.748,-0.044
3.749,-0.044
3.750,-0.044
3.751,-0.044
3.752,-0.045
3.753,-0.044
3.754,-0.044
3.755,-0.044
3.756,-0.039
3.757,-0.038
3.758,-0.038
3.759,-0.038
3.760,-0.038
3.761,-0.038
3.762,-0.038
3.763,-0.038
3.764,-0.034
3.765,-0.038
3.766,-0.039
3.767,-0.038
3.768,-0.036
3.769,-0.038
3.770,-0.033
3.771,-0.031
3.772,-0.028
3.773,-0.028
3.774,-0.028
3.775,-0.028
3.776,-0.028
3.777,-0.028
3.778,-0.022
3.779,-0.019
3.780,-0.016
3.781,-0.013
3.782,-0.009
3.783,-0.006
3.784,-0.003
3.785,-0.003
3.786,-0.003
3.787,-0.006
3.788,-0.003
3.789,0.000
3.790,0.003
3.791,0.003
3.792,0.003
3.793,0.003
3.794,0.007
3.795,0.012
3.796,0.016
3.797,0.019
3.798,0.017
3.799,0.019
3.800,0.022
3.801,0.025
3.802,0.025
3.803,0.025
3.804,0.025
3.805,0.025
3.806,0.028
3.807,0.028
3.808,0.031
3.809,0.031
3.810,0.030
3.811,0.031
3.812,0.036
3.813,0.041
3.814,0.042
3.815,0.041
3.816,0.039
3.817,0.037
3.818,0.037
3.819,0.034
3.820,0.034
3.821,0.034
3.822,0.031
3.823,0.031
3.824,0.030
3.825,0.025
3.826,0.024
3.827,0.022
3.828,0.023
3.829,0.022
3.830,0.023
3.831,0.022
3.832,0.022
3.833,0.022
3.834,0.017
3.835,0.016
3.836,0.017
3.837,0.016
3.838,0.016
3.839,0.016
3.840,0.012
3.841,0.009
3.842,0.009
3.843,0.009
3.844,0.006
3.845,0.006
3.846,0.005
3.847,0.003
3.848,0.006
3.849,0.009
3.850,0.009
3.851,0.009
3.852,0.011
3.853,0.009
3.854,0.005
3.855,0.003
3.856,0.000
3.857,0.003
3.858,0.004
3.859,0.006
3.860,0.003
3.861,0.003
3.862,0.003
3.863,0.003
3.864,0.004
3.865,0.006
3.866,0.003
3.867,0.003
3.868,0.006
3.869,0.003
3.870,0.000
3.871,-0.003
3.872,-0.003
3.873,-0.009
3.874,-0.009
3.875,-0.009
3.876,-0.008
3.877,-0.006
3.878,-0.005
3.879,-0.006
3.880,-0.008
3.881,-0.009
3.882,-0.008
3.883,-0.006
3.884,-0.005
3.885,-0.003
3.886,-0.001
3.887,-0.006
3.888,-0.006
3.889,-0.009
3.890,-0.006
3.891,-0.006
3.892,-0.011
3.893,-0.009
3.894,-0.011
3.895,-0.013
3.896,-0.014
3.897,-0.009
3.898,-0.009
3.899,-0.009
3.900,-0.013
3.901,-0.013
3.902,-0.014
3.903,-0.013
3.904,-0.013
3.905,-0.013
3.906,-0.011
3.907,-0.009
3.908,-0.009
3.909,-0.006
3.910,-0.004
3.911,-0.006
3.912,-0.003
3.913,0.000
3.914,-0.004
3.915,-0.006
3.916,-0.008
3.917,-0.009
3.918,-0.009
3.919,-0.009
3.920,-0.006
3.921,-0.009
3.922,-0.009
3.923,-0.009
3.924,-0.011
3.925,-0.013
3.926,-0.011
3.927,-0.006
3.928,-0.006
3.929,-0.006
3.930,-0.011
3.931,-0.009
3.932,-0.009
3.933,-0.009
3.934,-0.009
3.935,-0.009
3.936,-0.009
3.937,-0.009
3.938,-0.011
3.939,-0.009
3.940,-0.014
3.941,-0.013
3.942,-0.013
3.943,-0.016
3.944,-0.013
3.945,-0.016
3.946,-0.016
3.947,-0.016
3.948,-0.019
3.949,-0.022
3.950,-0.022
3.951,-0.022
3.952,-0.023
3.953,-0.025
3.954,-0.025
3.955,-0.025
3.956,-0.025
3.957,-0.025
3.958,-0.024
3.959,-0.022
3.960,-0.026
3.961,-0.028
3.962,-0.033
3.963,-0.031
3.964,-0.030
3.965,-0.028
3.966,-0.031
3.967,-0.031
3.968,-0.031
3.969,-0.031
3.970,-0.033
3.971,-0.034
3.972,-0.036
3.973,-0.038
3.974,-0.034
3.975,-0.034
3.976,-0.034
3.977,-0.034
3.978,-0.034
3.979,-0.034
3.980,-0.038
3.981,-0.038
3.982,-0.038
3.983,-0.038
3.984,-0.038
3.985,-0.038
3.986,-0.038
3.987,-0.041
3.988,-0.047
3.989,-0.053
3.990,-0.050
3.991,-0.050
3.992,-0.053
3.993,-0.056
3.994,-0.058
3.995,-0.056
3.996,-0.056
3.997,-0.053
3.998,-0.055
3.999,-0.053
4.000,-0.052
4.001,-0.050
4.002,-0.049
4.003,-0.050
4.004,-0.051
4.005,-0.053
4.006,-0.050
4.007,-0.050
4.008,-0.049
4.009,-0.047
4.010,-0.047
4.011,-0.047
4.012,-0.051
4.013,-0.050
4.014,-0.049
4.015,-0.047
4.016,-0.047
4.017,-0.047
4.018,-0.048
4.019,-0.050
4.020,-0.050
4.021,-0.050
4.022,-0.054
4.023,-0.053
4.024,-0.050
4.025,-0.047
4.026,-0.046
4.027,-0.047
4.028,-0.050
4.029,-0.050
4.030,-0.050
4.031,-0.050
4.032,-0.049
4.033,-0.050
4.034,-0.050
4.035,-0.050
4.036,-0.053
4.037,-0.053
4.038,-0.050
4.039,-0.050
4.040,-0.047
4.041,-0.050
4.042,-0.053
4.043,-0.053
4.044,-0.053
4.045,-0.053
4.046,-0.052
4.047,-0.050
4.048,-0.054
4.049,-0.056
4.050,-0.056
4.051,-0.056
4.052,-0.052
4.053,-0.053
4.054,-0.053
4.055,-0.053
4.056,-0.052
4.057,-0.050
4.058,-0.050
4.059,-0.050
4.060,-0.051
4.061,-0.053
4.062,-0.053
4.063,-0.053
4.064,-0.053
4.065,-0.053
4.066,-0.056
4.067,-0.063
4.068,-0.063
4.069,-0.059
4.070,-0.058
4.071,-0.056
4.072,-0.056
4.073,-0.056
4.074,-0.056
4.075,-0.056
4.076,-0.053
4.077,-0.056
4.078,-0.058
4.079,-0.059
4.080,-0.058
4.081,-0.056
4.082,-0.058
4.083,-0.059
4.084,-0.058
4.085,-0.056
4.086,-0.059
4.087,-0.063
4.088,-0.061
4.089,-0.059
4.090,-0.058
4.091,-0.056
4.092,-0.056
4.093,-0.056
4.094,-0.058
4.095,-0.059
4.096,-0.058
4.097,-0.056
4.098,-0.056
4.099,-0.056
4.100,-0.056
4.101,-0.056
4.102,-0.061
4.103,-0.063
4.104,-0.063
4.105,-0.063
4.106,-0.059
4.107,-0.056
4.108,-0.056
4.109,-0.053
4.110,-0.059
4.111,-0.063
4.112,-0.063
4.113,-0.066
4.114,-0.064
4.115,-0.066
4.116,-0.067
4.117,-0.069
4.118,-0.066
4.119,-0.066
4.120,-0.069
4.121,-0.069
4.122,-0.066
4.123,-0.066
4.124,-0.069
4.125,-0.069
4.126,-0.064
4.127,-0.059
4.128,-0.059
4.129,-0.059
4.130,-0.059
4.131,-0.063
4.132,-0.059
4.133,-0.056
4.134,-0.053
4.135,-0.050
4.136,-0.054
4.137,-0.056
4.138,-0.056
4.139,-0.059
4.140,-0.059
4.141,-0.063
4.142,-0.064
4.143,-0.066
4.144,-0.066
4.145,-0.063
4.146,-0.066
4.147,-0.066
4.148,-0.066
4.149,-0.063
4.150,-0.061
4.151,-0.056
4.152,-0.053
4.153,-0.050
4.154,-0.047
4.155,-0.044
4.156,-0.034
4.157,-0.031
4.158,-0.031
4.159,-0.031
4.160,-0.033
4.161,-0.028
4.162,-0.024
4.163,-0.016
4.164,-0.008
4.165,0.003
4.166,0.009
4.167,0.012
4.168,0.017
4.169,0.022
4.170,0.023
4.171,0.022
4.172,0.019
4.173,0.019
4.174,0.021
4.175,0.019
4.176,0.016
4.177,0.012
4.178,0.016
4.179,0.016
4.180,0.017
4.181,0.022
4.182,0.029
4.183,0.034
4.184,0.036
4.185,0.041
4.186,0.039
4.187,0.041
4.188,0.041
4.189,0.044
4.190,0.056
4.191,0.066
4.192,0.079
4.193,0.087
4.194,0.094
4.195,0.100
4.196,0.097
4.197,0.091
4.198,0.086
4.199,0.078
4.200,0.076
4.201,0.072
4.202,0.069
4.203,0.062
4.204,0.058
4.205,0.050
4.206,0.047
4.207,0.041
4.208,0.034
4.209,0.028
4.210,0.025
4.211,0.019
4.212,0.016
4.213,0.009
4.214,0.003
4.215,-0.003
4.216,-0.011
4.217,-0.016
4.218,-0.022
4.219,-0.028
4.220,-0.033
4.221,-0.034
4.222,-0.034
4.223,-0.034
4.224,-0.031
4.225,-0.031
4.226,-0.033
4.227,-0.034
4.228,-0.038
4.229,-0.044
4.230,-0.045
4.231,-0.050
4.232,-0.053
4.233,-0.053
4.234,-0.054
4.235,-0.059
4.236,-0.058
4.237,-0.059
4.238,-0.061
4.239,-0.063
4.240,-0.064
4.241,-0.066
4.242,-0.068
4.243,-0.066
4.244,-0.066
4.245,-0.066
4.246,-0.069
4.247,-0.069
4.248,-0.069
4.249,-0.069
4.250,-0.069
4.251,-0.066
4.252,-0.066
4.253,-0.066
4.254,-0.064
4.255,-0.066
4.256,-0.066
4.257,-0.066
4.258,-0.066
4.259,-0.069
4.260,-0.066
4.261,-0.066
4.262,-0.068
4.263,-0.069
4.264,-0.072
4.265,-0.072
4.266,-0.069
4.267,-0.069
4.268,-0.069
4.269,-0.066
4.270,-0.068
4.271,-0.066
4.272,-0.072
4.273,-0.078
4.274,-0.077
4.275,-0.075
4.276,-0.078
4.277,-0.081
4.278,-0.080
4.279,-0.075
4.280,-0.078
4.281,-0.081
4.282,-0.087
4.283,-0.100
4.284,-0.105
4.285,-0.106
4.286,-0.117
4.287,-0.125
4.288,-0.124
4.289,-0.122
4.290,-0.119
4.291,-0.116
4.292,-0.103
4.293,-0.091
4.294,-0.072
4.295,-0.056
4.296,-0.028
4.297,0.000
4.298,0.033
4.299,0.069
4.300,0.116
4.301,0.169
4.302,0.221
4.303,0.272
4.304,0.325
4.305,0.375
4.306,0.422
4.307,0.472
4.308,0.536
4.309,0.606
4.310,0.682
4.311,0.756
4.312,0.812
4.313,0.869
4.314,0.921
4.315,0.966
4.316,1.014
4.317,1.056
4.318,1.076
4.319,1.087
4.320,1.079
4.321,1.066
4.322,1.009
4.323,0.944
4.324,0.871
4.325,0.794
4.326,0.719
4.327,0.650
4.328,0.589
4.329,0.525
4.330,0.463
4.331,0.400
4.332,0.337
4.333,0.278
4.334,0.214
4.335,0.147
4.336,0.092
4.337,0.041
4.338,0.016
4.339,-0.003
4.340,-0.011
4.341,-0.016
4.342,-0.013
4.343,-0.013
4.344,-0.016
4.345,-0.022
4.346,-0.038
4.347,-0.053
4.348,-0.067
4.349,-0.078
4.350,-0.080
4.351,-0.084
4.352,-0.092
4.353,-0.097
4.354,-0.097
4.355,-0.097
4.356,-0.095
4.357,-0.091
4.358,-0.087
4.359,-0.084
4.360,-0.081
4.361,-0.078
4.362,-0.072
4.363,-0.066
4.364,-0.059
4.365,-0.053
4.366,-0.053
4.367,-0.050
4.368,-0.050
4.369,-0.050
4.370,-0.050
4.371,-0.050
4.372,-0.053
4.373,-0.050
4.374,-0.052
4.375,-0.050
4.376,-0.054
4.377,-0.059
4.378,-0.061
4.379,-0.066
4.380,-0.070
4.381,-0.069
4.382,-0.069
4.383,-0.066
4.384,-0.061
4.385,-0.056
4.386,-0.056
4.387,-0.056
4.388,-0.054
4.389,-0.056
4.390,-0.059
4.391,-0.063
4.392,-0.066
4.393,-0.066
4.394,-0.064
4.395,-0.066
4.396,-0.068
4.397,-0.066
4.398,-0.069
4.399,-0.072
4.400,-0.070
4.401,-0.069
4.402,-0.061
4.403,-0.053
4.404,-0.052
4.405,-0.050
4.406,-0.050
4.407,-0.050
4.408,-0.053
4.409,-0.059
4.410,-0.063
4.411,-0.063
4.412,-0.067
4.413,-0.066
4.414,-0.068
4.415,-0.069
4.416,-0.070
4.417,-0.069
4.418,-0.064
4.419,-0.063
4.420,-0.056
4.421,-0.053
4.422,-0.051
4.423,-0.053
4.424,-0.056
4.425,-0.056
4.426,-0.058
4.427,-0.059
4.428,-0.059
4.429,-0.059
4.430,-0.056
4.431,-0.056
4.432,-0.055
4.433,-0.053
4.434,-0.058
4.435,-0.056
4.436,-0.056
4.437,-0.056
4.438,-0.056
4.439,-0.053
4.440,-0.053
4.441,-0.053
4.442,-0.058
4.443,-0.059
4.444,-0.063
4.445,-0.063
4.446,-0.061
4.447,-0.063
4.448,-0.063
4.449,-0.063
4.450,-0.063
4.451,-0.059
4.452,-0.061
4.453,-0.059
4.454,-0.058
4.455,-0.056
4.456,-0.055
4.457,-0.053
4.458,-0.056
4.459,-0.056
4.460,-0.056
4.461,-0.056
4.462,-0.056
4.463,-0.053
4.464,-0.053
4.465,-0.053
4.466,-0.054
4.467,-0.059
4.468,-0.058
4.469,-0.056
4.470,-0.058
4.471,-0.056
4.472,-0.053
4.473,-0.056
4.474,-0.056
4.475,-0.056
4.476,-0.058
4.477,-0.056
4.478,-0.055
4.479,-0.053
4.480,-0.049
4.481,-0.050
4.482,-0.051
4.483,-0.053
4.484,-0.059
4.485,-0.066
4.486,-0.067
4.487,-0.066
4.488,-0.066
4.489,-0.066
4.490,-0.063
4.491,-0.056
4.492,-0.056
4.493,-0.059
4.494,-0.055
4.495,-0.056
4.496,-0.055
4.497,-0.050
4.498,-0.052
4.499,-0.050
4.500,-0.048
4.501,-0.050
4.502,-0.047
4.503,-0.044
4.504,-0.043
4.505,-0.041
4.506,-0.041
4.507,-0.041
4.508,-0.047
4.509,-0.047
4.510,-0.046
4.511,-0.044
4.512,-0.045
4.513,-0.047
4.514,-0.043
4.515,-0.044
4.516,-0.039
4.517,-0.034
4.518,-0.034
4.519,-0.034
4.520,-0.036
4.521,-0.038
4.522,-0.036
4.523,-0.034
4.524,-0.034
4.525,-0.034
4.526,-0.036
4.527,-0.038
4.528,-0.036
4.529,-0.038
4.530,-0.038
4.531,-0.034
4.532,-0.034
4.533,-0.031
4.534,-0.036
4.535,-0.034
4.536,-0.034
4.537,-0.034
4.538,-0.036
4.539,-0.034
4.540,-0.034
4.541,-0.034
4.542,-0.034
4.543,-0.034
4.544,-0.034
4.545,-0.034
4.546,-0.036
4.547,-0.034
4.548,-0.033
4.549,-0.034
4.550,-0.039
4.551,-0.044
4.552,-0.043
4.553,-0.047
4.554,-0.044
4.555,-0.044
4.556,-0.043
4.557,-0.041
4.558,-0.039
4.559,-0.034
4.560,-0.034
4.561,-0.034
4.562,-0.038
4.563,-0.044
4.564,-0.045
4.565,-0.047
4.566,-0.047
4.567,-0.047
4.568,-0.046
4.569,-0.044
4.570,-0.044
4.571,-0.044
4.572,-0.047
4.573,-0.044
4.574,-0.044
4.575,-0.047
4.576,-0.043
4.577,-0.044
4.578,-0.041
4.579,-0.041
4.580,-0.042
4.581,-0.044
4.582,-0.044
4.583,-0.044
4.584,-0.043
4.585,-0.041
4.586,-0.038
4.587,-0.034
4.588,-0.034
4.589,-0.034
4.590,-0.038
4.591,-0.038
4.592,-0.039
4.593,-0.041
4.594,-0.039
4.595,-0.041
4.596,-0.044
4.597,-0.044
4.598,-0.041
4.599,-0.038
4.600,-0.039
4.601,-0.041
4.602,-0.039
4.603,-0.038
4.604,-0.038
4.605,-0.038
4.606,-0.036
4.607,-0.038
4.608,-0.039
4.609,-0.038
4.610,-0.039
4.611,-0.041
4.612,-0.041
4.613,-0.041
4.614,-0.038
4.615,-0.034
4.616,-0.036
4.617,-0.034
4.618,-0.038
4.619,-0.038
4.620,-0.036
4.621,-0.034
4.622,-0.036
4.623,-0.034
4.624,-0.031
4.625,-0.025
4.626,-0.028
4.627,-0.028
4.628,-0.024
4.629,-0.022
4.630,-0.019
4.631,-0.013
4.632,-0.014
4.633,-0.013
4.634,-0.009
4.635,-0.009
4.636,-0.008
4.637,-0.003
4.638,-0.004
4.639,-0.003
4.640,-0.003
4.641,0.000
4.642,0.006
4.643,0.012
4.644,0.016
4.645,0.022
4.646,0.024
4.647,0.025
4.648,0.027
4.649,0.025
4.650,0.025
4.651,0.025
4.652,0.029
4.653,0.034
4.654,0.037
4.655,0.037
4.656,0.041
4.657,0.044
4.658,0.042
4.659,0.044
4.660,0.042
4.661,0.044
4.662,0.045
4.663,0.047
4.664,0.049
4.665,0.047
4.666,0.048
4.667,0.050
4.668,0.048
4.669,0.050
4.670,0.049
4.671,0.050
4.672,0.050
4.673,0.050
4.674,0.053
4.675,0.053
4.676,0.056
4.677,0.059
4.678,0.055
4.679,0.053
4.680,0.052
4.681,0.050
4.682,0.046
4.683,0.044
4.684,0.042
4.685,0.044
4.686,0.044
4.687,0.041
4.688,0.037
4.689,0.034
4.690,0.031
4.691,0.031
4.692,0.031
4.693,0.031
4.694,0.036
4.695,0.037
4.696,0.036
4.697,0.034
4.698,0.033
4.699,0.031
4.700,0.030
4.701,0.028
4.702,0.028
4.703,0.028
4.704,0.028
4.705,0.028
4.706,0.026
4.707,0.025
4.708,0.026
4.709,0.025
4.710,0.027
4.711,0.025
4.712,0.025
4.713,0.022
4.714,0.021
4.715,0.019
4.716,0.020
4.717,0.022
4.718,0.023
4.719,0.022
4.720,0.021
4.721,0.022
4.722,0.020
4.723,0.022
4.724,0.021
4.725,0.022
4.726,0.019
4.727,0.019
4.728,0.019
4.729,0.019
4.730,0.017
4.731,0.016
4.732,0.011
4.733,0.009
4.734,0.011
4.735,0.012
4.736,0.011
4.737,0.009
4.738,0.008
4.739,0.009
4.740,0.007
4.741,0.009
4.742,0.006
4.743,0.009
4.744,0.011
4.745,0.009
4.746,0.012
4.747,0.012
4.748,0.012
4.749,0.009
4.750,0.011
4.751,0.009
4.752,0.011
4.753,0.009
4.754,0.011
4.755,0.012
4.756,0.017
4.757,0.019
4.758,0.017
4.759,0.016
4.760,0.017
4.761,0.016
4.762,0.012
4.763,0.012
4.764,0.012
4.765,0.012
4.766,0.016
4.767,0.016
4.768,0.012
4.769,0.009
4.770,0.009
4.771,0.009
4.772,0.008
4.773,0.009
4.774,0.006
4.775,0.006
4.776,0.005
4.777,0.003
4.778,0.003
4.779,0.000
4.780,0.000
4.781,0.000
4.782,0.001
4.783,0.000
4.784,0.002
4.785,0.000
4.786,0.000
4.787,0.000
4.788,0.001
4.789,0.003
4.790,0.003
4.791,0.000
4.792,0.000
4.793,-0.003
4.794,0.000
4.795,0.000
4.796,-0.002
4.797,0.003
4.798,0.000
4.799,0.000
4.800,0.000
4.801,0.000
4.802,0.000
4.803,0.000
4.804,0.001
4.805,0.003
4.806,0.004
4.807,0.003
4.808,0.000
4.809,0.000
4.810,-0.001
4.811,-0.003
4.812,-0.003
4.813,-0.006
4.814,-0.009
4.815,-0.016
4.816,-0.013
4.817,-0.013
4.818,-0.011
4.819,-0.013
4.820,-0.014
4.821,-0.016
4.822,-0.019
4.823,-0.022
4.824,-0.023
4.825,-0.025
4.826,-0.021
4.827,-0.016
4.828,-0.017
4.829,-0.016
4.830,-0.016
4.831,-0.016
4.832,-0.013
4.833,-0.013
4.834,-0.013
4.835,-0.013
4.836,-0.013
4.837,-0.013
4.838,-0.016
4.839,-0.019
4.840,-0.019
4.841,-0.016
4.842,-0.017
4.843,-0.016
4.844,-0.016
4.845,-0.016
4.846,-0.014
4.847,-0.016
4.848,-0.017
4.849,-0.019
4.850,-0.016
4.851,-0.019
4.852,-0.022
4.853,-0.025
4.854,-0.025
4.855,-0.025
4.856,-0.025
4.857,-0.022
4.858,-0.023
4.859,-0.025
4.860,-0.028
4.861,-0.028
4.862,-0.029
4.863,-0.031
4.864,-0.031
4.865,-0.034
4.866,-0.031
4.867,-0.031
4.868,-0.033
4.869,-0.034
4.870,-0.036
4.871,-0.038
4.872,-0.034
4.873,-0.031
4.874,-0.030
4.875,-0.031
4.876,-0.029
4.877,-0.031
4.878,-0.031
4.879,-0.031
4.880,-0.034
4.881,-0.034
4.882,-0.030
4.883,-0.028
4.884,-0.028
4.885,-0.028
4.886,-0.033
4.887,-0.034
4.888,-0.033
4.889,-0.034
4.890,-0.038
4.891,-0.038
4.892,-0.038
4.893,-0.034
4.894,-0.034
4.895,-0.034
4.896,-0.036
4.897,-0.038
4.898,-0.039
4.899,-0.041
4.900,-0.039
4.901,-0.041
4.902,-0.041
4.903,-0.041
4.904,-0.039
4.905,-0.034
4.906,-0.038
4.907,-0.038
4.908,-0.038
4.909,-0.038
4.910,-0.039
4.911,-0.041
4.912,-0.036
4.913,-0.031
4.914,-0.033
4.915,-0.034
4.916,-0.034
4.917,-0.034
4.918,-0.031
4.919,-0.028
4.920,-0.028
4.921,-0.028
4.922,-0.031
4.923,-0.034
4.924,-0.034
4.925,-0.034
4.926,-0.033
4.927,-0.034
4.928,-0.038
4.929,-0.041
4.930,-0.038
4.931,-0.034
4.932,-0.036
4.933,-0.038
4.934,-0.033
4.935,-0.034
4.936,-0.034
4.937,-0.034
4.938,-0.042
4.939,-0.044
4.940,-0.045
4.941,-0.047
4.942,-0.048
4.943,-0.047
4.944,-0.044
4.945,-0.044
4.946,-0.044
4.947,-0.044
4.948,-0.047
4.949,-0.050
4.950,-0.050
4.951,-0.047
4.952,-0.039
4.953,-0.038
4.954,-0.044
4.955,-0.044
4.956,-0.045
4.957,-0.047
4.958,-0.047
4.959,-0.047
4.960,-0.044
4.961,-0.044
4.962,-0.045
4.963,-0.044
4.964,-0.045
4.965,-0.044
4.966,-0.045
4.967,-0.047
4.968,-0.046
4.969,-0.044
4.970,-0.041
4.971,-0.044
4.972,-0.044
4.973,-0.044
4.974,-0.041
4.975,-0.041
4.976,-0.036
4.977,-0.031
4.978,-0.034
4.979,-0.034
4.980,-0.025
4.981,-0.016
4.982,-0.016
4.983,-0.013
4.984,-0.006
4.985,-0.003
4.986,0.006
4.987,0.012
4.988,0.022
4.989,0.031
4.990,0.037
4.991,0.041
4.992,0.039
4.993,0.037
4.994,0.039
4.995,0.034
4.996,0.029
4.997,0.028
4.998,0.027
4.999,0.028
5.000,0.027
5.001,0.025
5.002,0.026
5.003,0.031
5.004,0.032
5.005,0.037
5.006,0.044
5.007,0.050
5.008,0.052
5.009,0.050
5.010,0.050
5.011,0.047
5.012,0.053
5.013,0.056
5.014,0.064
5.015,0.078
5.016,0.083
5.017,0.094
5.018,0.099
5.019,0.100
5.020,0.103
5.021,0.103
5.022,0.103
5.023,0.103
5.024,0.100
5.025,0.100
5.026,0.092
5.027,0.087
5.028,0.077
5.029,0.069
5.030,0.061
5.031,0.056
5.032,0.053
5.033,0.050
5.034,0.041
5.035,0.034
5.036,0.027
5.037,0.022
5.038,0.017
5.039,0.012
5.040,0.005
5.041,-0.003
5.042,-0.005
5.043,-0.009
5.044,-0.014
5.045,-0.016
5.046,-0.016
5.047,-0.016
5.048,-0.020
5.049,-0.025
5.050,-0.028
5.051,-0.031
5.052,-0.033
5.053,-0.034
5.054,-0.042
5.055,-0.044
5.056,-0.047
5.057,-0.050
5.058,-0.053
5.059,-0.056
5.060,-0.059
5.061,-0.059
5.062,-0.061
5.063,-0.063
5.064,-0.066
5.065,-0.066
5.066,-0.064
5.067,-0.066
5.068,-0.066
5.069,-0.066
5.070,-0.064
5.071,-0.066
5.072,-0.066
5.073,-0.066
5.074,-0.067
5.075,-0.069
5.076,-0.066
5.077,-0.066
5.078,-0.064
5.079,-0.063
5.080,-0.067
5.081,-0.069
5.082,-0.069
5.083,-0.069
5.084,-0.071
5.085,-0.066
5.086,-0.063
5.087,-0.063
5.088,-0.067
5.089,-0.069
5.090,-0.069
5.091,-0.069
5.092,-0.069
5.093,-0.069
5.094,-0.066
5.095,-0.069
5.096,-0.073
5.097,-0.078
5.098,-0.077
5.099,-0.075
5.100,-0.075
5.101,-0.078
5.102,-0.081
5.103,-0.084
5.104,-0.081
5.105,-0.081
5.106,-0.081
5.107,-0.081
5.108,-0.092
5.109,-0.100
5.110,-0.106
5.111,-0.119
5.112,-0.126
5.113,-0.128
5.114,-0.124
5.115,-0.113
5.116,-0.106
5.117,-0.094
5.118,-0.083
5.119,-0.066
5.120,-0.049
5.121,-0.019
5.122,0.009
5.123,0.044
5.124,0.080
5.125,0.122
5.126,0.169
5.127,0.219
5.128,0.273
5.129,0.328
5.130,0.381
5.131,0.431
5.132,0.482
5.133,0.547
5.134,0.614
5.135,0.687
5.136,0.762
5.137,0.822
5.138,0.872
5.139,0.919
5.140,0.961
5.141,1.003
5.142,1.042
5.143,1.059
5.144,1.070
5.145,1.059
5.146,1.039
5.147,0.984
5.148,0.917
5.149,0.841
5.150,0.770
5.151,0.700
5.152,0.630
5.153,0.566
5.154,0.496
5.155,0.428
5.156,0.362
5.157,0.294
5.158,0.239
5.159,0.184
5.160,0.117
5.161,0.062
5.162,0.016
5.163,-0.006
5.164,-0.028
5.165,-0.034
5.166,-0.036
5.167,-0.034
5.168,-0.030
5.169,-0.031
5.170,-0.038
5.171,-0.050
5.172,-0.064
5.173,-0.075
5.174,-0.086
5.175,-0.091
5.176,-0.097
5.177,-0.103
5.178,-0.106
5.179,-0.106
5.180,-0.108
5.181,-0.106
5.182,-0.100
5.183,-0.097
5.184,-0.093
5.185,-0.087
5.186,-0.083
5.187,-0.078
5.188,-0.076
5.189,-0.072
5.190,-0.064
5.191,-0.059
5.192,-0.054
5.193,-0.056
5.194,-0.056
5.195,-0.056
5.196,-0.055
5.197,-0.056
5.198,-0.052
5.199,-0.056
5.200,-0.056
5.201,-0.056
5.202,-0.063
5.203,-0.066
5.204,-0.068
5.205,-0.069
5.206,-0.066
5.207,-0.066
5.208,-0.064
5.209,-0.066
5.210,-0.066
5.211,-0.066
5.212,-0.067
5.213,-0.066
5.214,-0.063
5.215,-0.063
5.216,-0.066
5.217,-0.066
5.218,-0.064
5.219,-0.066
5.220,-0.068
5.221,-0.069
5.222,-0.069
5.223,-0.069
5.224,-0.068
5.225,-0.063
5.226,-0.061
5.227,-0.063
5.228,-0.064
5.229,-0.066
5.230,-0.066
5.231,-0.066
5.232,-0.067
5.233,-0.069
5.234,-0.072
5.235,-0.072
5.236,-0.064
5.237,-0.063
5.238,-0.059
5.239,-0.063
5.240,-0.066
5.241,-0.066
5.242,-0.066
5.243,-0.066
5.244,-0.066
5.245,-0.066
5.246,-0.072
5.247,-0.072
5.248,-0.071
5.249,-0.072
5.250,-0.071
5.251,-0.069
5.252,-0.069
5.253,-0.069
5.254,-0.069
5.255,-0.066
5.256,-0.066
5.257,-0.066
5.258,-0.066
5.259,-0.069
5.260,-0.061
5.261,-0.056
5.262,-0.056
5.263,-0.056
5.264,-0.054
5.265,-0.056
5.266,-0.056
5.267,-0.059
5.268,-0.059
5.269,-0.059
5.270,-0.055
5.271,-0.053
5.272,-0.056
5.273,-0.056
5.274,-0.058
5.275,-0.059
5.276,-0.053
5.277,-0.050
5.278,-0.047
5.279,-0.047
5.280,-0.048
5.281,-0.050
5.282,-0.051
5.283,-0.056
5.284,-0.059
5.285,-0.063
5.286,-0.061
5.287,-0.059
5.288,-0.055
5.289,-0.053
5.290,-0.050
5.291,-0.047
5.292,-0.051
5.293,-0.050
5.294,-0.046
5.295,-0.047
5.296,-0.048
5.297,-0.047
5.298,-0.050
5.299,-0.050
5.300,-0.050
5.301,-0.050
5.302,-0.046
5.303,-0.044
5.304,-0.047
5.305,-0.047
5.306,-0.050
5.307,-0.050
5.308,-0.050
5.309,-0.050
5.310,-0.050
5.311,-0.050
5.312,-0.046
5.313,-0.044
5.314,-0.045
5.315,-0.047
5.316,-0.044
5.317,-0.044
5.318,-0.046
5.319,-0.041
5.320,-0.045
5.321,-0.047
5.322,-0.044
5.323,-0.047
5.324,-0.048
5.325,-0.047
5.326,-0.047
5.327,-0.047
5.328,-0.046
5.329,-0.044
5.330,-0.045
5.331,-0.047
5.332,-0.047
5.333,-0.050
5.334,-0.046
5.335,-0.044
5.336,-0.043
5.337,-0.041
5.338,-0.041
5.339,-0.038
5.340,-0.041
5.341,-0.038
5.342,-0.034
5.343,-0.034
5.344,-0.034
5.345,-0.034
5.346,-0.034
5.347,-0.034
5.348,-0.034
5.349,-0.034
5.350,-0.034
5.351,-0.034
5.352,-0.036
5.353,-0.034
5.354,-0.034
5.355,-0.034
5.356,-0.028
5.357,-0.028
5.358,-0.027
5.359,-0.028
5.360,-0.026
5.361,-0.028
5.362,-0.029
5.363,-0.031
5.364,-0.028
5.365,-0.028
5.366,-0.029
5.367,-0.031
5.368,-0.031
5.369,-0.031
5.370,-0.031
5.371,-0.031
5.372,-0.029
5.373,-0.031
5.374,-0.034
5.375,-0.034
5.376,-0.033
5.377,-0.031
5.378,-0.038
5.379,-0.034
5.380,-0.034
5.381,-0.034
5.382,-0.036
5.383,-0.038
5.384,-0.034
5.385,-0.034
5.386,-0.034
5.387,-0.034
5.388,-0.034
5.389,-0.031
5.390,-0.031
5.391,-0.031
5.392,-0.030
5.393,-0.028
5.394,-0.028
5.395,-0.028
5.396,-0.028
5.397,-0.031
5.398,-0.028
5.399,-0.028
5.400,-0.033
5.401,-0.031
5.402,-0.034
5.403,-0.031
5.404,-0.031
5.405,-0.031
5.406,-0.033
5.407,-0.034
5.408,-0.034
5.409,-0.034
5.410,-0.034
5.411,-0.034
5.412,-0.034
5.413,-0.034
5.414,-0.033
5.415,-0.034
5.416,-0.034
5.417,-0.034
5.418,-0.036
5.419,-0.034
5.420,-0.033
5.421,-0.031
5.422,-0.027
5.423,-0.025
5.424,-0.025
5.425,-0.028
5.426,-0.036
5.427,-0.041
5.428,-0.041
5.429,-0.041
5.430,-0.042
5.431,-0.041
5.432,-0.038
5.433,-0.034
5.434,-0.031
5.435,-0.031
5.436,-0.030
5.437,-0.028
5.438,-0.029
5.439,-0.031
5.440,-0.028
5.441,-0.025
5.442,-0.021
5.443,-0.022
5.444,-0.023
5.445,-0.022
5.446,-0.020
5.447,-0.022
5.448,-0.017
5.449,-0.016
5.450,-0.009
5.451,-0.006
5.452,-0.002
5.453,0.003
5.454,0.002
5.455,0.000
5.456,0.000
5.457,-0.003
5.458,-0.001
5.459,0.000
5.460,0.000
5.461,0.000
5.462,0.004
5.463,0.006
5.464,0.012
5.465,0.016
5.466,0.016
5.467,0.016
5.468,0.019
5.469,0.019
5.470,0.022
5.471,0.025
5.472,0.027
5.473,0.028
5.474,0.029
5.475,0.031
5.476,0.032
5.477,0.037
5.478,0.037
5.479,0.037
5.480,0.037
5.481,0.037
5.482,0.039
5.483,0.041
5.484,0.042
5.485,0.041
5.486,0.045
5.487,0.047
5.488,0.047
5.489,0.050
5.490,0.051
5.491,0.053
5.492,0.056
5.493,0.056
5.494,0.053
5.495,0.050
5.496,0.053
5.497,0.053
5.498,0.053
5.499,0.053
5.500,0.049
5.501,0.047
5.502,0.048
5.503,0.047
5.504,0.047
5.505,0.047
5.506,0.048
5.507,0.047
5.508,0.048
5.509,0.047
5.510,0.047
5.511,0.047
5.512,0.041
5.513,0.037
5.514,0.037
5.515,0.034
5.516,0.033
5.517,0.031
5.518,0.031
5.519,0.031
5.520,0.027
5.521,0.022
5.522,0.019
5.523,0.019
5.524,0.019
5.525,0.019
5.526,0.019
5.527,0.019
5.528,0.017
5.529,0.016
5.530,0.017
5.531,0.016
5.532,0.014
5.533,0.016
5.534,0.011
5.535,0.012
5.536,0.014
5.537,0.016
5.538,0.012
5.539,0.012
5.540,0.012
5.541,0.012
5.542,0.016
5.543,0.019
5.544,0.014
5.545,0.012
5.546,0.016
5.547,0.012
5.548,0.012
5.549,0.012
5.550,0.014
5.551,0.009
5.552,0.008
5.553,0.006
5.554,0.006
5.555,0.006
5.556,0.007
5.557,0.006
5.558,0.005
5.559,0.003
5.560,0.000
5.561,-0.003
5.562,0.000
5.563,0.003
5.564,0.007
5.565,0.006
5.566,0.006
5.567,0.003
5.568,0.006
5.569,0.006
5.570,0.003
5.571,0.006
5.572,0.006
5.573,0.006
5.574,0.002
5.575,0.003
5.576,0.004
5.577,0.006
5.578,0.003
5.579,0.003
5.580,0.003
5.581,0.006
5.582,0.006
5.583,0.006
5.584,0.006
5.585,0.006
5.586,0.002
5.587,0.000
5.588,0.003
5.589,0.003
5.590,0.004
5.591,0.006
5.592,0.003
5.593,0.003
5.594,0.003
5.595,0.003
5.596,0.003
5.597,0.003
5.598,0.007
5.599,0.006
5.600,0.005
5.601,0.003
5.602,0.003
5.603,0.003
5.604,0.000
5.605,0.000
5.606,0.001
5.607,0.003
5.608,-0.001
5.609,0.000
5.610,0.000
5.611,0.000
5.612,-0.003
5.613,-0.006
5.614,-0.006
5.615,-0.006
5.616,-0.008
5.617,-0.006
5.618,-0.011
5.619,-0.009
5.620,-0.009
5.621,-0.013
5.622,-0.009
5.623,-0.013
5.624,-0.013
5.625,-0.013
5.626,-0.014
5.627,-0.016
5.628,-0.016
5.629,-0.016
5.630,-0.014
5.631,-0.013
5.632,-0.014
5.633,-0.016
5.634,-0.019
5.635,-0.022
5.636,-0.021
5.637,-0.019
5.638,-0.021
5.639,-0.019
5.640,-0.022
5.641,-0.019
5.642,-0.017
5.643,-0.016
5.644,-0.022
5.645,-0.025
5.646,-0.026
5.647,-0.028
5.648,-0.028
5.649,-0.028
5.650,-0.028
5.651,-0.028
5.652,-0.028
5.653,-0.031
5.654,-0.033
5.655,-0.034
5.656,-0.033
5.657,-0.031
5.658,-0.034
5.659,-0.034
5.660,-0.033
5.661,-0.031
5.662,-0.033
5.663,-0.034
5.664,-0.033
5.665,-0.034
5.666,-0.036
5.667,-0.038
5.668,-0.034
5.669,-0.034
5.670,-0.031
5.671,-0.028
5.672,-0.031
5.673,-0.031
5.674,-0.034
5.675,-0.034
5.676,-0.038
5.677,-0.038
5.678,-0.038
5.679,-0.038
5.680,-0.036
5.681,-0.038
5.682,-0.038
5.683,-0.038
5.684,-0.036
5.685,-0.038
5.686,-0.041
5.687,-0.044
5.688,-0.044
5.689,-0.044
5.690,-0.048
5.691,-0.047
5.692,-0.047
5.693,-0.047
5.694,-0.047
5.695,-0.047
5.696,-0.046
5.697,-0.044
5.698,-0.044
5.699,-0.044
5.700,-0.047
5.701,-0.044
5.702,-0.043
5.703,-0.041
5.704,-0.041
5.705,-0.044
5.706,-0.047
5.707,-0.047
5.708,-0.047
5.709,-0.047
5.710,-0.046
5.711,-0.047
5.712,-0.046
5.713,-0.044
5.714,-0.047
5.715,-0.047
5.716,-0.045
5.717,-0.047
5.718,-0.043
5.719,-0.044
5.720,-0.048
5.721,-0.050
5.722,-0.050
5.723,-0.050
5.724,-0.049
5.725,-0.047
5.726,-0.050
5.727,-0.050
5.728,-0.051
5.729,-0.053
5.730,-0.049
5.731,-0.050
5.732,-0.050
5.733,-0.050
5.734,-0.051
5.735,-0.053
5.736,-0.053
5.737,-0.053
5.738,-0.056
5.739,-0.059
5.740,-0.058
5.741,-0.056
5.742,-0.056
5.743,-0.056
5.744,-0.053
5.745,-0.053
5.746,-0.056
5.747,-0.056
5.748,-0.056
5.749,-0.056
5.750,-0.056
5.751,-0.056
5.752,-0.056
5.753,-0.056
5.754,-0.053
5.755,-0.056
5.756,-0.056
5.757,-0.056
5.758,-0.056
5.759,-0.056
5.760,-0.056
5.761,-0.056
5.762,-0.058
5.763,-0.059
5.764,-0.061
5.765,-0.063
5.766,-0.061
5.767,-0.059
5.768,-0.059
5.769,-0.059
5.770,-0.059
5.771,-0.059
5.772,-0.061
5.773,-0.063
5.774,-0.063
5.775,-0.063
5.776,-0.063
5.777,-0.063
5.778,-0.063
5.779,-0.063
5.780,-0.063
5.781,-0.063
5.782,-0.061
5.783,-0.063
5.784,-0.063
5.785,-0.063
5.786,-0.063
5.787,-0.063
5.788,-0.063
5.789,-0.063
5.790,-0.059
5.791,-0.063
5.792,-0.061
5.793,-0.059
5.794,-0.064
5.795,-0.063
5.796,-0.063
5.797,-0.063
5.798,-0.066
5.799,-0.066
5.800,-0.064
5.801,-0.066
5.802,-0.061
5.803,-0.056
5.804,-0.061
5.805,-0.066
5.806,-0.066
5.807,-0.063
5.808,-0.056
5.809,-0.056
5.810,-0.061
5.811,-0.059
5.812,-0.061
5.813,-0.063
5.814,-0.064
5.815,-0.066
5.816,-0.063
5.817,-0.063
5.818,-0.061
5.819,-0.056
5.820,-0.059
5.821,-0.059
5.822,-0.059
5.823,-0.059
5.824,-0.059
5.825,-0.059
5.826,-0.056
5.827,-0.059
5.828,-0.058
5.829,-0.056
5.830,-0.058
5.831,-0.063
5.832,-0.064
5.833,-0.066
5.834,-0.063
5.835,-0.056
5.836,-0.044
5.837,-0.031
5.838,-0.028
5.839,-0.022
5.840,-0.019
5.841,-0.019
5.842,-0.017
5.843,-0.019
5.844,-0.017
5.845,-0.016
5.846,-0.006
5.847,0.000
5.848,0.003
5.849,0.006
5.850,0.016
5.851,0.019
5.852,0.014
5.853,0.012
5.854,0.011
5.855,0.012
5.856,0.012
5.857,0.012
5.858,0.011
5.859,0.012
5.860,0.014
5.861,0.019
5.862,0.022
5.863,0.025
5.864,0.028
5.865,0.028
5.866,0.034
5.867,0.037
5.868,0.042
5.869,0.044
5.870,0.044
5.871,0.050
5.872,0.053
5.873,0.062
5.874,0.070
5.875,0.075
5.876,0.079
5.877,0.081
5.878,0.079
5.879,0.078
5.880,0.075
5.881,0.075
5.882,0.069
5.883,0.066
5.884,0.061
5.885,0.059
5.886,0.054
5.887,0.053
5.888,0.046
5.889,0.037
5.890,0.032
5.891,0.031
5.892,0.025
5.893,0.022
5.894,0.016
5.895,0.009
5.896,0.002
5.897,-0.006
5.898,-0.009
5.899,-0.016
5.900,-0.022
5.901,-0.025
5.902,-0.026
5.903,-0.028
5.904,-0.028
5.905,-0.028
5.906,-0.033
5.907,-0.038
5.908,-0.039
5.909,-0.041
5.910,-0.047
5.911,-0.047
5.912,-0.049
5.913,-0.050
5.914,-0.051
5.915,-0.053
5.916,-0.059
5.917,-0.063
5.918,-0.064
5.919,-0.066
5.920,-0.069
5.921,-0.069
5.922,-0.069
5.923,-0.072
5.924,-0.075
5.925,-0.078
5.926,-0.079
5.927,-0.084
5.928,-0.083
5.929,-0.081
5.930,-0.078
5.931,-0.075
5.932,-0.073
5.933,-0.075
5.934,-0.078
5.935,-0.081
5.936,-0.083
5.937,-0.081
5.938,-0.078
5.939,-0.075
5.940,-0.078
5.941,-0.075
5.942,-0.072
5.943,-0.072
5.944,-0.075
5.945,-0.075
5.946,-0.073
5.947,-0.072
5.948,-0.073
5.949,-0.075
5.950,-0.072
5.951,-0.075
5.952,-0.074
5.953,-0.072
5.954,-0.073
5.955,-0.075
5.956,-0.078
5.957,-0.084
5.958,-0.086
5.959,-0.087
5.960,-0.084
5.961,-0.084
5.962,-0.084
5.963,-0.084
5.964,-0.095
5.965,-0.103
5.966,-0.105
5.967,-0.113
5.968,-0.120
5.969,-0.122
5.970,-0.125
5.971,-0.122
5.972,-0.117
5.973,-0.106
5.974,-0.095
5.975,-0.078
5.976,-0.063
5.977,-0.034
5.978,-0.008
5.979,0.025
5.980,0.062
5.981,0.106
5.982,0.157
5.983,0.212
5.984,0.266
5.985,0.319
5.986,0.366
5.987,0.409
5.988,0.459
5.989,0.522
5.990,0.591
5.991,0.666
5.992,0.739
5.993,0.797
5.994,0.853
5.995,0.906
5.996,0.954
5.997,1.003
5.998,1.047
5.999,1.069
6.000,1.083
6.001,1.075
6.002,1.059
6.003,1.009
6.004,0.947
6.005,0.875
6.006,0.797
6.007,0.719
6.008,0.650
6.009,0.587
6.010,0.523
6.011,0.463
6.012,0.400
6.013,0.334
6.014,0.272
6.015,0.209
6.016,0.139
6.017,0.081
6.018,0.027
6.019,-0.003
6.020,-0.022
6.021,-0.025
6.022,-0.026
6.023,-0.025
6.024,-0.022
6.025,-0.025
6.026,-0.038
6.027,-0.056
6.028,-0.069
6.029,-0.078
6.030,-0.087
6.031,-0.091
6.032,-0.098
6.033,-0.106
6.034,-0.109
6.035,-0.109
6.036,-0.106
6.037,-0.100
6.038,-0.095
6.039,-0.094
6.040,-0.092
6.041,-0.091
6.042,-0.086
6.043,-0.081
6.044,-0.078
6.045,-0.072
6.046,-0.067
6.047,-0.066
6.048,-0.058
6.049,-0.056
6.050,-0.058
6.051,-0.059
6.052,-0.061
6.053,-0.066
6.054,-0.059
6.055,-0.063
6.056,-0.064
6.057,-0.066
6.058,-0.070
6.059,-0.072
6.060,-0.076
6.061,-0.081
6.062,-0.079
6.063,-0.081
6.064,-0.077
6.065,-0.075
6.066,-0.074
6.067,-0.072
6.068,-0.073
6.069,-0.072
6.070,-0.071
6.071,-0.072
6.072,-0.075
6.073,-0.075
6.074,-0.071
6.075,-0.069
6.076,-0.069
6.077,-0.069
6.078,-0.070
6.079,-0.072
6.080,-0.075
6.081,-0.075
6.082,-0.072
6.083,-0.072
6.084,-0.072
6.085,-0.072
6.086,-0.073
6.087,-0.075
6.088,-0.074
6.089,-0.072
6.090,-0.076
6.091,-0.078
6.092,-0.075
6.093,-0.078
6.094,-0.076
6.095,-0.081
6.096,-0.084
6.097,-0.084
6.098,-0.083
6.099,-0.081
6.100,-0.078
6.101,-0.075
6.102,-0.079
6.103,-0.078
6.104,-0.077
6.105,-0.078
6.106,-0.079
6.107,-0.081
6.108,-0.081
6.109,-0.081
6.110,-0.084
6.111,-0.084
6.112,-0.084
6.113,-0.084
6.114,-0.081
6.115,-0.081
6.116,-0.079
6.117,-0.081
6.118,-0.081
6.119,-0.081
6.120,-0.079
6.121,-0.081
6.122,-0.077
6.123,-0.075
6.124,-0.075
6.125,-0.075
6.126,-0.073
6.127,-0.075
6.128,-0.077
6.129,-0.075
6.130,-0.072
6.131,-0.069
6.132,-0.066
6.133,-0.066
6.134,-0.064
6.135,-0.066
6.136,-0.069
6.137,-0.072
6.138,-0.069
6.139,-0.069
6.140,-0.069
6.141,-0.069
6.142,-0.070
6.143,-0.072
6.144,-0.069
6.145,-0.069
6.146,-0.069
6.147,-0.069
6.148,-0.069
6.149,-0.063
6.150,-0.059
6.151,-0.063
6.152,-0.064
6.153,-0.063
6.154,-0.066
6.155,-0.066
6.156,-0.066
6.157,-0.066
6.158,-0.061
6.159,-0.059
6.160,-0.061
6.161,-0.059
6.162,-0.063
6.163,-0.063
6.164,-0.063
6.165,-0.063
6.166,-0.063
6.167,-0.063
6.168,-0.061
6.169,-0.063
6.170,-0.061
6.171,-0.059
6.172,-0.056
6.173,-0.056
6.174,-0.059
6.175,-0.056
6.176,-0.059
6.177,-0.059
6.178,-0.055
6.179,-0.056
6.180,-0.056
6.181,-0.053
6.182,-0.053
6.183,-0.053
6.184,-0.056
6.185,-0.059
6.186,-0.059
6.187,-0.059
6.188,-0.059
6.189,-0.063
6.190,-0.061
6.191,-0.063
6.192,-0.059
6.193,-0.056
6.194,-0.056
6.195,-0.053
6.196,-0.058
6.197,-0.056
6.198,-0.054
6.199,-0.056
6.200,-0.056
6.201,-0.056
6.202,-0.053
6.203,-0.050
6.204,-0.050
6.205,-0.050
6.206,-0.050
6.207,-0.050
6.208,-0.049
6.209,-0.044
6.210,-0.045
6.211,-0.047
6.212,-0.044
6.213,-0.047
6.214,-0.046
6.215,-0.047
6.216,-0.045
6.217,-0.047
6.218,-0.047
6.219,-0.047
6.220,-0.045
6.221,-0.047
6.222,-0.046
6.223,-0.044
6.224,-0.043
6.225,-0.041
6.226,-0.044
6.227,-0.047
6.228,-0.044
6.229,-0.044
6.230,-0.047
6.231,-0.047
6.232,-0.046
6.233,-0.044
6.234,-0.050
6.235,-0.047
6.236,-0.048
6.237,-0.050
6.238,-0.051
6.239,-0.053
6.240,-0.047
6.241,-0.044
6.242,-0.041
6.243,-0.038
6.244,-0.041
6.245,-0.041
6.246,-0.041
6.247,-0.041
6.248,-0.041
6.249,-0.041
6.250,-0.041
6.251,-0.041
6.252,-0.039
6.253,-0.041
6.254,-0.038
6.255,-0.038
6.256,-0.044
6.257,-0.044
6.258,-0.047
6.259,-0.044
6.260,-0.043
6.261,-0.041
6.262,-0.042
6.263,-0.044
6.264,-0.045
6.265,-0.047
6.266,-0.047
6.267,-0.047
6.268,-0.046
6.269,-0.044
6.270,-0.041
6.271,-0.041
6.272,-0.042
6.273,-0.044
6.274,-0.045
6.275,-0.044
6.276,-0.043
6.277,-0.041
6.278,-0.038
6.279,-0.038
6.280,-0.034
6.281,-0.034
6.282,-0.038
6.283,-0.038
6.284,-0.041
6.285,-0.044
6.286,-0.043
6.287,-0.038
6.288,-0.039
6.289,-0.041
6.290,-0.039
6.291,-0.041
6.292,-0.038
6.293,-0.034
6.294,-0.034
6.295,-0.034
6.296,-0.034
6.297,-0.034
6.298,-0.031
6.299,-0.034
6.300,-0.034
6.301,-0.031
6.302,-0.027
6.303,-0.025
6.304,-0.023
6.305,-0.025
6.306,-0.022
6.307,-0.022
6.308,-0.020
6.309,-0.019
6.310,-0.019
6.311,-0.019
6.312,-0.016
6.313,-0.016
6.314,-0.014
6.315,-0.013
6.316,-0.013
6.317,-0.013
6.318,-0.011
6.319,-0.013
6.320,-0.006
6.321,-0.003
6.322,0.000
6.323,0.003
6.324,0.007
6.325,0.009
6.326,0.009
6.327,0.009
6.328,0.012
6.329,0.016
6.330,0.016
6.331,0.016
6.332,0.012
6.333,0.012
6.334,0.019
6.335,0.025
6.336,0.024
6.337,0.022
6.338,0.022
6.339,0.022
6.340,0.025
6.341,0.025
6.342,0.027
6.343,0.025
6.344,0.024
6.345,0.025
6.346,0.026
6.347,0.028
6.348,0.029
6.349,0.028
6.350,0.028
6.351,0.028
6.352,0.031
6.353,0.031
6.354,0.032
6.355,0.034
6.356,0.031
6.357,0.031
6.358,0.031
6.359,0.028
6.360,0.028
6.361,0.028
6.362,0.028
6.363,0.025
6.364,0.026
6.365,0.025
6.366,0.024
6.367,0.022
6.368,0.017
6.369,0.016
6.370,0.016
6.371,0.012
6.372,0.012
6.373,0.012
6.374,0.012
6.375,0.012
6.376,0.014
6.377,0.016
6.378,0.014
6.379,0.016
6.380,0.017
6.381,0.019
6.382,0.016
6.383,0.012
6.384,0.011
6.385,0.009
6.386,0.012
6.387,0.012
6.388,0.008
6.389,0.006
6.390,0.003
6.391,0.006
6.392,0.006
6.393,0.006
6.394,0.003
6.395,0.003
6.396,0.002
6.397,0.000
6.398,0.001
6.399,0.003
6.400,0.000
6.401,0.000
6.402,0.004
6.403,0.003
6.404,0.002
6.405,0.000
6.406,0.003
6.407,0.000
6.408,0.000
6.409,0.000
6.410,0.000
6.411,0.000
6.412,0.003
6.413,0.003
6.414,0.003
6.415,0.003
6.416,0.002
6.417,0.000
6.418,0.000
6.419,0.000
6.420,0.000
6.421,-0.006
6.422,-0.006
6.423,-0.009
6.424,-0.006
6.425,-0.006
6.426,-0.011
6.427,-0.009
6.428,-0.008
6.429,-0.006
6.430,-0.011
6.431,-0.009
6.432,-0.006
6.433,-0.003
6.434,-0.006
6.435,-0.006
6.436,-0.008
6.437,-0.006
6.438,-0.008
6.439,-0.009
6.440,-0.009
6.441,-0.009
6.442,-0.014
6.443,-0.016
6.444,-0.013
6.445,-0.013
6.446,-0.011
6.447,-0.009
6.448,-0.013
6.449,-0.013
6.450,-0.013
6.451,-0.013
6.452,-0.013
6.453,-0.013
6.454,-0.009
6.455,-0.013
6.456,-0.011
6.457,-0.009
6.458,-0.008
6.459,-0.006
6.460,-0.009
6.461,-0.009
6.462,-0.009
6.463,-0.009
6.464,-0.014
6.465,-0.013
6.466,-0.014
6.467,-0.016
6.468,-0.014
6.469,-0.013
6.470,-0.013
6.471,-0.013
6.472,-0.016
6.473,-0.016
6.474,-0.020
6.475,-0.019
6.476,-0.020
6.477,-0.025
6.478,-0.022
6.479,-0.025
6.480,-0.022
6.481,-0.019
6.482,-0.019
6.483,-0.019
6.484,-0.019
6.485,-0.019
6.486,-0.019
6.487,-0.019
6.488,-0.022
6.489,-0.025
6.490,-0.025
6.491,-0.025
6.492,-0.024
6.493,-0.022
6.494,-0.026
6.495,-0.028
6.496,-0.031
6.497,-0.028
6.498,-0.027
6.499,-0.025
6.500,-0.028
6.501,-0.028
6.502,-0.028
6.503,-0.028
6.504,-0.028
6.505,-0.028
6.506,-0.028
6.507,-0.028
6.508,-0.027
6.509,-0.028
6.510,-0.028
6.511,-0.028
6.512,-0.028
6.513,-0.028
6.514,-0.031
6.515,-0.031
6.516,-0.030
6.517,-0.028
6.518,-0.028
6.519,-0.028
6.520,-0.028
6.521,-0.031
6.522,-0.031
6.523,-0.031
6.524,-0.028
6.525,-0.028
6.526,-0.027
6.527,-0.025
6.528,-0.028
6.529,-0.028
6.530,-0.029
6.531,-0.028
6.532,-0.031
6.533,-0.031
6.534,-0.031
6.535,-0.031
6.536,-0.031
6.537,-0.034
6.538,-0.034
6.539,-0.034
6.540,-0.036
6.541,-0.041
6.542,-0.042
6.543,-0.044
6.544,-0.041
6.545,-0.038
6.546,-0.041
6.547,-0.038
6.548,-0.036
6.549,-0.034
6.550,-0.034
6.551,-0.034
6.552,-0.034
6.553,-0.034
6.554,-0.034
6.555,-0.034
6.556,-0.042
6.557,-0.044
6.558,-0.044
6.559,-0.044
6.560,-0.043
6.561,-0.044
6.562,-0.045
6.563,-0.044
6.564,-0.043
6.565,-0.041
6.566,-0.041
6.567,-0.044
6.568,-0.043
6.569,-0.041
6.570,-0.041
6.571,-0.038
6.572,-0.036
6.573,-0.038
6.574,-0.034
6.575,-0.038
6.576,-0.041
6.577,-0.041
6.578,-0.041
6.579,-0.041
6.580,-0.042
6.581,-0.044
6.582,-0.047
6.583,-0.047
6.584,-0.047
6.585,-0.047
6.586,-0.044
6.587,-0.047
6.588,-0.048
6.589,-0.050
6.590,-0.050
6.591,-0.050
6.592,-0.051
6.593,-0.053
6.594,-0.052
6.595,-0.050
6.596,-0.050
6.597,-0.050
6.598,-0.051
6.599,-0.053
6.600,-0.047
6.601,-0.044
6.602,-0.048
6.603,-0.050
6.604,-0.051
6.605,-0.053
6.606,-0.053
6.607,-0.053
6.608,-0.054
6.609,-0.056
6.610,-0.053
6.611,-0.056
6.612,-0.058
6.613,-0.059
6.614,-0.058
6.615,-0.056
6.616,-0.055
6.617,-0.053
6.618,-0.053
6.619,-0.053
6.620,-0.052
6.621,-0.053
6.622,-0.053
6.623,-0.050
6.624,-0.047
6.625,-0.047
6.626,-0.047
6.627,-0.047
6.628,-0.050
6.629,-0.050
6.630,-0.049
6.631,-0.047
6.632,-0.043
6.633,-0.041
6.634,-0.042
6.635,-0.044
6.636,-0.041
6.637,-0.038
6.638,-0.039
6.639,-0.041
6.640,-0.042
6.641,-0.044
6.642,-0.044
6.643,-0.044
6.644,-0.044
6.645,-0.044
6.646,-0.044
6.647,-0.044
6.648,-0.045
6.649,-0.047
6.650,-0.047
6.651,-0.047
6.652,-0.046
6.653,-0.047
6.654,-0.047
6.655,-0.047
6.656,-0.047
6.657,-0.047
6.658,-0.048
6.659,-0.050
6.660,-0.046
6.661,-0.047
6.662,-0.047
6.663,-0.047
6.664,-0.051
6.665,-0.050
6.666,-0.047
6.667,-0.044
6.668,-0.044
6.669,-0.041
6.670,-0.041
6.671,-0.044
6.672,-0.044
6.673,-0.044
6.674,-0.046
6.675,-0.047
6.676,-0.047
6.677,-0.044
6.678,-0.041
6.679,-0.044
6.680,-0.048
6.681,-0.047
6.682,-0.046
6.683,-0.044
6.684,-0.044
6.685,-0.044
6.686,-0.043
6.687,-0.044
6.688,-0.044
6.689,-0.041
6.690,-0.039
6.691,-0.034
6.692,-0.034
6.693,-0.034
6.694,-0.036
6.695,-0.038
6.696,-0.034
6.697,-0.038
6.698,-0.038
6.699,-0.038
6.700,-0.036
6.701,-0.038
6.702,-0.038
6.703,-0.038
6.704,-0.036
6.705,-0.031
6.706,-0.022
6.707,-0.013
6.708,-0.009
6.709,-0.003
6.710,0.001
6.711,0.003
6.712,0.006
6.713,0.006
6.714,0.009
6.715,0.012
6.716,0.023
6.717,0.031
6.718,0.037
6.719,0.044
6.720,0.048
6.721,0.047
6.722,0.037
6.723,0.031
6.724,0.032
6.725,0.037
6.726,0.036
6.727,0.034
6.728,0.033
6.729,0.034
6.730,0.036
6.731,0.041
6.732,0.047
6.733,0.053
6.734,0.059
6.735,0.062
6.736,0.066
6.737,0.066
6.738,0.067
6.739,0.066
6.740,0.069
6.741,0.078
6.742,0.084
6.743,0.097
6.744,0.102
6.745,0.103
6.746,0.106
6.747,0.106
6.748,0.106
6.749,0.106
6.750,0.100
6.751,0.097
6.752,0.091
6.753,0.087
6.754,0.078
6.755,0.072
6.756,0.069
6.757,0.069
6.758,0.061
6.759,0.053
6.760,0.048
6.761,0.047
6.762,0.039
6.763,0.034
6.764,0.031
6.765,0.028
6.766,0.022
6.767,0.016
6.768,0.012
6.769,0.006
6.770,-0.004
6.771,-0.013
6.772,-0.011
6.773,-0.009
6.774,-0.006
6.775,-0.003
6.776,-0.003
6.777,-0.003
6.778,-0.006
6.779,-0.009
6.780,-0.017
6.781,-0.019
6.782,-0.022
6.783,-0.025
6.784,-0.025
6.785,-0.025
6.786,-0.029
6.787,-0.031
6.788,-0.033
6.789,-0.034
6.790,-0.041
6.791,-0.044
6.792,-0.044
6.793,-0.047
6.794,-0.047
6.795,-0.047
6.796,-0.047
6.797,-0.050
6.798,-0.050
6.799,-0.050
6.800,-0.051
6.801,-0.053
6.802,-0.049
6.803,-0.047
6.804,-0.043
6.805,-0.038
6.806,-0.041
6.807,-0.041
6.808,-0.039
6.809,-0.038
6.810,-0.044
6.811,-0.044
6.812,-0.044
6.813,-0.047
6.814,-0.051
6.815,-0.053
6.816,-0.056
6.817,-0.059
6.818,-0.061
6.819,-0.063
6.820,-0.055
6.821,-0.053
6.822,-0.052
6.823,-0.050
6.824,-0.050
6.825,-0.050
6.826,-0.049
6.827,-0.050
6.828,-0.056
6.829,-0.063
6.830,-0.064
6.831,-0.069
6.832,-0.069
6.833,-0.069
6.834,-0.078
6.835,-0.084
6.836,-0.089
6.837,-0.100
6.838,-0.106
6.839,-0.106
6.840,-0.103
6.841,-0.094
6.842,-0.084
6.843,-0.069
6.844,-0.056
6.845,-0.038
6.846,-0.021
6.847,0.009
6.848,0.036
6.849,0.069
6.850,0.109
6.851,0.156
6.852,0.205
6.853,0.256
6.854,0.308
6.855,0.359
6.856,0.409
6.857,0.456
6.858,0.511
6.859,0.578
6.860,0.648
6.861,0.725
6.862,0.796
6.863,0.850
6.864,0.908
6.865,0.962
6.866,1.013
6.867,1.062
6.868,1.096
6.869,1.106
6.870,1.112
6.871,1.097
6.872,1.071
6.873,1.009
6.874,0.947
6.875,0.875
6.876,0.804
6.877,0.734
6.878,0.664
6.879,0.600
6.880,0.537
6.881,0.478
6.882,0.417
6.883,0.353
6.884,0.288
6.885,0.222
6.886,0.159
6.887,0.109
6.888,0.066
6.889,0.047
6.890,0.031
6.891,0.031
6.892,0.030
6.893,0.031
6.894,0.027
6.895,0.016
6.896,0.005
6.897,-0.013
6.898,-0.027
6.899,-0.038
6.900,-0.047
6.901,-0.050
6.902,-0.055
6.903,-0.059
6.904,-0.063
6.905,-0.063
6.906,-0.066
6.907,-0.066
6.908,-0.058
6.909,-0.053
6.910,-0.051
6.911,-0.050
6.912,-0.047
6.913,-0.044
6.914,-0.041
6.915,-0.034
6.916,-0.033
6.917,-0.034
6.918,-0.028
6.919,-0.028
6.920,-0.028
6.921,-0.028
6.922,-0.027
6.923,-0.028
6.924,-0.025
6.925,-0.031
6.926,-0.033
6.927,-0.034
6.928,-0.039
6.929,-0.041
6.930,-0.043
6.931,-0.044
6.932,-0.041
6.933,-0.041
6.934,-0.036
6.935,-0.034
6.936,-0.034
6.937,-0.034
6.938,-0.036
6.939,-0.034
6.940,-0.033
6.941,-0.034
6.942,-0.039
6.943,-0.041
6.944,-0.038
6.945,-0.038
6.946,-0.041
6.947,-0.044
6.948,-0.045
6.949,-0.047
6.950,-0.046
6.951,-0.041
6.952,-0.039
6.953,-0.041
6.954,-0.042
6.955,-0.044
6.956,-0.044
6.957,-0.044
6.958,-0.043
6.959,-0.041
6.960,-0.044
6.961,-0.044
6.962,-0.042
6.963,-0.047
6.964,-0.044
6.965,-0.047
6.966,-0.049
6.967,-0.047
6.968,-0.044
6.969,-0.041
6.970,-0.042
6.971,-0.044
6.972,-0.050
6.973,-0.050
6.974,-0.049
6.975,-0.050
6.976,-0.049
6.977,-0.047
6.978,-0.043
6.979,-0.038
6.980,-0.041
6.981,-0.041
6.982,-0.039
6.983,-0.038
6.984,-0.038
6.985,-0.041
6.986,-0.034
6.987,-0.031
6.988,-0.033
6.989,-0.034
6.990,-0.031
6.991,-0.031
6.992,-0.034
6.993,-0.041
6.994,-0.042
6.995,-0.044
6.996,-0.042
6.997,-0.044
6.998,-0.046
6.999,-0.044
7.000,-0.043
7.001,-0.041
7.002,-0.039
7.003,-0.041
7.004,-0.036
7.005,-0.034
7.006,-0.031
7.007,-0.028
7.008,-0.027
7.009,-0.028
7.010,-0.028
7.011,-0.028
7.012,-0.029
7.013,-0.031
7.014,-0.028
7.015,-0.028
7.016,-0.028
7.017,-0.028
7.018,-0.033
7.019,-0.031
7.020,-0.028
7.021,-0.031
7.022,-0.034
7.023,-0.034
7.024,-0.036
7.025,-0.034
7.026,-0.034
7.027,-0.034
7.028,-0.033
7.029,-0.034
7.030,-0.033
7.031,-0.028
7.032,-0.027
7.033,-0.022
7.034,-0.022
7.035,-0.022
7.036,-0.022
7.037,-0.022
7.038,-0.020
7.039,-0.022
7.040,-0.021
7.041,-0.019
7.042,-0.017
7.043,-0.019
7.044,-0.023
7.045,-0.022
7.046,-0.028
7.047,-0.031
7.048,-0.028
7.049,-0.031
7.050,-0.033
7.051,-0.031
7.052,-0.031
7.053,-0.031
7.054,-0.033
7.055,-0.034
7.056,-0.034
7.057,-0.034
7.058,-0.031
7.059,-0.031
7.060,-0.028
7.061,-0.028
7.062,-0.029
7.063,-0.031
7.064,-0.031
7.065,-0.028
7.066,-0.031
7.067,-0.028
7.068,-0.024
7.069,-0.022
7.070,-0.022
7.071,-0.022
7.072,-0.022
7.073,-0.022
7.074,-0.021
7.075,-0.019
7.076,-0.019
7.077,-0.019
7.078,-0.020
7.079,-0.019
7.080,-0.019
7.081,-0.019
7.082,-0.016
7.083,-0.019
7.084,-0.022
7.085,-0.028
7.086,-0.024
7.087,-0.022
7.088,-0.019
7.089,-0.016
7.090,-0.014
7.091,-0.016
7.092,-0.016
7.093,-0.016
7.094,-0.019
7.095,-0.022
7.096,-0.021
7.097,-0.019
7.098,-0.014
7.099,-0.013
7.100,-0.014
7.101,-0.013
7.102,-0.016
7.103,-0.019
7.104,-0.026
7.105,-0.025
7.106,-0.024
7.107,-0.022
7.108,-0.022
7.109,-0.022
7.110,-0.020
7.111,-0.022
7.112,-0.021
7.113,-0.019
7.114,-0.022
7.115,-0.022
7.116,-0.022
7.117,-0.022
7.118,-0.022
7.119,-0.022
7.120,-0.022
7.121,-0.022
7.122,-0.021
7.123,-0.022
7.124,-0.017
7.125,-0.016
7.126,-0.019
7.127,-0.016
7.128,-0.022
7.129,-0.022
7.130,-0.023
7.131,-0.025
7.132,-0.025
7.133,-0.025
7.134,-0.022
7.135,-0.019
7.136,-0.019
7.137,-0.019
7.138,-0.022
7.139,-0.025
7.140,-0.025
7.141,-0.028
7.142,-0.028
7.143,-0.028
7.144,-0.029
7.145,-0.028
7.146,-0.028
7.147,-0.028
7.148,-0.026
7.149,-0.028
7.150,-0.025
7.151,-0.025
7.152,-0.024
7.153,-0.019
7.154,-0.019
7.155,-0.019
7.156,-0.020
7.157,-0.019
7.158,-0.020
7.159,-0.022
7.160,-0.020
7.161,-0.022
7.162,-0.022
7.163,-0.022
7.164,-0.021
7.165,-0.019
7.166,-0.019
7.167,-0.019
7.168,-0.017
7.169,-0.022
7.170,-0.023
7.171,-0.022
7.172,-0.019
7.173,-0.019
7.174,-0.017
7.175,-0.019
7.176,-0.014
7.177,-0.013
7.178,-0.006
7.179,0.000
7.180,0.001
7.181,0.003
7.182,0.003
7.183,0.000
7.184,0.000
7.185,0.000
7.186,0.003
7.187,0.006
7.188,0.014
7.189,0.019
7.190,0.022
7.191,0.022
7.192,0.022
7.193,0.022
7.194,0.025
7.195,0.025
7.196,0.027
7.197,0.028
7.198,0.028
7.199,0.028
7.200,0.029
7.201,0.031
7.202,0.032
7.203,0.037
7.204,0.041
7.205,0.044
7.206,0.044
7.207,0.044
7.208,0.042
7.209,0.041
7.210,0.044
7.211,0.044
7.212,0.047
7.213,0.047
7.214,0.046
7.215,0.047
7.216,0.047
7.217,0.047
7.218,0.048
7.219,0.047
7.220,0.044
7.221,0.041
7.222,0.044
7.223,0.044
7.224,0.044
7.225,0.044
7.226,0.037
7.227,0.034
7.228,0.034
7.229,0.031
7.230,0.031
7.231,0.031
7.232,0.032
7.233,0.031
7.234,0.031
7.235,0.028
7.236,0.028
7.237,0.028
7.238,0.028
7.239,0.031
7.240,0.031
7.241,0.028
7.242,0.028
7.243,0.028
7.244,0.028
7.245,0.028
7.246,0.026
7.247,0.025
7.248,0.022
7.249,0.022
7.250,0.019
7.251,0.016
7.252,0.016
7.253,0.016
7.254,0.017
7.255,0.019
7.256,0.017
7.257,0.012
7.258,0.009
7.259,0.009
7.260,0.005
7.261,0.006
7.262,0.007
7.263,0.009
7.264,0.006
7.265,0.006
7.266,0.006
7.267,0.006
7.268,0.003
7.269,0.000
7.270,-0.003
7.271,-0.003
7.272,0.003
7.273,0.003
7.274,0.002
7.275,0.000
7.276,0.004
7.277,0.003
7.278,0.003
7.279,0.003
7.280,0.002
7.281,0.000
7.282,0.001
7.283,0.000
7.284,-0.003
7.285,-0.006
7.286,-0.008
7.287,-0.009
7.288,-0.008
7.289,-0.006
7.290,-0.002
7.291,-0.003
7.292,-0.004
7.293,-0.009
7.294,-0.006
7.295,-0.006
7.296,-0.011
7.297,-0.009
7.298,-0.008
7.299,-0.006
7.300,-0.011
7.301,-0.009
7.302,-0.006
7.303,-0.003
7.304,-0.006
7.305,-0.006
7.306,-0.009
7.307,-0.009
7.308,-0.011
7.309,-0.013
7.310,-0.011
7.311,-0.009
7.312,-0.009
7.313,-0.006
7.314,-0.004
7.315,-0.006
7.316,-0.008
7.317,-0.009
7.318,-0.014
7.319,-0.016
7.320,-0.014
7.321,-0.013
7.322,-0.013
7.323,-0.013
7.324,-0.008
7.325,-0.009
7.326,-0.009
7.327,-0.009
7.328,-0.006
7.329,-0.003
7.330,-0.006
7.331,-0.006
7.332,-0.005
7.333,-0.003
7.334,-0.009
7.335,-0.009
7.336,-0.013
7.337,-0.016
7.338,-0.016
7.339,-0.016
7.340,-0.016
7.341,-0.016
7.342,-0.022
7.343,-0.025
7.344,-0.028
7.345,-0.025
7.346,-0.022
7.347,-0.022
7.348,-0.020
7.349,-0.025
7.350,-0.026
7.351,-0.028
7.352,-0.028
7.353,-0.028
7.354,-0.028
7.355,-0.028
7.356,-0.027
7.357,-0.025
7.358,-0.028
7.359,-0.031
7.360,-0.036
7.361,-0.041
7.362,-0.039
7.363,-0.038
7.364,-0.039
7.365,-0.038
7.366,-0.044
7.367,-0.044
7.368,-0.043
7.369,-0.041
7.370,-0.044
7.371,-0.044
7.372,-0.043
7.373,-0.041
7.374,-0.041
7.375,-0.041
7.376,-0.041
7.377,-0.041
7.378,-0.039
7.379,-0.041
7.380,-0.042
7.381,-0.044
7.382,-0.047
7.383,-0.050
7.384,-0.053
7.385,-0.053
7.386,-0.052
7.387,-0.050
7.388,-0.050
7.389,-0.050
7.390,-0.051
7.391,-0.056
7.392,-0.056
7.393,-0.056
7.394,-0.053
7.395,-0.053
7.396,-0.053
7.397,-0.053
7.398,-0.056
7.399,-0.056
7.400,-0.056
7.401,-0.053
7.402,-0.056
7.403,-0.056
7.404,-0.056
7.405,-0.056
7.406,-0.058
7.407,-0.063
7.408,-0.063
7.409,-0.063
7.410,-0.063
7.411,-0.066
7.412,-0.066
7.413,-0.066
7.414,-0.066
7.415,-0.066
7.416,-0.069
7.417,-0.066
7.418,-0.066
7.419,-0.066
7.420,-0.067
7.421,-0.069
7.422,-0.069
7.423,-0.069
7.424,-0.068
7.425,-0.066
7.426,-0.066
7.427,-0.059
7.428,-0.063
7.429,-0.066
7.430,-0.067
7.431,-0.072
7.432,-0.072
7.433,-0.069
7.434,-0.069
7.435,-0.069
7.436,-0.069
7.437,-0.072
7.438,-0.071
7.439,-0.069
7.440,-0.073
7.441,-0.075
7.442,-0.072
7.443,-0.072
7.444,-0.066
7.445,-0.066
7.446,-0.069
7.447,-0.069
7.448,-0.070
7.449,-0.072
7.450,-0.072
7.451,-0.072
7.452,-0.075
7.453,-0.075
7.454,-0.075
7.455,-0.075
7.456,-0.072
7.457,-0.075
7.458,-0.076
7.459,-0.078
7.460,-0.078
7.461,-0.078
7.462,-0.079
7.463,-0.081
7.464,-0.083
7.465,-0.084
7.466,-0.080
7.467,-0.075
7.468,-0.076
7.469,-0.078
7.470,-0.075
7.471,-0.075
7.472,-0.077
7.473,-0.075
7.474,-0.076
7.475,-0.078
7.476,-0.079
7.477,-0.081
7.478,-0.081
7.479,-0.081
7.480,-0.077
7.481,-0.078
7.482,-0.075
7.483,-0.072
7.484,-0.073
7.485,-0.075
7.486,-0.075
7.487,-0.075
7.488,-0.078
7.489,-0.081
7.490,-0.078
7.491,-0.075
7.492,-0.076
7.493,-0.078
7.494,-0.078
7.495,-0.078
7.496,-0.078
7.497,-0.078
7.498,-0.079
7.499,-0.081
7.500,-0.083
7.501,-0.084
7.502,-0.087
7.503,-0.091
7.504,-0.092
7.505,-0.094
7.506,-0.094
7.507,-0.094
7.508,-0.093
7.509,-0.094
7.510,-0.089
7.511,-0.084
7.512,-0.086
7.513,-0.087
7.514,-0.087
7.515,-0.087
7.516,-0.081
7.517,-0.081
7.518,-0.081
7.519,-0.081
7.520,-0.086
7.521,-0.084
7.522,-0.083
7.523,-0.081
7.524,-0.081
7.525,-0.078
7.526,-0.078
7.527,-0.081
7.528,-0.084
7.529,-0.087
7.530,-0.087
7.531,-0.087
7.532,-0.089
7.533,-0.087
7.534,-0.083
7.535,-0.084
7.536,-0.086
7.537,-0.081
7.538,-0.080
7.539,-0.078
7.540,-0.078
7.541,-0.078
7.542,-0.078
7.543,-0.081
7.544,-0.084
7.545,-0.084
7.546,-0.086
7.547,-0.084
7.548,-0.084
7.549,-0.084
7.550,-0.083
7.551,-0.081
7.552,-0.078
7.553,-0.081
7.554,-0.084
7.555,-0.087
7.556,-0.086
7.557,-0.087
7.558,-0.081
7.559,-0.075
7.560,-0.072
7.561,-0.066
7.562,-0.053
7.563,-0.041
7.564,-0.039
7.565,-0.034
7.566,-0.034
7.567,-0.038
7.568,-0.036
7.569,-0.038
7.570,-0.036
7.571,-0.034
7.572,-0.024
7.573,-0.016
7.574,-0.006
7.575,0.003
7.576,0.006
7.577,0.003
7.578,-0.003
7.579,-0.006
7.580,-0.008
7.581,-0.006
7.582,-0.008
7.583,-0.009
7.584,-0.009
7.585,-0.006
7.586,-0.008
7.587,-0.006
7.588,0.000
7.589,0.006
7.590,0.012
7.591,0.016
7.592,0.020
7.593,0.022
7.594,0.026
7.595,0.028
7.596,0.032
7.597,0.044
7.598,0.046
7.599,0.053
7.600,0.056
7.601,0.056
7.602,0.055
7.603,0.050
7.604,0.048
7.605,0.047
7.606,0.045
7.607,0.047
7.608,0.041
7.609,0.037
7.610,0.028
7.611,0.022
7.612,0.012
7.613,0.006
7.614,0.001
7.615,-0.003
7.616,-0.002
7.617,0.003
7.618,-0.003
7.619,-0.006
7.620,-0.013
7.621,-0.019
7.622,-0.025
7.623,-0.031
7.624,-0.034
7.625,-0.041
7.626,-0.047
7.627,-0.050
7.628,-0.050
7.629,-0.050
7.630,-0.053
7.631,-0.056
7.632,-0.058
7.633,-0.059
7.634,-0.064
7.635,-0.069
7.636,-0.072
7.637,-0.069
7.638,-0.071
7.639,-0.072
7.640,-0.078
7.641,-0.084
7.642,-0.087
7.643,-0.087
7.644,-0.091
7.645,-0.094
7.646,-0.098
7.647,-0.100
7.648,-0.100
7.649,-0.103
7.650,-0.106
7.651,-0.109
7.652,-0.105
7.653,-0.103
7.654,-0.103
7.655,-0.103
7.656,-0.103
7.657,-0.103
7.658,-0.096
7.659,-0.091
7.660,-0.092
7.661,-0.094
7.662,-0.098
7.663,-0.100
7.664,-0.101
7.665,-0.103
7.666,-0.109
7.667,-0.109
7.668,-0.105
7.669,-0.103
7.670,-0.106
7.671,-0.106
7.672,-0.100
7.673,-0.094
7.674,-0.091
7.675,-0.087
7.676,-0.087
7.677,-0.094
7.678,-0.094
7.679,-0.094
7.680,-0.095
7.681,-0.097
7.682,-0.097
7.683,-0.100
7.684,-0.102
7.685,-0.103
7.686,-0.102
7.687,-0.103
7.688,-0.103
7.689,-0.103
7.690,-0.116
7.691,-0.125
7.692,-0.127
7.693,-0.134
7.694,-0.141
7.695,-0.141
7.696,-0.145
7.697,-0.144
7.698,-0.141
7.699,-0.131
7.700,-0.122
7.701,-0.106
7.702,-0.091
7.703,-0.063
7.704,-0.036
7.705,-0.003
7.706,0.036
7.707,0.081
7.708,0.131
7.709,0.184
7.710,0.236
7.711,0.288
7.712,0.339
7.713,0.387
7.714,0.437
7.715,0.500
7.716,0.566
7.717,0.638
7.718,0.714
7.719,0.775
7.720,0.831
7.721,0.884
7.722,0.932
7.723,0.981
7.724,1.023
7.725,1.044
7.726,1.057
7.727,1.050
7.728,1.032
7.729,0.981
7.730,0.922
7.731,0.853
7.732,0.781
7.733,0.709
7.734,0.641
7.735,0.578
7.736,0.511
7.737,0.447
7.738,0.386
7.739,0.322
7.740,0.261
7.741,0.200
7.742,0.130
7.743,0.072
7.744,0.021
7.745,-0.006
7.746,-0.029
7.747,-0.038
7.748,-0.041
7.749,-0.041
7.750,-0.039
7.751,-0.044
7.752,-0.052
7.753,-0.066
7.754,-0.080
7.755,-0.091
7.756,-0.100
7.757,-0.103
7.758,-0.109
7.759,-0.116
7.760,-0.120
7.761,-0.122
7.762,-0.125
7.763,-0.125
7.764,-0.120
7.765,-0.119
7.766,-0.116
7.767,-0.113
7.768,-0.106
7.769,-0.100
7.770,-0.096
7.771,-0.087
7.772,-0.080
7.773,-0.075
7.774,-0.068
7.775,-0.066
7.776,-0.066
7.777,-0.066
7.778,-0.063
7.779,-0.063
7.780,-0.056
7.781,-0.059
7.782,-0.067
7.783,-0.075
7.784,-0.077
7.785,-0.075
7.786,-0.077
7.787,-0.078
7.788,-0.075
7.789,-0.075
7.790,-0.071
7.791,-0.069
7.792,-0.069
7.793,-0.069
7.794,-0.070
7.795,-0.069
7.796,-0.066
7.797,-0.066
7.798,-0.070
7.799,-0.072
7.800,-0.075
7.801,-0.081
7.802,-0.081
7.803,-0.081
7.804,-0.083
7.805,-0.084
7.806,-0.084
7.807,-0.081
7.808,-0.077
7.809,-0.075
7.810,-0.075
7.811,-0.075
7.812,-0.075
7.813,-0.075
7.814,-0.075
7.815,-0.075
7.816,-0.078
7.817,-0.078
7.818,-0.075
7.819,-0.078
7.820,-0.074
7.821,-0.075
7.822,-0.078
7.823,-0.078
7.824,-0.076
7.825,-0.075
7.826,-0.072
7.827,-0.069
7.828,-0.071
7.829,-0.066
7.830,-0.064
7.831,-0.066
7.832,-0.067
7.833,-0.069
7.834,-0.070
7.835,-0.072
7.836,-0.075
7.837,-0.075
7.838,-0.072
7.839,-0.069
7.840,-0.068
7.841,-0.069
7.842,-0.067
7.843,-0.069
7.844,-0.069
7.845,-0.069
7.846,-0.067
7.847,-0.069
7.848,-0.069
7.849,-0.072
7.850,-0.073
7.851,-0.075
7.852,-0.072
7.853,-0.072
7.854,-0.074
7.855,-0.072
7.856,-0.073
7.857,-0.075
7.858,-0.072
7.859,-0.072
7.860,-0.068
7.861,-0.066
7.862,-0.066
7.863,-0.066
7.864,-0.066
7.865,-0.069
7.866,-0.070
7.867,-0.072
7.868,-0.072
7.869,-0.072
7.870,-0.068
7.871,-0.066
7.872,-0.064
7.873,-0.063
7.874,-0.067
7.875,-0.066
7.876,-0.063
7.877,-0.066
7.878,-0.067
7.879,-0.066
7.880,-0.069
7.881,-0.069
7.882,-0.069
7.883,-0.069
7.884,-0.066
7.885,-0.066
7.886,-0.066
7.887,-0.063
7.888,-0.066
7.889,-0.066
7.890,-0.061
7.891,-0.056
7.892,-0.055
7.893,-0.053
7.894,-0.050
7.895,-0.050
7.896,-0.051
7.897,-0.053
7.898,-0.050
7.899,-0.050
7.900,-0.052
7.901,-0.047
7.902,-0.051
7.903,-0.053
7.904,-0.050
7.905,-0.053
7.906,-0.053
7.907,-0.050
7.908,-0.050
7.909,-0.050
7.910,-0.047
7.911,-0.044
7.912,-0.045
7.913,-0.047
7.914,-0.046
7.915,-0.047
7.916,-0.047
7.917,-0.050
7.918,-0.051
7.919,-0.053
7.920,-0.053
7.921,-0.050
7.922,-0.054
7.923,-0.053
7.924,-0.051
7.925,-0.053
7.926,-0.053
7.927,-0.053
7.928,-0.053
7.929,-0.053
7.930,-0.053
7.931,-0.053
7.932,-0.050
7.933,-0.047
7.934,-0.048
7.935,-0.047
7.936,-0.048
7.937,-0.050
7.938,-0.046
7.939,-0.047
7.940,-0.047
7.941,-0.050
7.942,-0.048
7.943,-0.050
7.944,-0.050
7.945,-0.050
7.946,-0.046
7.947,-0.044
7.948,-0.043
7.949,-0.041
7.950,-0.039
7.951,-0.038
7.952,-0.038
7.953,-0.038
7.954,-0.033
7.955,-0.031
7.956,-0.034
7.957,-0.034
7.958,-0.039
7.959,-0.044
7.960,-0.051
7.961,-0.050
7.962,-0.050
7.963,-0.050
7.964,-0.047
7.965,-0.044
7.966,-0.041
7.967,-0.041
7.968,-0.042
7.969,-0.044
7.970,-0.047
7.971,-0.047
7.972,-0.047
7.973,-0.047
7.974,-0.048
7.975,-0.050
7.976,-0.050
7.977,-0.050
7.978,-0.050
7.979,-0.053
7.980,-0.049
7.981,-0.047
7.982,-0.050
7.983,-0.047
7.984,-0.050
7.985,-0.047
7.986,-0.047
7.987,-0.047
7.988,-0.048
7.989,-0.050
7.990,-0.050
7.991,-0.050
7.992,-0.050
7.993,-0.050
7.994,-0.049
7.995,-0.047
7.996,-0.046
7.997,-0.047
7.998,-0.048
7.999,-0.050
8.000,-0.051
8.001,-0.050
8.002,-0.050
8.003,-0.050
8.004,-0.046
8.005,-0.044
8.006,-0.039
8.007,-0.038
8.008,-0.042
8.009,-0.044
8.010,-0.044
8.011,-0.044
8.012,-0.043
8.013,-0.038
8.014,-0.038
8.015,-0.038
8.016,-0.036
8.017,-0.038
8.018,-0.041
8.019,-0.044
8.020,-0.045
8.021,-0.047
8.022,-0.047
8.023,-0.047
8.024,-0.039
8.025,-0.038
8.026,-0.038
8.027,-0.034
8.028,-0.033
8.029,-0.034
8.030,-0.033
8.031,-0.034
8.032,-0.031
8.033,-0.031
8.034,-0.024
8.035,-0.016
8.036,-0.019
8.037,-0.022
8.038,-0.020
8.039,-0.022
8.040,-0.019
8.041,-0.016
8.042,-0.014
8.043,-0.013
8.044,-0.008
8.045,-0.006
8.046,-0.002
8.047,0.000
8.048,0.002
8.049,0.003
8.050,0.005
8.051,0.003
8.052,0.009
8.053,0.016
8.054,0.022
8.055,0.028
8.056,0.028
8.057,0.028
8.058,0.028
8.059,0.031
8.060,0.036
8.061,0.041
8.062,0.039
8.063,0.037
8.064,0.036
8.065,0.034
8.066,0.037
8.067,0.037
8.068,0.039
8.069,0.037
8.070,0.039
8.071,0.044
8.072,0.044
8.073,0.044
8.074,0.044
8.075,0.041
8.076,0.041
8.077,0.041
8.078,0.044
8.079,0.044
8.080,0.045
8.081,0.047
8.082,0.041
8.083,0.037
8.084,0.041
8.085,0.041
8.086,0.039
8.087,0.037
8.088,0.036
8.089,0.031
8.090,0.032
8.091,0.031
8.092,0.032
8.093,0.034
8.094,0.031
8.095,0.031
8.096,0.031
8.097,0.028
8.098,0.027
8.099,0.025
8.100,0.028
8.101,0.031
8.102,0.031
8.103,0.031
8.104,0.029
8.105,0.031
8.106,0.025
8.107,0.019
8.108,0.020
8.109,0.022
8.110,0.023
8.111,0.025
8.112,0.025
8.113,0.022
8.114,0.020
8.115,0.022
8.116,0.017
8.117,0.019
8.118,0.020
8.119,0.022
8.120,0.017
8.121,0.016
8.122,0.016
8.123,0.016
8.124,0.016
8.125,0.016
8.126,0.012
8.127,0.012
8.128,0.016
8.129,0.012
8.130,0.012
8.131,0.012
8.132,0.016
8.133,0.012
8.134,0.012
8.135,0.012
8.136,0.011
8.137,0.009
8.138,0.009
8.139,0.006
8.140,0.006
8.141,0.006
8.142,0.007
8.143,0.009
8.144,0.012
8.145,0.016
8.146,0.019
8.147,0.016
8.148,0.016
8.149,0.012
8.150,0.014
8.151,0.012
8.152,0.008
8.153,0.009
8.154,0.012
8.155,0.016
8.156,0.014
8.157,0.019
8.158,0.016
8.159,0.012
8.160,0.009
8.161,0.009
8.162,0.006
8.163,0.006
8.164,0.006
8.165,0.006
8.166,0.007
8.167,0.009
8.168,0.005
8.169,0.003
8.170,0.006
8.171,0.006
8.172,0.009
8.173,0.012
8.174,0.009
8.175,0.009
8.176,0.008
8.177,0.006
8.178,0.007
8.179,0.009
8.180,0.012
8.181,0.009
8.182,0.008
8.183,0.006
8.184,0.005
8.185,0.003
8.186,-0.001
8.187,-0.003
8.188,-0.002
8.189,0.000
8.190,0.000
8.191,0.006
8.192,0.005
8.193,0.003
8.194,0.003
8.195,0.003
8.196,0.002
8.197,0.000
8.198,-0.003
8.199,-0.003
8.200,-0.008
8.201,-0.006
8.202,-0.003
8.203,-0.003
8.204,-0.001
8.205,-0.006
8.206,-0.006
8.207,-0.006
8.208,-0.006
8.209,-0.006
8.210,-0.008
8.211,-0.009
8.212,-0.008
8.213,-0.006
8.214,-0.008
8.215,-0.009
8.216,-0.009
8.217,-0.009
8.218,-0.008
8.219,-0.006
8.220,-0.013
8.221,-0.016
8.222,-0.019
8.223,-0.016
8.224,-0.013
8.225,-0.009
8.226,-0.013
8.227,-0.013
8.228,-0.013
8.229,-0.013
8.230,-0.014
8.231,-0.016
8.232,-0.014
8.233,-0.013
8.234,-0.011
8.235,-0.013
8.236,-0.014
8.237,-0.016
8.238,-0.014
8.239,-0.013
8.240,-0.019
8.241,-0.022
8.242,-0.023
8.243,-0.025
8.244,-0.025
8.245,-0.025
8.246,-0.024
8.247,-0.025
8.248,-0.024
8.249,-0.022
8.250,-0.020
8.251,-0.022
8.252,-0.022
8.253,-0.022
8.254,-0.025
8.255,-0.025
8.256,-0.024
8.257,-0.019
8.258,-0.021
8.259,-0.019
8.260,-0.019
8.261,-0.019
8.262,-0.017
8.263,-0.019
8.264,-0.019
8.265,-0.019
8.266,-0.017
8.267,-0.019
8.268,-0.020
8.269,-0.022
8.270,-0.021
8.271,-0.019
8.272,-0.023
8.273,-0.022
8.274,-0.021
8.275,-0.019
8.276,-0.022
8.277,-0.025
8.278,-0.025
8.279,-0.025
8.280,-0.025
8.281,-0.025
8.282,-0.025
8.283,-0.019
8.284,-0.019
8.285,-0.019
8.286,-0.017
8.287,-0.019
8.288,-0.022
8.289,-0.022
8.290,-0.025
8.291,-0.028
8.292,-0.028
8.293,-0.031
8.294,-0.030
8.295,-0.028
8.296,-0.028
8.297,-0.025
8.298,-0.022
8.299,-0.022
8.300,-0.020
8.301,-0.025
8.302,-0.029
8.303,-0.031
8.304,-0.031
8.305,-0.031
8.306,-0.030
8.307,-0.028
8.308,-0.033
8.309,-0.034
8.310,-0.036
8.311,-0.038
8.312,-0.034
8.313,-0.038
8.314,-0.038
8.315,-0.038
8.316,-0.038
8.317,-0.038
8.318,-0.039
8.319,-0.041
8.320,-0.041
8.321,-0.041
8.322,-0.038
8.323,-0.034
8.324,-0.034
8.325,-0.034
8.326,-0.034
8.327,-0.034
8.328,-0.034
8.329,-0.034
8.330,-0.033
8.331,-0.031
8.332,-0.031
8.333,-0.031
8.334,-0.033
8.335,-0.034
8.336,-0.038
8.337,-0.041
8.338,-0.039
8.339,-0.038
8.340,-0.039
8.341,-0.038
8.342,-0.038
8.343,-0.038
8.344,-0.038
8.345,-0.038
8.346,-0.038
8.347,-0.034
8.348,-0.034
8.349,-0.031
8.350,-0.030
8.351,-0.031
8.352,-0.029
8.353,-0.031
8.354,-0.033
8.355,-0.034
8.356,-0.031
8.357,-0.031
8.358,-0.033
8.359,-0.031
8.360,-0.030
8.361,-0.031
8.362,-0.038
8.363,-0.041
8.364,-0.039
8.365,-0.038
8.366,-0.038
8.367,-0.038
8.368,-0.036
8.369,-0.038
8.370,-0.038
8.371,-0.038
8.372,-0.036
8.373,-0.034
8.374,-0.038
8.375,-0.038
8.376,-0.034
8.377,-0.034
8.378,-0.031
8.379,-0.031
8.380,-0.031
8.381,-0.031
8.382,-0.031
8.383,-0.028
8.384,-0.030
8.385,-0.028
8.386,-0.025
8.387,-0.019
8.388,-0.019
8.389,-0.016
8.390,-0.009
8.391,-0.003
8.392,0.002
8.393,0.006
8.394,0.016
8.395,0.019
8.396,0.019
8.397,0.019
8.398,0.017
8.399,0.022
8.400,0.025
8.401,0.031
8.402,0.034
8.403,0.041
8.404,0.046
8.405,0.047
8.406,0.047
8.407,0.047
8.408,0.047
8.409,0.044
8.410,0.041
8.411,0.041
8.412,0.039
8.413,0.034
8.414,0.034
8.415,0.034
8.416,0.041
8.417,0.044
8.418,0.046
8.419,0.050
8.420,0.057
8.421,0.062
8.422,0.061
8.423,0.062
8.424,0.064
8.425,0.069
8.426,0.069
8.427,0.072
8.428,0.080
8.429,0.084
8.430,0.094
8.431,0.097
8.432,0.096
8.433,0.094
8.434,0.095
8.435,0.094
8.436,0.094
8.437,0.091
8.438,0.092
8.439,0.091
8.440,0.086
8.441,0.078
8.442,0.074
8.443,0.066
8.444,0.062
8.445,0.056
8.446,0.054
8.447,0.053
8.448,0.051
8.449,0.047
8.450,0.037
8.451,0.025
8.452,0.017
8.453,0.009
8.454,0.002
8.455,-0.003
8.456,-0.008
8.457,-0.013
8.458,-0.016
8.459,-0.016
8.460,-0.014
8.461,-0.013
8.462,-0.011
8.463,-0.013
8.464,-0.016
8.465,-0.019
8.466,-0.022
8.467,-0.028
8.468,-0.028
8.469,-0.031
8.470,-0.036
8.471,-0.038
8.472,-0.041
8.473,-0.047
8.474,-0.046
8.475,-0.047
8.476,-0.049
8.477,-0.050
8.478,-0.051
8.479,-0.053
8.480,-0.056
8.481,-0.056
8.482,-0.055
8.483,-0.053
8.484,-0.053
8.485,-0.050
8.486,-0.051
8.487,-0.053
8.488,-0.054
8.489,-0.053
8.490,-0.054
8.491,-0.056
8.492,-0.056
8.493,-0.059
8.494,-0.058
8.495,-0.056
8.496,-0.056
8.497,-0.059
8.498,-0.056
8.499,-0.056
8.500,-0.058
8.501,-0.059
8.502,-0.063
8.503,-0.063
8.504,-0.056
8.505,-0.053
8.506,-0.054
8.507,-0.053
8.508,-0.056
8.509,-0.056
8.510,-0.056
8.511,-0.056
8.512,-0.056
8.513,-0.056
8.514,-0.055
8.515,-0.053
8.516,-0.055
8.517,-0.053
8.518,-0.058
8.519,-0.063
8.520,-0.067
8.521,-0.078
8.522,-0.084
8.523,-0.087
8.524,-0.098
8.525,-0.106
8.526,-0.108
8.527,-0.109
8.528,-0.104
8.529,-0.100
8.530,-0.087
8.531,-0.075
8.532,-0.055
8.533,-0.038
8.534,-0.011
8.535,0.016
8.536,0.047
8.537,0.081
8.538,0.125
8.539,0.175
8.540,0.229
8.541,0.284
8.542,0.336
8.543,0.384
8.544,0.430
8.545,0.478
8.546,0.537
8.547,0.603
8.548,0.679
8.549,0.753
8.550,0.811
8.551,0.869
8.552,0.919
8.553,0.962
8.554,1.011
8.555,1.053
8.556,1.072
8.557,1.081
8.558,1.073
8.559,1.059
8.560,1.011
8.561,0.953
8.562,0.880
8.563,0.803
8.564,0.728
8.565,0.659
8.566,0.598
8.567,0.534
8.568,0.469
8.569,0.403
8.570,0.337
8.571,0.275
8.572,0.216
8.573,0.153
8.574,0.096
8.575,0.041
8.576,0.012
8.577,-0.009
8.578,-0.011
8.579,-0.009
8.580,-0.003
8.581,0.000
8.582,-0.002
8.583,-0.006
8.584,-0.021
8.585,-0.034
8.586,-0.047
8.587,-0.056
8.588,-0.059
8.589,-0.066
8.590,-0.076
8.591,-0.084
8.592,-0.084
8.593,-0.084
8.594,-0.086
8.595,-0.084
8.596,-0.081
8.597,-0.078
8.598,-0.074
8.599,-0.069
8.600,-0.064
8.601,-0.059
8.602,-0.053
8.603,-0.047
8.604,-0.045
8.605,-0.041
8.606,-0.038
8.607,-0.034
8.608,-0.031
8.609,-0.028
8.610,-0.031
8.611,-0.028
8.612,-0.038
8.613,-0.044
8.614,-0.047
8.615,-0.050
8.616,-0.049
8.617,-0.050
8.618,-0.054
8.619,-0.053
8.620,-0.054
8.621,-0.053
8.622,-0.050
8.623,-0.047
8.624,-0.047
8.625,-0.047
8.626,-0.044
8.627,-0.044
8.628,-0.046
8.629,-0.047
8.630,-0.050
8.631,-0.050
8.632,-0.051
8.633,-0.056
8.634,-0.056
8.635,-0.053
8.636,-0.053
8.637,-0.053
8.638,-0.053
8.639,-0.053
8.640,-0.053
8.641,-0.053
8.642,-0.054
8.643,-0.056
8.644,-0.056
8.645,-0.056
8.646,-0.055
8.647,-0.056
8.648,-0.055
8.649,-0.050
8.650,-0.054
8.651,-0.053
8.652,-0.056
8.653,-0.059
8.654,-0.059
8.655,-0.056
8.656,-0.053
8.657,-0.053
8.658,-0.053
8.659,-0.056
8.660,-0.054
8.661,-0.056
8.662,-0.058
8.663,-0.056
8.664,-0.056
8.665,-0.056
8.666,-0.056
8.667,-0.056
8.668,-0.053
8.669,-0.053
8.670,-0.053
8.671,-0.053
8.672,-0.056
8.673,-0.053
8.674,-0.052
8.675,-0.050
8.676,-0.051
8.677,-0.050
8.678,-0.049
8.679,-0.047
8.680,-0.049
8.681,-0.047
8.682,-0.050
8.683,-0.050
8.684,-0.050
8.685,-0.053
8.686,-0.053
8.687,-0.053
8.688,-0.050
8.689,-0.044
8.690,-0.041
8.691,-0.034
8.692,-0.038
8.693,-0.041
8.694,-0.041
8.695,-0.041
8.696,-0.045
8.697,-0.047
8.698,-0.047
8.699,-0.047
8.700,-0.050
8.701,-0.050
8.702,-0.050
8.703,-0.050
8.704,-0.050
8.705,-0.053
8.706,-0.051
8.707,-0.050
8.708,-0.053
8.709,-0.053
8.710,-0.049
8.711,-0.050
8.712,-0.050
8.713,-0.050
8.714,-0.051
8.715,-0.050
8.716,-0.050
8.717,-0.050
8.718,-0.047
8.719,-0.050
8.720,-0.050
8.721,-0.050
8.722,-0.050
8.723,-0.050
8.724,-0.051
8.725,-0.050
8.726,-0.050
8.727,-0.050
8.728,-0.051
8.729,-0.050
8.730,-0.049
8.731,-0.050
8.732,-0.047
8.733,-0.050
8.734,-0.047
8.735,-0.041
8.736,-0.043
8.737,-0.041
8.738,-0.039
8.739,-0.041
8.740,-0.041
8.741,-0.041
8.742,-0.041
8.743,-0.041
8.744,-0.039
8.745,-0.038
8.746,-0.041
8.747,-0.038
8.748,-0.036
8.749,-0.034
8.750,-0.036
8.751,-0.038
8.752,-0.034
8.753,-0.038
8.754,-0.036
8.755,-0.034
8.756,-0.033
8.757,-0.031
8.758,-0.031
8.759,-0.031
8.760,-0.031
8.761,-0.031
8.762,-0.033
8.763,-0.034
8.764,-0.036
8.765,-0.038
8.766,-0.034
8.767,-0.034
8.768,-0.034
8.769,-0.031
8.770,-0.033
8.771,-0.031
8.772,-0.036
8.773,-0.034
8.774,-0.033
8.775,-0.031
8.776,-0.028
8.777,-0.022
8.778,-0.022
8.779,-0.022
8.780,-0.025
8.781,-0.028
8.782,-0.028
8.783,-0.028
8.784,-0.029
8.785,-0.028
8.786,-0.028
8.787,-0.031
8.788,-0.031
8.789,-0.031
8.790,-0.030
8.791,-0.034
8.792,-0.030
8.793,-0.028
8.794,-0.027
8.795,-0.025
8.796,-0.028
8.797,-0.028
8.798,-0.029
8.799,-0.031
8.800,-0.030
8.801,-0.031
8.802,-0.030
8.803,-0.028
8.804,-0.028
8.805,-0.028
8.806,-0.028
8.807,-0.028
8.808,-0.029
8.809,-0.031
8.810,-0.034
8.811,-0.031
8.812,-0.031
8.813,-0.034
8.814,-0.031
8.815,-0.034
8.816,-0.031
8.817,-0.031
8.818,-0.030
8.819,-0.028
8.820,-0.028
8.821,-0.028
8.822,-0.028
8.823,-0.028
8.824,-0.028
8.825,-0.028
8.826,-0.028
8.827,-0.028
8.828,-0.033
8.829,-0.034
8.830,-0.036
8.831,-0.038
8.832,-0.034
8.833,-0.034
8.834,-0.036
8.835,-0.034
8.836,-0.033
8.837,-0.031
8.838,-0.033
8.839,-0.034
8.840,-0.031
8.841,-0.028
8.842,-0.028
8.843,-0.028
8.844,-0.026
8.845,-0.028
8.846,-0.029
8.847,-0.028
8.848,-0.028
8.849,-0.028
8.850,-0.028
8.851,-0.028
8.852,-0.028
8.853,-0.028
8.854,-0.029
8.855,-0.028
8.856,-0.031
8.857,-0.031
8.858,-0.025
8.859,-0.019
8.860,-0.020
8.861,-0.019
8.862,-0.017
8.863,-0.013
8.864,-0.014
8.865,-0.013
8.866,-0.009
8.867,-0.009
8.868,-0.009
8.869,-0.006
8.870,-0.005
8.871,0.000
8.872,0.002
8.873,0.000
8.874,0.000
8.875,0.003
8.876,0.003
8.877,0.006
8.878,0.005
8.879,0.006
8.880,0.008
8.881,0.009
8.882,0.008
8.883,0.009
8.884,0.016
8.885,0.022
8.886,0.028
8.887,0.031
8.888,0.031
8.889,0.031
8.890,0.031
8.891,0.031
8.892,0.033
8.893,0.031
8.894,0.034
8.895,0.037
8.896,0.039
8.897,0.044
8.898,0.042
8.899,0.044
8.900,0.044
8.901,0.044
8.902,0.046
8.903,0.044
8.904,0.045
8.905,0.047
8.906,0.044
8.907,0.044
8.908,0.039
8.909,0.037
8.910,0.036
8.911,0.034
8.912,0.034
8.913,0.031
8.914,0.031
8.915,0.031
8.916,0.028
8.917,0.028
8.918,0.029
8.919,0.031
8.920,0.029
8.921,0.031
8.922,0.029
8.923,0.031
8.924,0.032
8.925,0.031
8.926,0.031
8.927,0.031
8.928,0.028
8.929,0.028
8.930,0.028
8.931,0.028
8.932,0.031
8.933,0.031
8.934,0.025
8.935,0.019
8.936,0.019
8.937,0.019
8.938,0.017
8.939,0.016
8.940,0.016
8.941,0.016
8.942,0.019
8.943,0.022
8.944,0.019
8.945,0.016
8.946,0.014
8.947,0.009
8.948,0.011
8.949,0.009
8.950,0.011
8.951,0.009
8.952,0.008
8.953,0.006
8.954,0.006
8.955,0.006
8.956,0.011
8.957,0.012
8.958,0.011
8.959,0.012
8.960,0.009
8.961,0.009
8.962,0.008
8.963,0.009
8.964,0.007
8.965,0.009
8.966,0.008
8.967,0.006
8.968,0.007
8.969,0.009
8.970,0.006
8.971,0.006
8.972,0.006
8.973,0.006
8.974,0.005
8.975,0.003
8.976,0.002
8.977,0.003
8.978,0.001
8.979,0.003
8.980,-0.001
8.981,0.000
8.982,0.001
8.983,0.000
8.984,0.002
8.985,0.000
8.986,0.000
8.987,-0.003
8.988,0.000
8.989,0.000
8.990,0.001
8.991,0.000
8.992,0.000
8.993,0.000
8.994,0.002
8.995,0.000
8.996,0.000
8.997,0.000
8.998,0.003
8.999,0.003
9.000,0.000
9.001,0.000
9.002,-0.001
9.003,-0.003
9.004,-0.003
9.005,-0.006
9.006,-0.006
9.007,-0.006
9.008,-0.006
9.009,-0.006
9.010,-0.009
9.011,-0.009
9.012,-0.013
9.013,-0.013
9.014,-0.013
9.015,-0.013
9.016,-0.013
9.017,-0.016
9.018,-0.016
9.019,-0.016
9.020,-0.014
9.021,-0.016
9.022,-0.013
9.023,-0.013
9.024,-0.013
9.025,-0.013
9.026,-0.013
9.027,-0.013
9.028,-0.011
9.029,-0.013
9.030,-0.011
9.031,-0.013
9.032,-0.009
9.033,-0.009
9.034,-0.014
9.035,-0.013
9.036,-0.017
9.037,-0.019
9.038,-0.019
9.039,-0.019
9.040,-0.019
9.041,-0.019
9.042,-0.016
9.043,-0.013
9.044,-0.011
9.045,-0.013
9.046,-0.016
9.047,-0.016
9.048,-0.019
9.049,-0.022
9.050,-0.019
9.051,-0.019
9.052,-0.017
9.053,-0.019
9.054,-0.019
9.055,-0.022
9.056,-0.022
9.057,-0.025
9.058,-0.025
9.059,-0.025
9.060,-0.024
9.061,-0.022
9.062,-0.025
9.063,-0.028
9.064,-0.028
9.065,-0.028
9.066,-0.031
9.067,-0.031
9.068,-0.031
9.069,-0.031
9.070,-0.031
9.071,-0.034
9.072,-0.034
9.073,-0.034
9.074,-0.034
9.075,-0.034
9.076,-0.033
9.077,-0.031
9.078,-0.034
9.079,-0.034
9.080,-0.036
9.081,-0.034
9.082,-0.033
9.083,-0.031
9.084,-0.030
9.085,-0.031
9.086,-0.033
9.087,-0.034
9.088,-0.033
9.089,-0.038
9.090,-0.036
9.091,-0.034
9.092,-0.036
9.093,-0.038
9.094,-0.042
9.095,-0.044
9.096,-0.044
9.097,-0.044
9.098,-0.047
9.099,-0.047
9.100,-0.047
9.101,-0.047
9.102,-0.046
9.103,-0.047
9.104,-0.045
9.105,-0.047
9.106,-0.047
9.107,-0.047
9.108,-0.046
9.109,-0.044
9.110,-0.045
9.111,-0.047
9.112,-0.047
9.113,-0.050
9.114,-0.050
9.115,-0.053
9.116,-0.052
9.117,-0.050
9.118,-0.052
9.119,-0.050
9.120,-0.048
9.121,-0.050
9.122,-0.049
9.123,-0.047
9.124,-0.050
9.125,-0.050
9.126,-0.049
9.127,-0.050
9.128,-0.053
9.129,-0.053
9.130,-0.053
9.131,-0.050
9.132,-0.052
9.133,-0.053
9.134,-0.053
9.135,-0.053
9.136,-0.052
9.137,-0.050
9.138,-0.050
9.139,-0.053
9.140,-0.054
9.141,-0.056
9.142,-0.056
9.143,-0.053
9.144,-0.056
9.145,-0.056
9.146,-0.055
9.147,-0.053
9.148,-0.053
9.149,-0.053
9.150,-0.054
9.151,-0.056
9.152,-0.058
9.153,-0.059
9.154,-0.058
9.155,-0.056
9.156,-0.058
9.157,-0.056
9.158,-0.056
9.159,-0.059
9.160,-0.058
9.161,-0.056
9.162,-0.055
9.163,-0.053
9.164,-0.053
9.165,-0.053
9.166,-0.054
9.167,-0.053
9.168,-0.056
9.169,-0.056
9.170,-0.058
9.171,-0.059
9.172,-0.059
9.173,-0.059
9.174,-0.058
9.175,-0.056
9.176,-0.053
9.177,-0.050
9.178,-0.053
9.179,-0.053
9.180,-0.054
9.181,-0.056
9.182,-0.059
9.183,-0.063
9.184,-0.056
9.185,-0.053
9.186,-0.054
9.187,-0.056
9.188,-0.056
9.189,-0.053
9.190,-0.056
9.191,-0.053
9.192,-0.056
9.193,-0.056
9.194,-0.056
9.195,-0.056
9.196,-0.056
9.197,-0.056
9.198,-0.056
9.199,-0.056
9.200,-0.059
9.201,-0.063
9.202,-0.063
9.203,-0.063
9.204,-0.059
9.205,-0.056
9.206,-0.056
9.207,-0.056
9.208,-0.056
9.209,-0.056
9.210,-0.056
9.211,-0.056
9.212,-0.056
9.213,-0.059
9.214,-0.061
9.215,-0.063
9.216,-0.063
9.217,-0.063
9.218,-0.063
9.219,-0.063
9.220,-0.059
9.221,-0.063
9.222,-0.061
9.223,-0.059
9.224,-0.064
9.225,-0.063
9.226,-0.063
9.227,-0.063
9.228,-0.064
9.229,-0.063
9.230,-0.061
9.231,-0.063
9.232,-0.064
9.233,-0.066
9.234,-0.068
9.235,-0.069
9.236,-0.068
9.237,-0.063
9.238,-0.059
9.239,-0.063
9.240,-0.067
9.241,-0.066
9.242,-0.066
9.243,-0.066
9.244,-0.066
9.245,-0.066
9.246,-0.066
9.247,-0.069
9.248,-0.070
9.249,-0.069
9.250,-0.069
9.251,-0.066
9.252,-0.066
9.253,-0.066
9.254,-0.066
9.255,-0.066
9.256,-0.061
9.257,-0.063
9.258,-0.063
9.259,-0.063
9.260,-0.059
9.261,-0.059
9.262,-0.056
9.263,-0.053
9.264,-0.049
9.265,-0.041
9.266,-0.033
9.267,-0.025
9.268,-0.022
9.269,-0.016
9.270,-0.011
9.271,-0.009
9.272,-0.004
9.273,-0.003
9.274,-0.001
9.275,0.000
9.276,0.008
9.277,0.012
9.278,0.016
9.279,0.019
9.280,0.023
9.281,0.022
9.282,0.019
9.283,0.019
9.284,0.017
9.285,0.019
9.286,0.022
9.287,0.025
9.288,0.024
9.289,0.025
9.290,0.025
9.291,0.028
9.292,0.036
9.293,0.044
9.294,0.050
9.295,0.053
9.296,0.056
9.297,0.056
9.298,0.058
9.299,0.056
9.300,0.055
9.301,0.059
9.302,0.062
9.303,0.072
9.304,0.078
9.305,0.081
9.306,0.084
9.307,0.084
9.308,0.084
9.309,0.084
9.310,0.078
9.311,0.075
9.312,0.069
9.313,0.066
9.314,0.061
9.315,0.059
9.316,0.053
9.317,0.050
9.318,0.045
9.319,0.041
9.320,0.033
9.321,0.028
9.322,0.025
9.323,0.025
9.324,0.017
9.325,0.009
9.326,0.002
9.327,-0.006
9.328,-0.009
9.329,-0.016
9.330,-0.022
9.331,-0.025
9.332,-0.026
9.333,-0.028
9.334,-0.029
9.335,-0.031
9.336,-0.033
9.337,-0.034
9.338,-0.039
9.339,-0.044
9.340,-0.038
9.341,-0.025
9.342,-0.014
9.343,-0.003
9.344,-0.002
9.345,0.000
9.346,-0.002
9.347,0.000
9.348,-0.016
9.349,-0.031
9.350,-0.051
9.351,-0.069
9.352,-0.068
9.353,-0.069
9.354,-0.072
9.355,-0.075
9.356,-0.076
9.357,-0.081
9.358,-0.080
9.359,-0.078
9.360,-0.077
9.361,-0.075
9.362,-0.072
9.363,-0.072
9.364,-0.072
9.365,-0.072
9.366,-0.074
9.367,-0.072
9.368,-0.073
9.369,-0.075
9.370,-0.079
9.371,-0.078
9.372,-0.078
9.373,-0.081
9.374,-0.080
9.375,-0.075
9.376,-0.075
9.377,-0.075
9.378,-0.075
9.379,-0.075
9.380,-0.072
9.381,-0.075
9.382,-0.072
9.383,-0.069
9.384,-0.069
9.385,-0.069
9.386,-0.069
9.387,-0.072
9.388,-0.076
9.389,-0.081
9.390,-0.086
9.391,-0.094
9.392,-0.094
9.393,-0.094
9.394,-0.102
9.395,-0.106
9.396,-0.108
9.397,-0.116
9.398,-0.123
9.399,-0.125
9.400,-0.129
9.401,-0.128
9.402,-0.119
9.403,-0.103
9.404,-0.091
9.405,-0.072
9.406,-0.055
9.407,-0.025
9.408,0.002
9.409,0.034
