'Elapsed time','II'
'seconds','mV'
0.000,-0.005
0.001,-0.006
0.002,-0.008
0.003,-0.009
0.004,-0.008
0.005,-0.006
0.006,-0.006
0.007,-0.006
0.008,-0.008
0.009,-0.009
0.010,-0.009
0.011,-0.009
0.012,-0.005
0.013,0.000
0.014,0.001
0.015,0.003
0.016,0.003
0.017,0.003
0.018,0.003
0.019,0.003
0.020,0.003
0.021,0.003
0.022,0.004
0.023,0.006
0.024,0.006
0.025,0.006
0.026,0.006
0.027,0.006
0.028,0.006
0.029,0.006
0.030,0.009
0.031,0.012
0.032,0.012
0.033,0.012
0.034,0.012
0.035,0.012
0.036,0.011
0.037,0.009
0.038,0.012
0.039,0.016
0.040,0.017
0.041,0.019
0.042,0.019
0.043,0.019
0.044,0.018
0.045,0.016
0.046,0.019
0.047,0.022
0.048,0.022
0.049,0.022
0.050,0.022
0.051,0.022
0.052,0.022
0.053,0.022
0.054,0.022
0.055,0.022
0.056,0.023
0.057,0.025
0.058,0.025
0.059,0.025
0.060,0.025
0.061,0.025
0.062,0.025
0.063,0.025
0.064,0.025
0.065,0.025
0.066,0.025
0.067,0.025
0.068,0.028
0.069,0.031
0.070,0.031
0.071,0.031
0.072,0.030
0.073,0.028
0.074,0.028
0.075,0.028
0.076,0.028
0.077,0.028
0.078,0.032
0.079,0.037
0.080,0.037
0.081,0.037
0.082,0.037
0.083,0.037
0.084,0.037
0.085,0.037
0.086,0.041
0.087,0.044
0.088,0.045
0.089,0.047
0.090,0.048
0.091,0.050
0.092,0.050
0.093,0.050
0.094,0.049
0.095,0.047
0.096,0.046
0.097,0.044
0.098,0.047
0.099,0.050
0.100,0.050
0.101,0.050
0.102,0.053
0.103,0.056
0.104,0.059
0.105,0.062
0.106,0.062
0.107,0.062
0.108,0.062
0.109,0.062
0.110,0.062
0.111,0.062
0.112,0.062
0.113,0.062
0.114,0.064
0.115,0.066
0.116,0.066
0.117,0.066
0.118,0.064
0.119,0.062
0.120,0.064
0.121,0.066
0.122,0.069
0.123,0.072
0.124,0.075
0.125,0.078
0.126,0.078
0.127,0.078
0.128,0.078
0.129,0.078
0.130,0.079
0.131,0.081
0.132,0.081
0.133,0.081
0.134,0.080
0.135,0.078
0.136,0.078
0.137,0.078
0.138,0.078
0.139,0.078
0.140,0.079
0.141,0.081
0.142,0.081
0.143,0.081
0.144,0.080
0.145,0.078
0.146,0.079
0.147,0.081
0.148,0.082
0.149,0.084
0.150,0.084
0.151,0.084
0.152,0.084
0.153,0.084
0.154,0.084
0.155,0.084
0.156,0.086
0.157,0.087
0.158,0.087
0.159,0.087
0.160,0.087
0.161,0.087
0.162,0.092
0.163,0.097
0.164,0.097
0.165,0.097
0.166,0.097
0.167,0.097
0.168,0.096
0.169,0.094
0.170,0.095
0.171,0.097
0.172,0.097
0.173,0.097
0.174,0.096
0.175,0.094
0.176,0.097
0.177,0.100
0.178,0.100
0.179,0.100
0.180,0.100
0.181,0.100
0.182,0.100
0.183,0.100
0.184,0.101
0.185,0.103
0.186,0.106
0.187,0.109
0.188,0.109
0.189,0.109
0.190,0.109
0.191,0.109
0.192,0.111
0.193,0.112
0.194,0.112
0.195,0.112
0.196,0.114
0.197,0.116
0.198,0.116
0.199,0.116
0.200,0.122
0.201,0.128
0.202,0.129
0.203,0.131
0.204,0.131
0.205,0.131
0.206,0.132
0.207,0.134
0.208,0.136
0.209,0.137
0.210,0.137
0.211,0.137
0.212,0.141
0.213,0.144
0.214,0.142
0.215,0.141
0.216,0.141
0.217,0.141
0.218,0.141
0.219,0.141
0.220,0.141
0.221,0.141
0.222,0.148
0.223,0.156
0.224,0.156
0.225,0.156
0.226,0.156
0.227,0.156
0.228,0.156
0.229,0.156
0.230,0.156
0.231,0.156
0.232,0.157
0.233,0.159
0.234,0.159
0.235,0.159
0.236,0.158
0.237,0.156
0.238,0.156
0.239,0.156
0.240,0.156
0.241,0.156
0.242,0.155
0.243,0.153
0.244,0.152
0.245,0.150
0.246,0.149
0.247,0.147
0.248,0.147
0.249,0.147
0.250,0.144
0.251,0.141
0.252,0.139
0.253,0.137
0.254,0.137
0.255,0.137
0.256,0.133
0.257,0.128
0.258,0.127
0.259,0.125
0.260,0.124
0.261,0.122
0.262,0.118
0.263,0.112
0.264,0.111
0.265,0.109
0.266,0.108
0.267,0.106
0.268,0.103
0.269,0.100
0.270,0.096
0.271,0.091
0.272,0.091
0.273,0.091
0.274,0.092
0.275,0.094
0.276,0.092
0.277,0.091
0.278,0.087
0.279,0.084
0.280,0.083
0.281,0.081
0.282,0.078
0.283,0.075
0.284,0.071
0.285,0.066
0.286,0.064
0.287,0.062
0.288,0.059
0.289,0.056
0.290,0.053
0.291,0.050
0.292,0.049
0.293,0.047
0.294,0.047
0.295,0.047
0.296,0.044
0.297,0.041
0.298,0.037
0.299,0.034
0.300,0.033
0.301,0.031
0.302,0.030
0.303,0.028
0.304,0.027
0.305,0.025
0.306,0.022
0.307,0.019
0.308,0.016
0.309,0.012
0.310,0.012
0.311,0.012
0.312,0.011
0.313,0.009
0.314,0.008
0.315,0.006
0.316,0.007
0.317,0.009
0.318,0.009
0.319,0.009
0.320,0.008
0.321,0.006
0.322,0.006
0.323,0.006
0.324,0.006
0.325,0.006
0.326,0.006
0.327,0.006
0.328,0.006
0.329,0.006
0.330,0.006
0.331,0.006
0.332,0.005
0.333,0.003
0.334,0.002
0.335,0.000
0.336,0.000
0.337,0.000
0.338,0.001
0.339,0.003
0.340,0.003
0.341,0.003
0.342,0.002
0.343,0.000
0.344,-0.003
0.345,-0.006
0.346,-0.006
0.347,-0.006
0.348,-0.008
0.349,-0.009
0.350,-0.011
0.351,-0.013
0.352,-0.009
0.353,-0.006
0.354,-0.005
0.355,-0.003
0.356,-0.004
0.357,-0.006
0.358,-0.006
0.359,-0.006
0.360,-0.006
0.361,-0.006
0.362,-0.006
0.363,-0.006
0.364,-0.008
0.365,-0.009
0.366,-0.009
0.367,-0.009
0.368,-0.009
0.369,-0.009
0.370,-0.009
0.371,-0.009
0.372,-0.011
0.373,-0.013
0.374,-0.011
0.375,-0.009
0.376,-0.009
0.377,-0.009
0.378,-0.011
0.379,-0.013
0.380,-0.013
0.381,-0.013
0.382,-0.013
0.383,-0.013
0.384,-0.013
0.385,-0.013
0.386,-0.013
0.387,-0.013
0.388,-0.013
0.389,-0.013
0.390,-0.013
0.391,-0.013
0.392,-0.009
0.393,-0.006
0.394,-0.006
0.395,-0.006
0.396,-0.008
0.397,-0.009
0.398,-0.009
0.399,-0.009
0.400,-0.009
0.401,-0.009
0.402,-0.009
0.403,-0.009
0.404,-0.009
0.405,-0.009
0.406,-0.011
0.407,-0.013
0.408,-0.013
0.409,-0.013
0.410,-0.013
0.411,-0.013
0.412,-0.014
0.413,-0.016
0.414,-0.019
0.415,-0.022
0.416,-0.023
0.417,-0.025
0.418,-0.026
0.419,-0.028
0.420,-0.028
0.421,-0.028
0.422,-0.028
0.423,-0.028
0.424,-0.028
0.425,-0.028
0.426,-0.028
0.427,-0.028
0.428,-0.029
0.429,-0.031
0.430,-0.027
0.431,-0.022
0.432,-0.023
0.433,-0.025
0.434,-0.025
0.435,-0.025
0.436,-0.026
0.437,-0.028
0.438,-0.027
0.439,-0.025
0.440,-0.025
0.441,-0.025
0.442,-0.028
0.443,-0.031
0.444,-0.031
0.445,-0.031
0.446,-0.031
0.447,-0.031
0.448,-0.032
0.449,-0.034
0.450,-0.033
0.451,-0.031
0.452,-0.031
0.453,-0.031
0.454,-0.032
0.455,-0.034
0.456,-0.034
0.457,-0.034
0.458,-0.034
0.459,-0.034
0.460,-0.039
0.461,-0.044
0.462,-0.041
0.463,-0.038
0.464,-0.036
0.465,-0.034
0.466,-0.036
0.467,-0.038
0.468,-0.036
0.469,-0.034
0.470,-0.034
0.471,-0.034
0.472,-0.038
0.473,-0.041
0.474,-0.041
0.475,-0.041
0.476,-0.041
0.477,-0.041
0.478,-0.039
0.479,-0.038
0.480,-0.038
0.481,-0.038
0.482,-0.041
0.483,-0.044
0.484,-0.044
0.485,-0.044
0.486,-0.044
0.487,-0.044
0.488,-0.043
0.489,-0.041
0.490,-0.041
0.491,-0.041
0.492,-0.041
0.493,-0.041
0.494,-0.042
0.495,-0.041
0.496,-0.039
0.497,-0.041
0.498,-0.042
0.499,-0.044
0.500,-0.048
0.501,-0.050
0.502,-0.050
0.503,-0.047
0.504,-0.041
0.505,-0.038
0.506,-0.042
0.507,-0.044
0.508,-0.043
0.509,-0.044
0.510,-0.042
0.511,-0.044
0.512,-0.045
0.513,-0.044
0.514,-0.044
0.515,-0.047
0.516,-0.050
0.517,-0.050
0.518,-0.051
0.519,-0.053
0.520,-0.049
0.521,-0.050
0.522,-0.050
0.523,-0.050
0.524,-0.049
0.525,-0.047
0.526,-0.047
0.527,-0.047
0.528,-0.048
0.529,-0.050
0.530,-0.049
0.531,-0.047
0.532,-0.046
0.533,-0.044
0.534,-0.044
0.535,-0.044
0.536,-0.045
0.537,-0.047
0.538,-0.043
0.539,-0.038
0.540,-0.039
0.541,-0.041
0.542,-0.042
0.543,-0.047
0.544,-0.044
0.545,-0.044
0.546,-0.048
0.547,-0.050
0.548,-0.051
0.549,-0.053
0.550,-0.052
0.551,-0.053
0.552,-0.050
0.553,-0.053
0.554,-0.054
0.555,-0.056
0.556,-0.056
0.557,-0.056
0.558,-0.056
0.559,-0.056
0.560,-0.056
0.561,-0.056
0.562,-0.056
0.563,-0.056
0.564,-0.055
0.565,-0.053
0.566,-0.052
0.567,-0.050
0.568,-0.050
0.569,-0.050
0.570,-0.050
0.571,-0.050
0.572,-0.050
0.573,-0.050
0.574,-0.048
0.575,-0.050
0.576,-0.052
0.577,-0.050
0.578,-0.051
0.579,-0.053
0.580,-0.053
0.581,-0.053
0.582,-0.053
0.583,-0.053
0.584,-0.053
0.585,-0.053
0.586,-0.053
0.587,-0.056
0.588,-0.056
0.589,-0.056
0.590,-0.056
0.591,-0.056
0.592,-0.058
0.593,-0.056
0.594,-0.055
0.595,-0.056
0.596,-0.053
0.597,-0.056
0.598,-0.054
0.599,-0.056
0.600,-0.059
0.601,-0.063
0.602,-0.064
0.603,-0.063
0.604,-0.063
0.605,-0.063
0.606,-0.061
0.607,-0.059
0.608,-0.063
0.609,-0.063
0.610,-0.064
0.611,-0.066
0.612,-0.067
0.613,-0.066
0.614,-0.068
0.615,-0.066
0.616,-0.064
0.617,-0.059
0.618,-0.056
0.619,-0.056
0.620,-0.056
0.621,-0.059
0.622,-0.063
0.623,-0.066
0.624,-0.066
0.625,-0.066
0.626,-0.066
0.627,-0.066
0.628,-0.064
0.629,-0.066
0.630,-0.067
0.631,-0.069
0.632,-0.072
0.633,-0.072
0.634,-0.069
0.635,-0.069
0.636,-0.068
0.637,-0.063
0.638,-0.061
0.639,-0.056
0.640,-0.058
0.641,-0.059
0.642,-0.058
0.643,-0.059
0.644,-0.058
0.645,-0.059
0.646,-0.058
0.647,-0.059
0.648,-0.059
0.649,-0.063
0.650,-0.061
0.651,-0.063
0.652,-0.066
0.653,-0.066
0.654,-0.066
0.655,-0.066
0.656,-0.066
0.657,-0.066
0.658,-0.067
0.659,-0.069
0.660,-0.064
0.661,-0.069
0.662,-0.073
0.663,-0.072
0.664,-0.066
0.665,-0.066
0.666,-0.066
0.667,-0.066
0.668,-0.070
0.669,-0.069
0.670,-0.069
0.671,-0.069
0.672,-0.072
0.673,-0.069
0.674,-0.073
0.675,-0.072
0.676,-0.072
0.677,-0.072
0.678,-0.071
0.679,-0.069
0.680,-0.064
0.681,-0.066
0.682,-0.066
0.683,-0.066
0.684,-0.064
0.685,-0.066
0.686,-0.064
0.687,-0.066
0.688,-0.066
0.689,-0.069
0.690,-0.069
0.691,-0.069
0.692,-0.069
0.693,-0.069
0.694,-0.068
0.695,-0.066
0.696,-0.067
0.697,-0.066
0.698,-0.067
0.699,-0.066
0.700,-0.068
0.701,-0.069
0.702,-0.070
0.703,-0.069
0.704,-0.070
0.705,-0.069
0.706,-0.070
0.707,-0.072
0.708,-0.069
0.709,-0.066
0.710,-0.066
0.711,-0.066
0.712,-0.066
0.713,-0.066
0.714,-0.067
0.715,-0.069
0.716,-0.066
0.717,-0.066
0.718,-0.068
0.719,-0.063
0.720,-0.061
0.721,-0.063
0.722,-0.063
0.723,-0.063
0.724,-0.063
0.725,-0.066
0.726,-0.067
0.727,-0.069
0.728,-0.064
0.729,-0.063
0.730,-0.059
0.731,-0.059
0.732,-0.061
0.733,-0.059
0.734,-0.056
0.735,-0.056
0.736,-0.058
0.737,-0.059
0.738,-0.061
0.739,-0.063
0.740,-0.059
0.741,-0.059
0.742,-0.056
0.743,-0.053
0.744,-0.054
0.745,-0.056
0.746,-0.058
0.747,-0.059
0.748,-0.063
0.749,-0.063
0.750,-0.059
0.751,-0.056
0.752,-0.058
0.753,-0.063
0.754,-0.058
0.755,-0.063
0.756,-0.063
0.757,-0.063
0.758,-0.063
0.759,-0.063
0.760,-0.059
0.761,-0.053
0.762,-0.054
0.763,-0.056
0.764,-0.058
0.765,-0.059
0.766,-0.063
0.767,-0.059
0.768,-0.061
0.769,-0.063
0.770,-0.066
0.771,-0.069
0.772,-0.066
0.773,-0.066
0.774,-0.066
0.775,-0.066
0.776,-0.067
0.777,-0.069
0.778,-0.069
0.779,-0.069
0.780,-0.067
0.781,-0.069
0.782,-0.066
0.783,-0.066
0.784,-0.067
0.785,-0.069
0.786,-0.064
0.787,-0.066
0.788,-0.069
0.789,-0.066
0.790,-0.063
0.791,-0.059
0.792,-0.059
0.793,-0.059
0.794,-0.061
0.795,-0.063
0.796,-0.061
0.797,-0.056
0.798,-0.063
0.799,-0.059
0.800,-0.061
0.801,-0.059
0.802,-0.056
0.803,-0.050
0.804,-0.039
0.805,-0.034
0.806,-0.025
0.807,-0.022
0.808,-0.016
0.809,-0.013
0.810,-0.011
0.811,-0.009
0.812,-0.008
0.813,-0.009
0.814,-0.008
0.815,0.000
0.816,0.001
0.817,0.003
0.818,0.000
0.819,-0.006
0.820,-0.006
0.821,-0.009
0.822,-0.009
0.823,-0.009
0.824,-0.008
0.825,-0.003
0.826,0.002
0.827,0.009
0.828,0.022
0.829,0.041
0.830,0.056
0.831,0.075
0.832,0.099
0.833,0.112
0.834,0.124
0.835,0.131
0.836,0.137
0.837,0.137
0.838,0.139
0.839,0.137
0.840,0.136
0.841,0.131
0.842,0.133
0.843,0.131
0.844,0.130
0.845,0.128
0.846,0.131
0.847,0.137
0.848,0.136
0.849,0.128
0.850,0.119
0.851,0.109
0.852,0.104
0.853,0.106
0.854,0.103
0.855,0.103
0.856,0.097
0.857,0.091
0.858,0.084
0.859,0.078
0.860,0.068
0.861,0.069
0.862,0.067
0.863,0.069
0.864,0.066
0.865,0.062
0.866,0.059
0.867,0.056
0.868,0.051
0.869,0.050
0.870,0.052
0.871,0.053
0.872,0.053
0.873,0.056
0.874,0.053
0.875,0.050
0.876,0.044
0.877,0.034
0.878,0.022
0.879,0.012
0.880,0.003
0.881,-0.006
0.882,-0.017
0.883,-0.025
0.884,-0.031
0.885,-0.038
0.886,-0.039
0.887,-0.044
0.888,-0.047
0.889,-0.047
0.890,-0.047
0.891,-0.050
0.892,-0.051
0.893,-0.053
0.894,-0.050
0.895,-0.050
0.896,-0.050
0.897,-0.050
0.898,-0.054
0.899,-0.056
0.900,-0.056
0.901,-0.056
0.902,-0.056
0.903,-0.059
0.904,-0.061
0.905,-0.063
0.906,-0.061
0.907,-0.063
0.908,-0.061
0.909,-0.063
0.910,-0.064
0.911,-0.066
0.912,-0.068
0.913,-0.066
0.914,-0.068
0.915,-0.066
0.916,-0.066
0.917,-0.066
0.918,-0.066
0.919,-0.066
0.920,-0.067
0.921,-0.066
0.922,-0.069
0.923,-0.069
0.924,-0.066
0.925,-0.066
0.926,-0.066
0.927,-0.066
0.928,-0.070
0.929,-0.072
0.930,-0.072
0.931,-0.072
0.932,-0.069
0.933,-0.072
0.934,-0.075
0.935,-0.072
0.936,-0.073
0.937,-0.075
0.938,-0.072
0.939,-0.072
0.940,-0.072
0.941,-0.072
0.942,-0.071
0.943,-0.069
0.944,-0.073
0.945,-0.072
0.946,-0.072
0.947,-0.072
0.948,-0.070
0.949,-0.072
0.950,-0.072
0.951,-0.072
0.952,-0.070
0.953,-0.072
0.954,-0.071
0.955,-0.069
0.956,-0.074
0.957,-0.075
0.958,-0.078
0.959,-0.091
0.960,-0.098
0.961,-0.109
0.962,-0.119
0.963,-0.119
0.964,-0.111
0.965,-0.103
0.966,-0.095
0.967,-0.072
0.968,-0.050
0.969,-0.016
0.970,0.011
0.971,0.044
0.972,0.059
0.973,0.078
0.974,0.098
0.975,0.122
0.976,0.144
0.977,0.172
0.978,0.220
0.979,0.272
0.980,0.339
0.981,0.409
0.982,0.471
0.983,0.525
0.984,0.579
0.985,0.650
0.986,0.722
0.987,0.784
0.988,0.808
0.989,0.772
0.990,0.756
0.991,0.756
0.992,0.819
0.993,0.884
0.994,0.914
0.995,0.937
0.996,0.866
0.997,0.794
0.998,0.636
0.999,0.475
1.000,0.356
1.001,0.241
1.002,0.181
1.003,0.125
1.004,0.087
1.005,0.050
1.006,0.034
1.007,0.022
1.008,0.002
1.009,-0.022
1.010,-0.047
1.011,-0.072
1.012,-0.079
1.013,-0.088
1.014,-0.084
1.015,-0.084
1.016,-0.089
1.017,-0.088
1.018,-0.082
1.019,-0.059
1.020,-0.027
1.021,-0.013
1.022,-0.005
1.023,0.003
1.024,0.019
1.025,0.025
1.026,0.032
1.027,0.034
1.028,0.028
1.029,0.025
1.030,0.016
1.031,0.009
1.032,-0.001
1.033,-0.016
1.034,-0.019
1.035,-0.028
1.036,-0.036
1.037,-0.038
1.038,-0.042
1.039,-0.047
1.040,-0.048
1.041,-0.050
1.042,-0.044
1.043,-0.041
1.044,-0.041
1.045,-0.034
1.046,-0.033
1.047,-0.031
1.048,-0.036
1.049,-0.034
1.050,-0.033
1.051,-0.034
1.052,-0.042
1.053,-0.050
1.054,-0.050
1.055,-0.050
1.056,-0.050
1.057,-0.047
1.058,-0.048
1.059,-0.047
1.060,-0.048
1.061,-0.047
1.062,-0.047
1.063,-0.047
1.064,-0.046
1.065,-0.047
1.066,-0.048
1.067,-0.050
1.068,-0.046
1.069,-0.050
1.070,-0.050
1.071,-0.050
1.072,-0.049
1.073,-0.044
1.074,-0.043
1.075,-0.041
1.076,-0.036
1.077,-0.034
1.078,-0.034
1.079,-0.034
1.080,-0.032
1.081,-0.034
1.082,-0.034
1.083,-0.034
1.084,-0.033
1.085,-0.034
1.086,-0.034
1.087,-0.034
1.088,-0.036
1.089,-0.034
1.090,-0.036
1.091,-0.038
1.092,-0.041
1.093,-0.038
1.094,-0.034
1.095,-0.034
1.096,-0.033
1.097,-0.028
1.098,-0.028
1.099,-0.028
1.100,-0.028
1.101,-0.028
1.102,-0.028
1.103,-0.028
1.104,-0.029
1.105,-0.028
1.106,-0.028
1.107,-0.028
1.108,-0.028
1.109,-0.028
1.110,-0.026
1.111,-0.028
1.112,-0.032
1.113,-0.031
1.114,-0.027
1.115,-0.025
1.116,-0.028
1.117,-0.025
1.118,-0.028
1.119,-0.028
1.120,-0.026
1.121,-0.028
1.122,-0.021
1.123,-0.016
1.124,-0.014
1.125,-0.013
1.126,-0.013
1.127,-0.013
1.128,-0.013
1.129,-0.013
1.130,-0.011
1.131,-0.013
1.132,-0.013
1.133,-0.013
1.134,-0.013
1.135,-0.013
1.136,-0.006
1.137,-0.006
1.138,-0.004
1.139,-0.006
1.140,-0.006
1.141,-0.006
1.142,-0.006
1.143,-0.009
1.144,-0.008
1.145,-0.009
1.146,-0.009
1.147,-0.009
1.148,-0.009
1.149,-0.006
1.150,-0.009
1.151,-0.006
1.152,-0.011
1.153,-0.013
1.154,-0.011
1.155,-0.013
1.156,-0.009
1.157,-0.006
1.158,-0.004
1.159,-0.003
1.160,-0.003
1.161,-0.003
1.162,-0.003
1.163,-0.003
1.164,-0.002
1.165,0.003
1.166,0.000
1.167,0.003
1.168,0.000
1.169,0.003
1.170,0.003
1.171,0.003
1.172,0.002
1.173,0.003
1.174,0.007
1.175,0.006
1.176,0.007
1.177,0.009
1.178,0.009
1.179,0.009
1.180,0.011
1.181,0.009
1.182,0.009
1.183,0.009
1.184,0.014
1.185,0.016
1.186,0.019
1.187,0.019
1.188,0.021
1.189,0.019
1.190,0.017
1.191,0.019
1.192,0.023
1.193,0.025
1.194,0.024
1.195,0.025
1.196,0.025
1.197,0.025
1.198,0.028
1.199,0.028
1.200,0.031
1.201,0.028
1.202,0.028
1.203,0.031
1.204,0.031
1.205,0.031
1.206,0.027
1.207,0.028
1.208,0.031
1.209,0.031
1.210,0.028
1.211,0.028
1.212,0.031
1.213,0.031
1.214,0.032
1.215,0.031
1.216,0.033
1.217,0.031
1.218,0.034
1.219,0.037
1.220,0.041
1.221,0.041
1.222,0.041
1.223,0.041
1.224,0.045
1.225,0.047
1.226,0.048
1.227,0.047
1.228,0.047
1.229,0.047
1.230,0.047
1.231,0.047
1.232,0.047
1.233,0.047
1.234,0.047
1.235,0.047
1.236,0.049
1.237,0.047
1.238,0.051
1.239,0.053
1.240,0.054
1.241,0.056
1.242,0.055
1.243,0.056
1.244,0.056
1.245,0.056
1.246,0.056
1.247,0.056
1.248,0.056
1.249,0.056
1.250,0.056
1.251,0.056
1.252,0.057
1.253,0.059
1.254,0.061
1.255,0.059
1.256,0.061
1.257,0.059
1.258,0.059
1.259,0.059
1.260,0.059
1.261,0.062
1.262,0.061
1.263,0.066
1.264,0.066
1.265,0.066
1.266,0.064
1.267,0.062
1.268,0.067
1.269,0.069
1.270,0.068
1.271,0.066
1.272,0.066
1.273,0.066
1.274,0.066
1.275,0.069
1.276,0.069
1.277,0.069
1.278,0.067
1.279,0.072
1.280,0.072
1.281,0.072
1.282,0.076
1.283,0.078
1.284,0.078
1.285,0.081
1.286,0.079
1.287,0.081
1.288,0.080
1.289,0.081
1.290,0.084
1.291,0.087
1.292,0.087
1.293,0.087
1.294,0.087
1.295,0.087
1.296,0.089
1.297,0.094
1.298,0.094
1.299,0.091
1.300,0.091
1.301,0.091
1.302,0.091
1.303,0.094
1.304,0.095
1.305,0.097
1.306,0.099
1.307,0.097
1.308,0.101
1.309,0.106
1.310,0.109
1.311,0.112
1.312,0.112
1.313,0.112
1.314,0.114
1.315,0.116
1.316,0.118
1.317,0.116
1.318,0.118
1.319,0.116
1.320,0.120
1.321,0.125
1.322,0.125
1.323,0.125
1.324,0.131
1.325,0.134
1.326,0.134
1.327,0.137
1.328,0.139
1.329,0.141
1.330,0.141
1.331,0.141
1.332,0.139
1.333,0.137
1.334,0.137
1.335,0.137
1.336,0.139
1.337,0.141
1.338,0.142
1.339,0.141
1.340,0.144
1.341,0.141
1.342,0.142
1.343,0.141
1.344,0.144
1.345,0.141
1.346,0.141
1.347,0.141
1.348,0.142
1.349,0.141
1.350,0.136
1.351,0.134
1.352,0.133
1.353,0.131
1.354,0.128
1.355,0.125
1.356,0.126
1.357,0.125
1.358,0.122
1.359,0.122
1.360,0.122
1.361,0.119
1.362,0.112
1.363,0.112
1.364,0.109
1.365,0.106
1.366,0.105
1.367,0.100
1.368,0.098
1.369,0.097
1.370,0.096
1.371,0.091
1.372,0.091
1.373,0.087
1.374,0.083
1.375,0.081
1.376,0.077
1.377,0.072
1.378,0.072
1.379,0.069
1.380,0.066
1.381,0.062
1.382,0.062
1.383,0.059
1.384,0.058
1.385,0.053
1.386,0.050
1.387,0.047
1.388,0.048
1.389,0.044
1.390,0.041
1.391,0.034
1.392,0.036
1.393,0.034
1.394,0.032
1.395,0.031
1.396,0.031
1.397,0.028
1.398,0.025
1.399,0.022
1.400,0.022
1.401,0.019
1.402,0.016
1.403,0.016
1.404,0.012
1.405,0.009
1.406,0.006
1.407,0.006
1.408,0.009
1.409,0.009
1.410,0.007
1.411,0.009
1.412,0.006
1.413,0.003
1.414,0.000
1.415,0.000
1.416,-0.001
1.417,-0.003
1.418,-0.008
1.419,-0.009
1.420,-0.016
1.421,-0.016
1.422,-0.014
1.423,-0.013
1.424,-0.014
1.425,-0.013
1.426,-0.013
1.427,-0.013
1.428,-0.014
1.429,-0.013
1.430,-0.017
1.431,-0.019
1.432,-0.025
1.433,-0.025
1.434,-0.025
1.435,-0.025
1.436,-0.027
1.437,-0.031
1.438,-0.029
1.439,-0.031
1.440,-0.030
1.441,-0.028
1.442,-0.031
1.443,-0.031
1.444,-0.032
1.445,-0.031
1.446,-0.030
1.447,-0.031
1.448,-0.031
1.449,-0.031
1.450,-0.031
1.451,-0.031
1.452,-0.030
1.453,-0.028
1.454,-0.028
1.455,-0.028
1.456,-0.031
1.457,-0.031
1.458,-0.031
1.459,-0.028
1.460,-0.028
1.461,-0.031
1.462,-0.031
1.463,-0.031
1.464,-0.030
1.465,-0.028
1.466,-0.029
1.467,-0.028
1.468,-0.028
1.469,-0.031
1.470,-0.036
1.471,-0.034
1.472,-0.038
1.473,-0.038
1.474,-0.038
1.475,-0.034
1.476,-0.034
1.477,-0.031
1.478,-0.029
1.479,-0.031
1.480,-0.031
1.481,-0.034
1.482,-0.034
1.483,-0.034
1.484,-0.034
1.485,-0.038
1.486,-0.034
1.487,-0.034
1.488,-0.038
1.489,-0.038
1.490,-0.038
1.491,-0.038
1.492,-0.038
1.493,-0.038
1.494,-0.038
1.495,-0.041
1.496,-0.042
1.497,-0.044
1.498,-0.044
1.499,-0.044
1.500,-0.043
1.501,-0.041
1.502,-0.038
1.503,-0.044
1.504,-0.044
1.505,-0.044
1.506,-0.042
1.507,-0.044
1.508,-0.041
1.509,-0.038
1.510,-0.041
1.511,-0.038
1.512,-0.042
1.513,-0.041
1.514,-0.044
1.515,-0.047
1.516,-0.048
1.517,-0.047
1.518,-0.041
1.519,-0.041
1.520,-0.041
1.521,-0.044
1.522,-0.042
1.523,-0.047
1.524,-0.048
1.525,-0.050
1.526,-0.050
1.527,-0.050
1.528,-0.050
1.529,-0.050
1.530,-0.050
1.531,-0.053
1.532,-0.051
1.533,-0.053
1.534,-0.052
1.535,-0.053
1.536,-0.053
1.537,-0.053
1.538,-0.053
1.539,-0.053
1.540,-0.053
1.541,-0.053
1.542,-0.053
1.543,-0.053
1.544,-0.053
1.545,-0.053
1.546,-0.052
1.547,-0.050
1.548,-0.051
1.549,-0.053
1.550,-0.054
1.551,-0.056
1.552,-0.052
1.553,-0.053
1.554,-0.053
1.555,-0.056
1.556,-0.054
1.557,-0.056
1.558,-0.055
1.559,-0.056
1.560,-0.055
1.561,-0.056
1.562,-0.059
1.563,-0.059
1.564,-0.063
1.565,-0.059
1.566,-0.061
1.567,-0.063
1.568,-0.064
1.569,-0.063
1.570,-0.063
1.571,-0.063
1.572,-0.061
1.573,-0.063
1.574,-0.058
1.575,-0.053
1.576,-0.056
1.577,-0.056
1.578,-0.058
1.579,-0.059
1.580,-0.061
1.581,-0.063
1.582,-0.064
1.583,-0.063
1.584,-0.061
1.585,-0.063
1.586,-0.061
1.587,-0.066
1.588,-0.066
1.589,-0.066
1.590,-0.067
1.591,-0.069
1.592,-0.069
1.593,-0.069
1.594,-0.069
1.595,-0.069
1.596,-0.068
1.597,-0.066
1.598,-0.069
1.599,-0.066
1.600,-0.064
1.601,-0.066
1.602,-0.066
1.603,-0.066
1.604,-0.066
1.605,-0.066
1.606,-0.064
1.607,-0.063
1.608,-0.061
1.609,-0.059
1.610,-0.058
1.611,-0.059
1.612,-0.059
1.613,-0.059
1.614,-0.058
1.615,-0.056
1.616,-0.055
1.617,-0.056
1.618,-0.056
1.619,-0.056
1.620,-0.056
1.621,-0.056
1.622,-0.055
1.623,-0.053
1.624,-0.058
1.625,-0.059
1.626,-0.059
1.627,-0.063
1.628,-0.063
1.629,-0.063
1.630,-0.059
1.631,-0.063
1.632,-0.064
1.633,-0.066
1.634,-0.066
1.635,-0.066
1.636,-0.063
1.637,-0.059
1.638,-0.061
1.639,-0.063
1.640,-0.066
1.641,-0.066
1.642,-0.064
1.643,-0.066
1.644,-0.066
1.645,-0.066
1.646,-0.066
1.647,-0.066
1.648,-0.066
1.649,-0.066
1.650,-0.064
1.651,-0.063
1.652,-0.067
1.653,-0.066
1.654,-0.064
1.655,-0.066
1.656,-0.064
1.657,-0.063
1.658,-0.063
1.659,-0.063
1.660,-0.063
1.661,-0.066
1.662,-0.064
1.663,-0.066
1.664,-0.066
1.665,-0.066
1.666,-0.064
1.667,-0.063
1.668,-0.063
1.669,-0.063
1.670,-0.064
1.671,-0.066
1.672,-0.066
1.673,-0.066
1.674,-0.063
1.675,-0.059
1.676,-0.059
1.677,-0.056
1.678,-0.059
1.679,-0.059
1.680,-0.061
1.681,-0.063
1.682,-0.063
1.683,-0.066
1.684,-0.064
1.685,-0.066
1.686,-0.066
1.687,-0.066
1.688,-0.063
1.689,-0.063
1.690,-0.063
1.691,-0.066
1.692,-0.068
1.693,-0.069
1.694,-0.069
1.695,-0.069
1.696,-0.064
1.697,-0.063
1.698,-0.067
1.699,-0.066
1.700,-0.069
1.701,-0.066
1.702,-0.063
1.703,-0.063
1.704,-0.066
1.705,-0.066
1.706,-0.064
1.707,-0.066
1.708,-0.066
1.709,-0.066
1.710,-0.064
1.711,-0.066
1.712,-0.066
1.713,-0.066
1.714,-0.066
1.715,-0.066
1.716,-0.063
1.717,-0.066
1.718,-0.066
1.719,-0.066
1.720,-0.066
1.721,-0.066
1.722,-0.064
1.723,-0.063
1.724,-0.066
1.725,-0.066
1.726,-0.066
1.727,-0.066
1.728,-0.061
1.729,-0.056
1.730,-0.056
1.731,-0.056
1.732,-0.061
1.733,-0.063
1.734,-0.061
1.735,-0.063
1.736,-0.061
1.737,-0.056
1.738,-0.056
1.739,-0.056
1.740,-0.054
1.741,-0.056
1.742,-0.052
1.743,-0.053
1.744,-0.055
1.745,-0.053
1.746,-0.058
1.747,-0.056
1.748,-0.059
1.749,-0.059
1.750,-0.059
1.751,-0.059
1.752,-0.064
1.753,-0.063
1.754,-0.061
1.755,-0.063
1.756,-0.063
1.757,-0.063
1.758,-0.063
1.759,-0.063
1.760,-0.063
1.761,-0.063
1.762,-0.064
1.763,-0.059
1.764,-0.061
1.765,-0.063
1.766,-0.064
1.767,-0.066
1.768,-0.068
1.769,-0.066
1.770,-0.064
1.771,-0.066
1.772,-0.064
1.773,-0.066
1.774,-0.064
1.775,-0.066
1.776,-0.063
1.777,-0.066
1.778,-0.064
1.779,-0.066
1.780,-0.063
1.781,-0.059
1.782,-0.059
1.783,-0.056
1.784,-0.061
1.785,-0.063
1.786,-0.061
1.787,-0.059
1.788,-0.061
1.789,-0.059
1.790,-0.064
1.791,-0.063
1.792,-0.059
1.793,-0.056
1.794,-0.058
1.795,-0.059
1.796,-0.061
1.797,-0.063
1.798,-0.063
1.799,-0.063
1.800,-0.058
1.801,-0.056
1.802,-0.052
1.803,-0.053
1.804,-0.058
1.805,-0.059
1.806,-0.058
1.807,-0.059
1.808,-0.056
1.809,-0.056
1.810,-0.056
1.811,-0.056
1.812,-0.058
1.813,-0.059
1.814,-0.059
1.815,-0.059
1.816,-0.059
1.817,-0.059
1.818,-0.059
1.819,-0.059
1.820,-0.059
1.821,-0.059
1.822,-0.058
1.823,-0.056
1.824,-0.056
1.825,-0.056
1.826,-0.053
1.827,-0.050
1.828,-0.052
1.829,-0.050
1.830,-0.051
1.831,-0.050
1.832,-0.051
1.833,-0.053
1.834,-0.056
1.835,-0.056
1.836,-0.052
1.837,-0.050
1.838,-0.053
1.839,-0.053
1.840,-0.054
1.841,-0.056
1.842,-0.056
1.843,-0.053
1.844,-0.052
1.845,-0.050
1.846,-0.050
1.847,-0.050
1.848,-0.050
1.849,-0.050
1.850,-0.050
1.851,-0.053
1.852,-0.054
1.853,-0.056
1.854,-0.055
1.855,-0.053
1.856,-0.058
1.857,-0.053
1.858,-0.056
1.859,-0.056
1.860,-0.058
1.861,-0.059
1.862,-0.059
1.863,-0.059
1.864,-0.058
1.865,-0.059
1.866,-0.058
1.867,-0.056
1.868,-0.056
1.869,-0.059
1.870,-0.058
1.871,-0.059
1.872,-0.053
1.873,-0.050
1.874,-0.054
1.875,-0.053
1.876,-0.054
1.877,-0.056
1.878,-0.055
1.879,-0.053
1.880,-0.054
1.881,-0.056
1.882,-0.058
1.883,-0.056
1.884,-0.055
1.885,-0.053
1.886,-0.056
1.887,-0.056
1.888,-0.056
1.889,-0.053
1.890,-0.053
1.891,-0.053
1.892,-0.051
1.893,-0.053
1.894,-0.054
1.895,-0.056
1.896,-0.056
1.897,-0.056
1.898,-0.056
1.899,-0.056
1.900,-0.052
1.901,-0.053
1.902,-0.048
1.903,-0.050
1.904,-0.046
1.905,-0.041
1.906,-0.036
1.907,-0.028
1.908,-0.025
1.909,-0.019
1.910,-0.019
1.911,-0.013
1.912,-0.008
1.913,-0.006
1.914,-0.005
1.915,0.000
1.916,0.000
1.917,0.000
1.918,0.007
1.919,0.009
1.920,0.011
1.921,0.012
1.922,0.008
1.923,0.009
1.924,0.009
1.925,0.009
1.926,0.008
1.927,0.006
1.928,0.011
1.929,0.019
1.930,0.029
1.931,0.041
1.932,0.055
1.933,0.069
1.934,0.084
1.935,0.106
1.936,0.122
1.937,0.134
1.938,0.144
1.939,0.150
1.940,0.149
1.941,0.147
1.942,0.145
1.943,0.147
1.944,0.142
1.945,0.144
1.946,0.144
1.947,0.144
1.948,0.144
1.949,0.144
1.950,0.151
1.951,0.156
1.952,0.151
1.953,0.144
1.954,0.128
1.955,0.116
1.956,0.114
1.957,0.109
1.958,0.109
1.959,0.106
1.960,0.103
1.961,0.097
1.962,0.092
1.963,0.084
1.964,0.087
1.965,0.084
1.966,0.087
1.967,0.087
1.968,0.083
1.969,0.078
1.970,0.075
1.971,0.069
1.972,0.062
1.973,0.062
1.974,0.064
1.975,0.062
1.976,0.069
1.977,0.066
1.978,0.059
1.979,0.050
1.980,0.039
1.981,0.031
1.982,0.025
1.983,0.016
1.984,0.006
1.985,-0.003
1.986,-0.009
1.987,-0.013
1.988,-0.017
1.989,-0.022
1.990,-0.029
1.991,-0.038
1.992,-0.042
1.993,-0.044
1.994,-0.047
1.995,-0.047
1.996,-0.047
1.997,-0.047
1.998,-0.049
1.999,-0.047
2.000,-0.047
2.001,-0.050
2.002,-0.050
2.003,-0.050
2.004,-0.050
2.005,-0.050
2.006,-0.053
2.007,-0.053
2.008,-0.053
2.009,-0.053
2.010,-0.056
2.011,-0.053
2.012,-0.052
2.013,-0.050
2.014,-0.049
2.015,-0.050
2.016,-0.051
2.017,-0.056
2.018,-0.059
2.019,-0.063
2.020,-0.061
2.021,-0.063
2.022,-0.067
2.023,-0.069
2.024,-0.067
2.025,-0.072
2.026,-0.072
2.027,-0.069
2.028,-0.069
2.029,-0.069
2.030,-0.068
2.031,-0.069
2.032,-0.068
2.033,-0.066
2.034,-0.067
2.035,-0.066
2.036,-0.068
2.037,-0.069
2.038,-0.069
2.039,-0.072
2.040,-0.075
2.041,-0.075
2.042,-0.074
2.043,-0.072
2.044,-0.072
2.045,-0.072
2.046,-0.069
2.047,-0.069
2.048,-0.067
2.049,-0.069
2.050,-0.070
2.051,-0.069
2.052,-0.068
2.053,-0.066
2.054,-0.067
2.055,-0.066
2.056,-0.066
2.057,-0.066
2.058,-0.063
2.059,-0.066
2.060,-0.068
2.061,-0.066
2.062,-0.074
2.063,-0.078
2.064,-0.086
2.065,-0.091
2.066,-0.089
2.067,-0.081
2.068,-0.071
2.069,-0.059
2.070,-0.039
2.071,-0.022
2.072,0.016
2.073,0.041
2.074,0.073
2.075,0.094
2.076,0.116
2.077,0.134
2.078,0.150
2.079,0.169
2.080,0.192
2.081,0.234
2.082,0.283
2.083,0.344
2.084,0.416
2.085,0.487
2.086,0.547
2.087,0.597
2.088,0.666
2.089,0.731
2.090,0.795
2.091,0.837
2.092,0.820
2.093,0.837
2.094,0.855
2.095,0.912
2.096,0.989
2.097,1.022
2.098,1.054
2.099,0.991
2.100,0.912
2.101,0.756
2.102,0.574
2.103,0.434
2.104,0.299
2.105,0.222
2.106,0.156
2.107,0.103
2.108,0.052
2.109,0.012
2.110,-0.017
2.111,-0.038
2.112,-0.056
2.113,-0.069
2.114,-0.081
2.115,-0.084
2.116,-0.084
2.117,-0.072
2.118,-0.059
2.119,-0.053
2.120,-0.044
2.121,-0.034
2.122,-0.016
2.123,0.006
2.124,0.020
2.125,0.031
2.126,0.037
2.127,0.047
2.128,0.046
2.129,0.047
2.130,0.044
2.131,0.031
2.132,0.021
2.133,0.012
2.134,0.009
2.135,0.003
2.136,-0.008
2.137,-0.013
2.138,-0.022
2.139,-0.031
2.140,-0.033
2.141,-0.034
2.142,-0.038
2.143,-0.038
2.144,-0.038
2.145,-0.034
2.146,-0.033
2.147,-0.031
2.148,-0.026
2.149,-0.028
2.150,-0.025
2.151,-0.028
2.152,-0.028
2.153,-0.028
2.154,-0.034
2.155,-0.041
2.156,-0.044
2.157,-0.044
2.158,-0.044
2.159,-0.044
2.160,-0.041
2.161,-0.041
2.162,-0.038
2.163,-0.038
2.164,-0.034
2.165,-0.031
2.166,-0.028
2.167,-0.028
2.168,-0.031
2.169,-0.031
2.170,-0.031
2.171,-0.028
2.172,-0.034
2.173,-0.034
2.174,-0.036
2.175,-0.038
2.176,-0.038
2.177,-0.041
2.178,-0.042
2.179,-0.041
2.180,-0.038
2.181,-0.034
2.182,-0.036
2.183,-0.034
2.184,-0.033
2.185,-0.031
2.186,-0.031
2.187,-0.031
2.188,-0.033
2.189,-0.031
2.190,-0.032
2.191,-0.034
2.192,-0.032
2.193,-0.034
2.194,-0.031
2.195,-0.031
2.196,-0.029
2.197,-0.028
2.198,-0.029
2.199,-0.031
2.200,-0.029
2.201,-0.031
2.202,-0.030
2.203,-0.028
2.204,-0.028
2.205,-0.028
2.206,-0.025
2.207,-0.022
2.208,-0.019
2.209,-0.019
2.210,-0.020
2.211,-0.022
2.212,-0.021
2.213,-0.016
2.214,-0.016
2.215,-0.019
2.216,-0.019
2.217,-0.019
2.218,-0.018
2.219,-0.019
2.220,-0.014
2.221,-0.016
2.222,-0.017
2.223,-0.016
2.224,-0.019
2.225,-0.019
2.226,-0.019
2.227,-0.019
2.228,-0.018
2.229,-0.016
2.230,-0.013
2.231,-0.006
2.232,-0.004
2.233,-0.006
2.234,-0.011
2.235,-0.013
2.236,-0.013
2.237,-0.013
2.238,-0.013
2.239,-0.009
2.240,-0.013
2.241,-0.009
2.242,-0.009
2.243,-0.009
2.244,-0.008
2.245,-0.006
2.246,-0.011
2.247,-0.009
2.248,-0.009
2.249,-0.009
2.250,-0.008
2.251,-0.006
2.252,-0.002
2.253,-0.003
2.254,-0.001
2.255,-0.006
2.256,-0.008
2.257,-0.006
2.258,-0.006
2.259,-0.006
2.260,-0.005
2.261,0.000
2.262,0.002
2.263,0.000
2.264,0.001
2.265,0.003
2.266,0.003
2.267,0.003
2.268,0.006
2.269,0.003
2.270,0.006
2.271,0.003
2.272,0.005
2.273,0.003
2.274,0.002
2.275,0.000
2.276,0.003
2.277,0.006
2.278,0.004
2.279,0.006
2.280,0.007
2.281,0.009
2.282,0.008
2.283,0.009
2.284,0.011
2.285,0.012
2.286,0.011
2.287,0.012
2.288,0.014
2.289,0.019
2.290,0.016
2.291,0.016
2.292,0.017
2.293,0.016
2.294,0.012
2.295,0.012
2.296,0.014
2.297,0.016
2.298,0.019
2.299,0.019
2.300,0.018
2.301,0.019
2.302,0.019
2.303,0.022
2.304,0.019
2.305,0.019
2.306,0.023
2.307,0.025
2.308,0.025
2.309,0.022
2.310,0.022
2.311,0.022
2.312,0.022
2.313,0.022
2.314,0.024
2.315,0.025
2.316,0.028
2.317,0.031
2.318,0.029
2.319,0.034
2.320,0.034
2.321,0.034
2.322,0.034
2.323,0.037
2.324,0.037
2.325,0.037
2.326,0.037
2.327,0.041
2.328,0.044
2.329,0.047
2.330,0.042
2.331,0.044
2.332,0.046
2.333,0.044
2.334,0.045
2.335,0.047
2.336,0.047
2.337,0.047
2.338,0.046
2.339,0.047
2.340,0.048
2.341,0.050
2.342,0.047
2.343,0.047
2.344,0.047
2.345,0.047
2.346,0.049
2.347,0.050
2.348,0.052
2.349,0.050
2.350,0.051
2.351,0.053
2.352,0.053
2.353,0.053
2.354,0.052
2.355,0.050
2.356,0.053
2.357,0.059
2.358,0.059
2.359,0.062
2.360,0.061
2.361,0.059
2.362,0.059
2.363,0.059
2.364,0.062
2.365,0.059
2.366,0.061
2.367,0.059
2.368,0.059
2.369,0.059
2.370,0.059
2.371,0.062
2.372,0.062
2.373,0.062
2.374,0.064
2.375,0.066
2.376,0.066
2.377,0.066
2.378,0.069
2.379,0.069
2.380,0.070
2.381,0.069
2.382,0.071
2.383,0.069
2.384,0.068
2.385,0.069
2.386,0.070
2.387,0.072
2.388,0.076
2.389,0.075
2.390,0.075
2.391,0.075
2.392,0.077
2.393,0.075
2.394,0.074
2.395,0.075
2.396,0.078
2.397,0.078
2.398,0.078
2.399,0.078
2.400,0.081
2.401,0.084
2.402,0.083
2.403,0.081
2.404,0.082
2.405,0.084
2.406,0.089
2.407,0.091
2.408,0.094
2.409,0.100
2.410,0.097
2.411,0.097
2.412,0.100
2.413,0.100
2.414,0.100
2.415,0.103
2.416,0.106
2.417,0.106
2.418,0.106
2.419,0.109
2.420,0.109
2.421,0.112
2.422,0.114
2.423,0.119
2.424,0.122
2.425,0.122
2.426,0.121
2.427,0.122
2.428,0.122
2.429,0.122
2.430,0.126
2.431,0.128
2.432,0.128
2.433,0.131
2.434,0.133
2.435,0.131
2.436,0.132
2.437,0.134
2.438,0.133
2.439,0.131
2.440,0.130
2.441,0.131
2.442,0.131
2.443,0.134
2.444,0.132
2.445,0.134
2.446,0.131
2.447,0.134
2.448,0.130
2.449,0.128
2.450,0.125
2.451,0.122
2.452,0.123
2.453,0.125
2.454,0.125
2.455,0.125
2.456,0.122
2.457,0.116
2.458,0.112
2.459,0.112
2.460,0.111
2.461,0.109
2.462,0.108
2.463,0.106
2.464,0.104
2.465,0.100
2.466,0.097
2.467,0.091
2.468,0.089
2.469,0.091
2.470,0.089
2.471,0.087
2.472,0.081
2.473,0.078
2.474,0.075
2.475,0.072
2.476,0.066
2.477,0.062
2.478,0.064
2.479,0.062
2.480,0.056
2.481,0.053
2.482,0.050
2.483,0.047
2.484,0.045
2.485,0.047
2.486,0.045
2.487,0.047
2.488,0.045
2.489,0.044
2.490,0.037
2.491,0.034
2.492,0.029
2.493,0.031
2.494,0.028
2.495,0.028
2.496,0.024
2.497,0.019
2.498,0.016
2.499,0.016
2.500,0.014
2.501,0.012
2.502,0.009
2.503,0.009
2.504,0.006
2.505,0.003
2.506,0.004
2.507,0.003
2.508,-0.001
2.509,-0.006
2.510,-0.006
2.511,-0.006
2.512,-0.009
2.513,-0.013
2.514,-0.014
2.515,-0.016
2.516,-0.014
2.517,-0.016
2.518,-0.017
2.519,-0.019
2.520,-0.018
2.521,-0.019
2.522,-0.016
2.523,-0.019
2.524,-0.019
2.525,-0.019
2.526,-0.020
2.527,-0.025
2.528,-0.026
2.529,-0.028
2.530,-0.027
2.531,-0.028
2.532,-0.027
2.533,-0.028
2.534,-0.029
2.535,-0.034
2.536,-0.032
2.537,-0.034
2.538,-0.034
2.539,-0.038
2.540,-0.047
2.541,-0.047
2.542,-0.043
2.543,-0.038
2.544,-0.038
2.545,-0.041
2.546,-0.041
2.547,-0.041
2.548,-0.038
2.549,-0.038
2.550,-0.041
2.551,-0.041
2.552,-0.042
2.553,-0.044
2.554,-0.044
2.555,-0.044
2.556,-0.045
2.557,-0.047
2.558,-0.046
2.559,-0.047
2.560,-0.047
2.561,-0.047
2.562,-0.043
2.563,-0.041
2.564,-0.044
2.565,-0.044
2.566,-0.047
2.567,-0.050
2.568,-0.050
2.569,-0.050
2.570,-0.048
2.571,-0.050
2.572,-0.052
2.573,-0.053
2.574,-0.049
2.575,-0.050
2.576,-0.051
2.577,-0.053
2.578,-0.049
2.579,-0.050
2.580,-0.051
2.581,-0.050
2.582,-0.049
2.583,-0.047
2.584,-0.050
2.585,-0.050
2.586,-0.050
2.587,-0.050
2.588,-0.054
2.589,-0.053
2.590,-0.052
2.591,-0.053
2.592,-0.052
2.593,-0.050
2.594,-0.051
2.595,-0.053
2.596,-0.053
2.597,-0.053
2.598,-0.055
2.599,-0.053
2.600,-0.053
2.601,-0.053
2.602,-0.054
2.603,-0.056
2.604,-0.055
2.605,-0.050
2.606,-0.055
2.607,-0.053
2.608,-0.054
2.609,-0.053
2.610,-0.053
2.611,-0.053
2.612,-0.053
2.613,-0.056
2.614,-0.053
2.615,-0.056
2.616,-0.052
2.617,-0.053
2.618,-0.056
2.619,-0.056
2.620,-0.054
2.621,-0.053
2.622,-0.055
2.623,-0.053
2.624,-0.056
2.625,-0.053
2.626,-0.056
2.627,-0.056
2.628,-0.056
2.629,-0.056
2.630,-0.056
2.631,-0.056
2.632,-0.056
2.633,-0.056
2.634,-0.063
2.635,-0.063
2.636,-0.059
2.637,-0.056
2.638,-0.059
2.639,-0.059
2.640,-0.058
2.641,-0.056
2.642,-0.056
2.643,-0.056
2.644,-0.056
2.645,-0.056
2.646,-0.056
2.647,-0.056
2.648,-0.056
2.649,-0.056
2.650,-0.056
2.651,-0.056
2.652,-0.056
2.653,-0.056
2.654,-0.056
2.655,-0.053
2.656,-0.055
2.657,-0.053
2.658,-0.058
2.659,-0.056
2.660,-0.055
2.661,-0.053
2.662,-0.055
2.663,-0.053
2.664,-0.056
2.665,-0.059
2.666,-0.059
2.667,-0.059
2.668,-0.054
2.669,-0.056
2.670,-0.055
2.671,-0.056
2.672,-0.056
2.673,-0.056
2.674,-0.058
2.675,-0.056
2.676,-0.058
2.677,-0.059
2.678,-0.061
2.679,-0.066
2.680,-0.066
2.681,-0.066
2.682,-0.066
2.683,-0.066
2.684,-0.066
2.685,-0.066
2.686,-0.064
2.687,-0.066
2.688,-0.069
2.689,-0.066
2.690,-0.068
2.691,-0.066
2.692,-0.066
2.693,-0.066
2.694,-0.066
2.695,-0.066
2.696,-0.066
2.697,-0.066
2.698,-0.066
2.699,-0.066
2.700,-0.066
2.701,-0.069
2.702,-0.066
2.703,-0.066
2.704,-0.069
2.705,-0.069
2.706,-0.068
2.707,-0.066
2.708,-0.066
2.709,-0.066
2.710,-0.067
2.711,-0.069
2.712,-0.070
2.713,-0.069
2.714,-0.069
2.715,-0.069
2.716,-0.069
2.717,-0.069
2.718,-0.070
2.719,-0.072
2.720,-0.074
2.721,-0.072
2.722,-0.069
2.723,-0.066
2.724,-0.066
2.725,-0.066
2.726,-0.066
2.727,-0.069
2.728,-0.070
2.729,-0.069
2.730,-0.069
2.731,-0.069
2.732,-0.070
2.733,-0.069
2.734,-0.072
2.735,-0.072
2.736,-0.073
2.737,-0.075
2.738,-0.074
2.739,-0.072
2.740,-0.071
2.741,-0.069
2.742,-0.069
2.743,-0.072
2.744,-0.075
2.745,-0.075
2.746,-0.075
2.747,-0.075
2.748,-0.075
2.749,-0.075
2.750,-0.076
2.751,-0.078
2.752,-0.078
2.753,-0.078
2.754,-0.077
2.755,-0.078
2.756,-0.075
2.757,-0.075
2.758,-0.078
2.759,-0.078
2.760,-0.079
2.761,-0.081
2.762,-0.081
2.763,-0.081
2.764,-0.086
2.765,-0.084
2.766,-0.084
2.767,-0.084
2.768,-0.084
2.769,-0.084
2.770,-0.086
2.771,-0.088
2.772,-0.088
2.773,-0.088
2.774,-0.088
2.775,-0.088
2.776,-0.088
2.777,-0.088
2.778,-0.088
2.779,-0.088
2.780,-0.083
2.781,-0.084
2.782,-0.084
2.783,-0.084
2.784,-0.084
2.785,-0.084
2.786,-0.086
2.787,-0.081
2.788,-0.080
2.789,-0.078
2.790,-0.078
2.791,-0.078
2.792,-0.082
2.793,-0.081
2.794,-0.083
2.795,-0.084
2.796,-0.086
2.797,-0.088
2.798,-0.088
2.799,-0.088
2.800,-0.088
2.801,-0.088
2.802,-0.089
2.803,-0.088
2.804,-0.086
2.805,-0.088
2.806,-0.088
2.807,-0.088
2.808,-0.088
2.809,-0.088
2.810,-0.088
2.811,-0.088
2.812,-0.088
2.813,-0.088
2.814,-0.086
2.815,-0.084
2.816,-0.088
2.817,-0.088
2.818,-0.088
2.819,-0.088
2.820,-0.088
2.821,-0.088
2.822,-0.084
2.823,-0.084
2.824,-0.088
2.825,-0.084
2.826,-0.089
2.827,-0.088
2.828,-0.088
2.829,-0.091
2.830,-0.094
2.831,-0.094
2.832,-0.092
2.833,-0.094
2.834,-0.094
2.835,-0.094
2.836,-0.091
2.837,-0.091
2.838,-0.092
2.839,-0.094
2.840,-0.097
2.841,-0.100
2.842,-0.096
2.843,-0.097
2.844,-0.097
2.845,-0.097
2.846,-0.095
2.847,-0.094
2.848,-0.093
2.849,-0.091
2.850,-0.094
2.851,-0.094
2.852,-0.094
2.853,-0.094
2.854,-0.094
2.855,-0.094
2.856,-0.094
2.857,-0.094
2.858,-0.096
2.859,-0.094
2.860,-0.093
2.861,-0.094
2.862,-0.095
2.863,-0.094
2.864,-0.094
2.865,-0.094
2.866,-0.092
2.867,-0.094
2.868,-0.089
2.869,-0.091
2.870,-0.093
2.871,-0.091
2.872,-0.095
2.873,-0.094
2.874,-0.095
2.875,-0.094
2.876,-0.093
2.877,-0.091
2.878,-0.093
2.879,-0.088
2.880,-0.088
2.881,-0.091
2.882,-0.091
2.883,-0.091
2.884,-0.092
2.885,-0.094
2.886,-0.094
2.887,-0.094
2.888,-0.095
2.889,-0.091
2.890,-0.093
2.891,-0.094
2.892,-0.092
2.893,-0.091
2.894,-0.094
2.895,-0.094
2.896,-0.091
2.897,-0.091
2.898,-0.088
2.899,-0.088
2.900,-0.086
2.901,-0.088
2.902,-0.086
2.903,-0.091
2.904,-0.088
2.905,-0.088
2.906,-0.088
2.907,-0.088
2.908,-0.088
2.909,-0.084
2.910,-0.088
2.911,-0.088
2.912,-0.088
2.913,-0.088
2.914,-0.089
2.915,-0.088
2.916,-0.092
2.917,-0.091
2.918,-0.091
2.919,-0.091
2.920,-0.091
2.921,-0.091
2.922,-0.089
2.923,-0.088
2.924,-0.089
2.925,-0.091
2.926,-0.089
2.927,-0.091
2.928,-0.086
2.929,-0.088
2.930,-0.091
2.931,-0.091
2.932,-0.089
2.933,-0.091
2.934,-0.089
2.935,-0.091
2.936,-0.092
2.937,-0.094
2.938,-0.094
2.939,-0.094
2.940,-0.091
2.941,-0.088
2.942,-0.088
2.943,-0.088
2.944,-0.088
2.945,-0.088
2.946,-0.089
2.947,-0.091
2.948,-0.091
2.949,-0.091
2.950,-0.091
2.951,-0.091
2.952,-0.091
2.953,-0.091
2.954,-0.091
2.955,-0.088
2.956,-0.089
2.957,-0.088
2.958,-0.088
2.959,-0.088
2.960,-0.091
2.961,-0.091
2.962,-0.088
2.963,-0.088
2.964,-0.091
2.965,-0.091
2.966,-0.091
2.967,-0.091
2.968,-0.091
2.969,-0.088
2.970,-0.088
2.971,-0.088
2.972,-0.089
2.973,-0.091
2.974,-0.091
2.975,-0.091
2.976,-0.089
2.977,-0.091
2.978,-0.089
2.979,-0.088
2.980,-0.088
2.981,-0.088
2.982,-0.092
2.983,-0.088
2.984,-0.089
2.985,-0.088
2.986,-0.086
2.987,-0.084
2.988,-0.086
2.989,-0.088
2.990,-0.084
2.991,-0.084
2.992,-0.083
2.993,-0.081
2.994,-0.080
2.995,-0.081
2.996,-0.079
2.997,-0.081
2.998,-0.081
2.999,-0.084
3.000,-0.089
3.001,-0.088
3.002,-0.088
3.003,-0.088
3.004,-0.088
3.005,-0.088
3.006,-0.088
3.007,-0.088
3.008,-0.089
3.009,-0.088
3.010,-0.086
3.011,-0.084
3.012,-0.088
3.013,-0.088
3.014,-0.088
3.015,-0.084
3.016,-0.086
3.017,-0.088
3.018,-0.086
3.019,-0.088
3.020,-0.086
3.021,-0.084
3.022,-0.084
3.023,-0.084
3.024,-0.084
3.025,-0.084
3.026,-0.078
3.027,-0.078
3.028,-0.071
3.029,-0.069
3.030,-0.064
3.031,-0.059
3.032,-0.056
3.033,-0.050
3.034,-0.047
3.035,-0.041
3.036,-0.042
3.037,-0.038
3.038,-0.036
3.039,-0.038
3.040,-0.036
3.041,-0.031
3.042,-0.031
3.043,-0.031
3.044,-0.026
3.045,-0.028
3.046,-0.027
3.047,-0.025
3.048,-0.028
3.049,-0.025
3.050,-0.025
3.051,-0.025
3.052,-0.021
3.053,-0.016
3.054,-0.009
3.055,0.000
3.056,0.012
3.057,0.025
3.058,0.041
3.059,0.056
3.060,0.069
3.061,0.087
3.062,0.102
3.063,0.112
3.064,0.118
3.065,0.119
3.066,0.120
3.067,0.122
3.068,0.119
3.069,0.119
3.070,0.114
3.071,0.116
3.072,0.116
3.073,0.116
3.074,0.117
3.075,0.119
3.076,0.114
3.077,0.106
3.078,0.100
3.079,0.091
3.080,0.086
3.081,0.084
3.082,0.083
3.083,0.078
3.084,0.075
3.085,0.069
3.086,0.066
3.087,0.059
3.088,0.056
3.089,0.050
3.090,0.053
3.091,0.050
3.092,0.050
3.093,0.047
3.094,0.044
3.095,0.041
3.096,0.037
3.097,0.031
3.098,0.027
3.099,0.028
3.100,0.031
3.101,0.031
3.102,0.034
3.103,0.028
3.104,0.023
3.105,0.016
3.106,0.003
3.107,-0.006
3.108,-0.013
3.109,-0.022
3.110,-0.030
3.111,-0.038
3.112,-0.043
3.113,-0.044
3.114,-0.048
3.115,-0.053
3.116,-0.058
3.117,-0.063
3.118,-0.064
3.119,-0.063
3.120,-0.066
3.121,-0.066
3.122,-0.066
3.123,-0.066
3.124,-0.069
3.125,-0.069
3.126,-0.069
3.127,-0.072
3.128,-0.073
3.129,-0.075
3.130,-0.074
3.131,-0.072
3.132,-0.075
3.133,-0.075
3.134,-0.075
3.135,-0.075
3.136,-0.079
3.137,-0.078
3.138,-0.078
3.139,-0.078
3.140,-0.077
3.141,-0.078
3.142,-0.077
3.143,-0.078
3.144,-0.079
3.145,-0.081
3.146,-0.080
3.147,-0.081
3.148,-0.084
3.149,-0.084
3.150,-0.081
3.151,-0.084
3.152,-0.086
3.153,-0.084
3.154,-0.084
3.155,-0.084
3.156,-0.084
3.157,-0.088
3.158,-0.086
3.159,-0.084
3.160,-0.086
3.161,-0.084
3.162,-0.086
3.163,-0.088
3.164,-0.086
3.165,-0.088
3.166,-0.089
3.167,-0.088
3.168,-0.088
3.169,-0.088
3.170,-0.084
3.171,-0.081
3.172,-0.078
3.173,-0.078
3.174,-0.078
3.175,-0.081
3.176,-0.084
3.177,-0.084
3.178,-0.084
3.179,-0.084
3.180,-0.081
3.181,-0.075
3.182,-0.075
3.183,-0.075
3.184,-0.075
3.185,-0.081
3.186,-0.081
3.187,-0.078
3.188,-0.088
3.189,-0.094
3.190,-0.100
3.191,-0.103
3.192,-0.101
3.193,-0.094
3.194,-0.083
3.195,-0.072
3.196,-0.048
3.197,-0.028
3.198,0.006
3.199,0.028
3.200,0.055
3.201,0.069
3.202,0.087
3.203,0.103
3.204,0.116
3.205,0.131
3.206,0.159
3.207,0.206
3.208,0.261
3.209,0.328
3.210,0.397
3.211,0.466
3.212,0.525
3.213,0.575
3.214,0.644
3.215,0.709
3.216,0.759
3.217,0.787
3.218,0.770
3.219,0.787
3.220,0.811
3.221,0.875
3.222,0.948
3.223,0.978
3.224,1.009
3.225,0.944
3.226,0.862
3.227,0.703
3.228,0.530
3.229,0.400
3.230,0.275
3.231,0.209
3.232,0.150
3.233,0.103
3.234,0.061
3.235,0.031
3.236,0.005
3.237,-0.013
3.238,-0.034
3.239,-0.050
3.240,-0.058
3.241,-0.056
3.242,-0.058
3.243,-0.047
3.244,-0.039
3.245,-0.038
3.246,-0.027
3.247,-0.016
3.248,0.002
3.249,0.022
3.250,0.032
3.251,0.041
3.252,0.046
3.253,0.053
3.254,0.047
3.255,0.044
3.256,0.039
3.257,0.025
3.258,0.017
3.259,0.012
3.260,0.009
3.261,0.003
3.262,-0.005
3.263,-0.006
3.264,-0.016
3.265,-0.025
3.266,-0.032
3.267,-0.041
3.268,-0.044
3.269,-0.044
3.270,-0.043
3.271,-0.038
3.272,-0.038
3.273,-0.038
3.274,-0.031
3.275,-0.031
3.276,-0.028
3.277,-0.031
3.278,-0.032
3.279,-0.034
3.280,-0.034
3.281,-0.034
3.282,-0.039
3.283,-0.041
3.284,-0.044
3.285,-0.047
3.286,-0.045
3.287,-0.047
3.288,-0.043
3.289,-0.041
3.290,-0.039
3.291,-0.038
3.292,-0.033
3.293,-0.031
3.294,-0.034
3.295,-0.034
3.296,-0.034
3.297,-0.031
3.298,-0.038
3.299,-0.038
3.300,-0.038
3.301,-0.038
3.302,-0.034
3.303,-0.034
3.304,-0.036
3.305,-0.034
3.306,-0.033
3.307,-0.031
3.308,-0.031
3.309,-0.028
3.310,-0.028
3.311,-0.028
3.312,-0.027
3.313,-0.025
3.314,-0.028
3.315,-0.028
3.316,-0.028
3.317,-0.028
3.318,-0.025
3.319,-0.025
3.320,-0.024
3.321,-0.025
3.322,-0.022
3.323,-0.019
3.324,-0.019
3.325,-0.019
3.326,-0.017
3.327,-0.019
3.328,-0.019
3.329,-0.019
3.330,-0.019
3.331,-0.019
3.332,-0.019
3.333,-0.019
3.334,-0.017
3.335,-0.019
3.336,-0.016
3.337,-0.013
3.338,-0.016
3.339,-0.016
3.340,-0.014
3.341,-0.016
3.342,-0.014
3.343,-0.013
3.344,-0.011
3.345,-0.013
3.346,-0.003
3.347,0.000
3.348,-0.003
3.349,-0.003
3.350,-0.006
3.351,-0.006
3.352,-0.006
3.353,-0.006
3.354,-0.006
3.355,-0.006
3.356,-0.008
3.357,-0.006
3.358,-0.002
3.359,0.000
3.360,-0.003
3.361,-0.003
3.362,-0.003
3.363,-0.003
3.364,-0.003
3.365,0.000
3.366,-0.004
3.367,-0.003
3.368,-0.003
3.369,-0.003
3.370,-0.002
3.371,0.000
3.372,-0.002
3.373,0.003
3.374,0.003
3.375,0.003
3.376,0.003
3.377,0.003
3.378,0.006
3.379,0.003
3.380,0.006
3.381,0.003
3.382,0.002
3.383,0.003
3.384,0.006
3.385,0.009
3.386,0.006
3.387,0.006
3.388,0.008
3.389,0.006
3.390,0.006
3.391,0.006
3.392,0.006
3.393,0.006
3.394,0.011
3.395,0.009
3.396,0.014
3.397,0.012
3.398,0.014
3.399,0.012
3.400,0.011
3.401,0.009
3.402,0.011
3.403,0.012
3.404,0.011
3.405,0.012
3.406,0.012
3.407,0.012
3.408,0.012
3.409,0.016
3.410,0.020
3.411,0.025
3.412,0.024
3.413,0.025
3.414,0.024
3.415,0.025
3.416,0.024
3.417,0.025
3.418,0.026
3.419,0.025
3.420,0.024
3.421,0.025
3.422,0.026
3.423,0.028
3.424,0.031
3.425,0.031
3.426,0.030
3.427,0.031
3.428,0.034
3.429,0.041
3.430,0.037
3.431,0.037
3.432,0.037
3.433,0.034
3.434,0.037
3.435,0.037
3.436,0.039
3.437,0.041
3.438,0.041
3.439,0.041
3.440,0.044
3.441,0.047
3.442,0.048
3.443,0.050
3.444,0.046
3.445,0.047
3.446,0.047
3.447,0.047
3.448,0.046
3.449,0.047
3.450,0.048
3.451,0.050
3.452,0.051
3.453,0.056
3.454,0.055
3.455,0.053
3.456,0.050
3.457,0.053
3.458,0.056
3.459,0.056
3.460,0.057
3.461,0.059
3.462,0.059
3.463,0.059
3.464,0.058
3.465,0.059
3.466,0.061
3.467,0.062
3.468,0.061
3.469,0.062
3.470,0.062
3.471,0.062
3.472,0.062
3.473,0.062
3.474,0.067
3.475,0.069
3.476,0.069
3.477,0.069
3.478,0.068
3.479,0.066
3.480,0.066
3.481,0.066
3.482,0.064
3.483,0.066
3.484,0.066
3.485,0.069
3.486,0.069
3.487,0.069
3.488,0.072
3.489,0.075
3.490,0.078
3.491,0.075
3.492,0.078
3.493,0.078
3.494,0.081
3.495,0.084
3.496,0.083
3.497,0.084
3.498,0.084
3.499,0.084
3.500,0.084
3.501,0.084
3.502,0.083
3.503,0.081
3.504,0.083
3.505,0.081
3.506,0.082
3.507,0.081
3.508,0.084
3.509,0.084
3.510,0.084
3.511,0.087
3.512,0.086
3.513,0.084
3.514,0.087
3.515,0.084
3.516,0.086
3.517,0.087
3.518,0.089
3.519,0.087
3.520,0.087
3.521,0.091
3.522,0.094
3.523,0.094
3.524,0.095
3.525,0.097
3.526,0.099
3.527,0.100
3.528,0.100
3.529,0.100
3.530,0.101
3.531,0.103
3.532,0.106
3.533,0.106
3.534,0.105
3.535,0.106
3.536,0.105
3.537,0.106
3.538,0.108
3.539,0.106
3.540,0.106
3.541,0.109
3.542,0.114
3.543,0.116
3.544,0.114
3.545,0.116
3.546,0.119
3.547,0.125
3.548,0.124
3.549,0.125
3.550,0.127
3.551,0.125
3.552,0.126
3.553,0.131
3.554,0.132
3.555,0.134
3.556,0.137
3.557,0.137
3.558,0.136
3.559,0.137
3.560,0.139
3.561,0.137
3.562,0.139
3.563,0.141
3.564,0.141
3.565,0.141
3.566,0.139
3.567,0.141
3.568,0.142
3.569,0.147
3.570,0.145
3.571,0.147
3.572,0.144
3.573,0.147
3.574,0.144
3.575,0.144
3.576,0.144
3.577,0.144
3.578,0.142
3.579,0.141
3.580,0.141
3.581,0.141
3.582,0.142
3.583,0.141
3.584,0.137
3.585,0.137
3.586,0.133
3.587,0.128
3.588,0.128
3.589,0.128
3.590,0.128
3.591,0.125
3.592,0.126
3.593,0.125
3.594,0.119
3.595,0.116
3.596,0.112
3.597,0.109
3.598,0.107
3.599,0.109
3.600,0.107
3.601,0.106
3.602,0.101
3.603,0.100
3.604,0.100
3.605,0.097
3.606,0.094
3.607,0.094
3.608,0.091
3.609,0.087
3.610,0.086
3.611,0.087
3.612,0.083
3.613,0.081
3.614,0.077
3.615,0.072
3.616,0.070
3.617,0.072
3.618,0.067
3.619,0.069
3.620,0.066
3.621,0.066
3.622,0.062
3.623,0.059
3.624,0.053
3.625,0.050
3.626,0.047
3.627,0.044
3.628,0.042
3.629,0.044
3.630,0.041
3.631,0.037
3.632,0.034
3.633,0.028
3.634,0.026
3.635,0.025
3.636,0.026
3.637,0.028
3.638,0.024
3.639,0.019
3.640,0.018
3.641,0.016
3.642,0.017
3.643,0.016
3.644,0.014
3.645,0.012
3.646,0.012
3.647,0.009
3.648,0.011
3.649,0.006
3.650,0.006
3.651,0.006
3.652,0.007
3.653,0.006
3.654,0.006
3.655,0.006
3.656,0.006
3.657,0.003
3.658,0.002
3.659,-0.003
3.660,-0.002
3.661,-0.003
3.662,-0.001
3.663,-0.003
3.664,-0.002
3.665,-0.003
3.666,-0.013
3.667,-0.013
3.668,-0.013
3.669,-0.013
3.670,-0.011
3.671,-0.013
3.672,-0.014
3.673,-0.016
3.674,-0.013
3.675,-0.013
3.676,-0.016
3.677,-0.016
3.678,-0.016
3.679,-0.016
3.680,-0.016
3.681,-0.016
3.682,-0.016
3.683,-0.016
3.684,-0.016
3.685,-0.019
3.686,-0.019
3.687,-0.019
3.688,-0.017
3.689,-0.019
3.690,-0.021
3.691,-0.019
3.692,-0.018
3.693,-0.016
3.694,-0.016
3.695,-0.016
3.696,-0.013
3.697,-0.013
3.698,-0.016
3.699,-0.019
3.700,-0.017
3.701,-0.022
3.702,-0.022
3.703,-0.022
3.704,-0.020
3.705,-0.025
3.706,-0.026
3.707,-0.025
3.708,-0.025
3.709,-0.025
3.710,-0.024
3.711,-0.019
3.712,-0.019
3.713,-0.019
3.714,-0.025
3.715,-0.025
3.716,-0.025
3.717,-0.028
3.718,-0.029
3.719,-0.031
3.720,-0.031
3.721,-0.031
3.722,-0.031
3.723,-0.031
3.724,-0.033
3.725,-0.031
3.726,-0.031
3.727,-0.031
3.728,-0.030
3.729,-0.028
3.730,-0.028
3.731,-0.025
3.732,-0.030
3.733,-0.028
3.734,-0.029
3.735,-0.028
3.736,-0.029
3.737,-0.031
3.738,-0.031
3.739,-0.034
3.740,-0.032
3.741,-0.038
3.742,-0.033
3.743,-0.034
3.744,-0.038
3.745,-0.038
3.746,-0.036
3.747,-0.034
3.748,-0.038
3.749,-0.038
3.750,-0.041
3.751,-0.038
3.752,-0.039
3.753,-0.038
3.754,-0.039
3.755,-0.041
3.756,-0.041
3.757,-0.041
3.758,-0.042
3.759,-0.044
3.760,-0.044
3.761,-0.038
3.762,-0.038
3.763,-0.038
3.764,-0.042
3.765,-0.044
3.766,-0.045
3.767,-0.047
3.768,-0.047
3.769,-0.047
3.770,-0.047
3.771,-0.047
3.772,-0.047
3.773,-0.047
3.774,-0.046
3.775,-0.044
3.776,-0.044
3.777,-0.044
3.778,-0.045
3.779,-0.047
3.780,-0.047
3.781,-0.044
3.782,-0.046
3.783,-0.044
3.784,-0.048
3.785,-0.047
3.786,-0.047
3.787,-0.047
3.788,-0.050
3.789,-0.050
3.790,-0.050
3.791,-0.050
3.792,-0.051
3.793,-0.053
3.794,-0.050
3.795,-0.053
3.796,-0.052
3.797,-0.053
3.798,-0.053
3.799,-0.053
3.800,-0.054
3.801,-0.053
3.802,-0.052
3.803,-0.050
3.804,-0.049
3.805,-0.050
3.806,-0.051
3.807,-0.053
3.808,-0.053
3.809,-0.053
3.810,-0.053
3.811,-0.053
3.812,-0.050
3.813,-0.050
3.814,-0.054
3.815,-0.053
3.816,-0.058
3.817,-0.059
3.818,-0.058
3.819,-0.056
3.820,-0.056
3.821,-0.056
3.822,-0.058
3.823,-0.059
3.824,-0.061
3.825,-0.063
3.826,-0.059
3.827,-0.059
3.828,-0.056
3.829,-0.056
3.830,-0.059
3.831,-0.059
3.832,-0.063
3.833,-0.066
3.834,-0.067
3.835,-0.069
3.836,-0.069
3.837,-0.069
3.838,-0.068
3.839,-0.063
3.840,-0.063
3.841,-0.063
3.842,-0.063
3.843,-0.063
3.844,-0.064
3.845,-0.066
3.846,-0.068
3.847,-0.066
3.848,-0.066
3.849,-0.066
3.850,-0.066
3.851,-0.066
3.852,-0.064
3.853,-0.066
3.854,-0.067
3.855,-0.066
3.856,-0.066
3.857,-0.066
3.858,-0.066
3.859,-0.063
3.860,-0.063
3.861,-0.059
3.862,-0.059
3.863,-0.059
3.864,-0.059
3.865,-0.059
3.866,-0.059
3.867,-0.059
3.868,-0.059
3.869,-0.063
3.870,-0.063
3.871,-0.059
3.872,-0.059
3.873,-0.059
3.874,-0.059
3.875,-0.059
3.876,-0.061
3.877,-0.063
3.878,-0.064
3.879,-0.066
3.880,-0.066
3.881,-0.069
3.882,-0.064
3.883,-0.063
3.884,-0.067
3.885,-0.069
3.886,-0.069
3.887,-0.069
3.888,-0.068
3.889,-0.066
3.890,-0.070
3.891,-0.069
3.892,-0.069
3.893,-0.069
3.894,-0.069
3.895,-0.069
3.896,-0.069
3.897,-0.069
3.898,-0.069
3.899,-0.069
3.900,-0.069
3.901,-0.069
3.902,-0.070
3.903,-0.072
3.904,-0.073
3.905,-0.075
3.906,-0.072
3.907,-0.075
3.908,-0.075
3.909,-0.075
3.910,-0.074
3.911,-0.072
3.912,-0.076
3.913,-0.075
3.914,-0.074
3.915,-0.072
3.916,-0.072
3.917,-0.072
3.918,-0.074
3.919,-0.069
3.920,-0.069
3.921,-0.069
3.922,-0.069
3.923,-0.069
3.924,-0.069
3.925,-0.069
3.926,-0.069
3.927,-0.069
3.928,-0.069
3.929,-0.069
3.930,-0.069
3.931,-0.069
3.932,-0.069
3.933,-0.072
3.934,-0.074
3.935,-0.072
3.936,-0.072
3.937,-0.072
3.938,-0.073
3.939,-0.075
3.940,-0.075
3.941,-0.075
3.942,-0.075
3.943,-0.075
3.944,-0.075
3.945,-0.078
3.946,-0.077
3.947,-0.075
3.948,-0.076
3.949,-0.078
3.950,-0.081
3.951,-0.081
3.952,-0.080
3.953,-0.081
3.954,-0.077
3.955,-0.078
3.956,-0.074
3.957,-0.072
3.958,-0.074
3.959,-0.075
3.960,-0.076
3.961,-0.075
3.962,-0.074
3.963,-0.072
3.964,-0.072
3.965,-0.072
3.966,-0.074
3.967,-0.072
3.968,-0.073
3.969,-0.075
3.970,-0.075
3.971,-0.072
3.972,-0.075
3.973,-0.075
3.974,-0.076
3.975,-0.075
3.976,-0.073
3.977,-0.075
3.978,-0.074
3.979,-0.075
3.980,-0.075
3.981,-0.075
3.982,-0.078
3.983,-0.081
3.984,-0.081
3.985,-0.081
3.986,-0.081
3.987,-0.084
3.988,-0.086
3.989,-0.088
3.990,-0.089
3.991,-0.088
3.992,-0.083
3.993,-0.081
3.994,-0.081
3.995,-0.078
3.996,-0.079
3.997,-0.078
3.998,-0.081
3.999,-0.084
4.000,-0.084
4.001,-0.088
4.002,-0.086
4.003,-0.088
4.004,-0.083
4.005,-0.081
4.006,-0.081
4.007,-0.084
4.008,-0.081
4.009,-0.081
4.010,-0.084
4.011,-0.084
4.012,-0.084
4.013,-0.084
4.014,-0.084
4.015,-0.084
4.016,-0.084
4.017,-0.084
4.018,-0.078
4.019,-0.081
4.020,-0.086
4.021,-0.084
4.022,-0.078
4.023,-0.078
4.024,-0.079
4.025,-0.081
4.026,-0.086
4.027,-0.084
4.028,-0.084
4.029,-0.084
4.030,-0.084
4.031,-0.078
4.032,-0.082
4.033,-0.081
4.034,-0.082
4.035,-0.084
4.036,-0.086
4.037,-0.088
4.038,-0.083
4.039,-0.084
4.040,-0.086
4.041,-0.088
4.042,-0.086
4.043,-0.088
4.044,-0.086
4.045,-0.088
4.046,-0.086
4.047,-0.088
4.048,-0.088
4.049,-0.088
4.050,-0.088
4.051,-0.088
4.052,-0.088
4.053,-0.088
4.054,-0.089
4.055,-0.088
4.056,-0.088
4.057,-0.084
4.058,-0.084
4.059,-0.084
4.060,-0.084
4.061,-0.081
4.062,-0.081
4.063,-0.078
4.064,-0.079
4.065,-0.081
4.066,-0.082
4.067,-0.084
4.068,-0.083
4.069,-0.081
4.070,-0.080
4.071,-0.078
4.072,-0.079
4.073,-0.081
4.074,-0.078
4.075,-0.078
4.076,-0.081
4.077,-0.078
4.078,-0.076
4.079,-0.078
4.080,-0.078
4.081,-0.078
4.082,-0.078
4.083,-0.081
4.084,-0.081
4.085,-0.081
4.086,-0.078
4.087,-0.078
4.088,-0.078
4.089,-0.081
4.090,-0.082
4.091,-0.081
4.092,-0.078
4.093,-0.078
4.094,-0.079
4.095,-0.081
4.096,-0.081
4.097,-0.081
4.098,-0.079
4.099,-0.081
4.100,-0.082
4.101,-0.084
4.102,-0.083
4.103,-0.081
4.104,-0.081
4.105,-0.081
4.106,-0.083
4.107,-0.081
4.108,-0.081
4.109,-0.081
4.110,-0.081
4.111,-0.084
4.112,-0.079
4.113,-0.084
4.114,-0.084
4.115,-0.084
4.116,-0.084
4.117,-0.084
4.118,-0.088
4.119,-0.088
4.120,-0.088
4.121,-0.088
4.122,-0.086
4.123,-0.084
4.124,-0.089
4.125,-0.088
4.126,-0.086
4.127,-0.084
4.128,-0.086
4.129,-0.088
4.130,-0.086
4.131,-0.088
4.132,-0.088
4.133,-0.088
4.134,-0.088
4.135,-0.088
4.136,-0.084
4.137,-0.081
4.138,-0.079
4.139,-0.081
4.140,-0.080
4.141,-0.081
4.142,-0.080
4.143,-0.078
4.144,-0.076
4.145,-0.081
4.146,-0.086
4.147,-0.084
4.148,-0.084
4.149,-0.084
4.150,-0.084
4.151,-0.084
4.152,-0.084
4.153,-0.084
4.154,-0.086
4.155,-0.084
4.156,-0.086
4.157,-0.078
4.158,-0.072
4.159,-0.063
4.160,-0.063
4.161,-0.059
4.162,-0.056
4.163,-0.059
4.164,-0.052
4.165,-0.050
4.166,-0.047
4.167,-0.047
4.168,-0.046
4.169,-0.044
4.170,-0.042
4.171,-0.044
4.172,-0.044
4.173,-0.038
4.174,-0.036
4.175,-0.034
4.176,-0.033
4.177,-0.034
4.178,-0.032
4.179,-0.034
4.180,-0.034
4.181,-0.034
4.182,-0.034
4.183,-0.031
4.184,-0.024
4.185,-0.013
4.186,-0.003
4.187,0.012
4.188,0.028
4.189,0.047
4.190,0.071
4.191,0.084
4.192,0.098
4.193,0.109
4.194,0.116
4.195,0.116
4.196,0.117
4.197,0.116
4.198,0.116
4.199,0.112
4.200,0.112
4.201,0.109
4.202,0.109
4.203,0.109
4.204,0.108
4.205,0.109
4.206,0.108
4.207,0.100
4.208,0.092
4.209,0.084
4.210,0.081
4.211,0.084
4.212,0.082
4.213,0.084
4.214,0.078
4.215,0.072
4.216,0.066
4.217,0.059
4.218,0.049
4.219,0.050
4.220,0.047
4.221,0.047
4.222,0.041
4.223,0.034
4.224,0.031
4.225,0.028
4.226,0.026
4.227,0.028
4.228,0.028
4.229,0.028
4.230,0.027
4.231,0.028
4.232,0.022
4.233,0.016
4.234,0.009
4.235,0.000
4.236,-0.011
4.237,-0.019
4.238,-0.025
4.239,-0.031
4.240,-0.041
4.241,-0.047
4.242,-0.053
4.243,-0.059
4.244,-0.063
4.245,-0.069
4.246,-0.076
4.247,-0.081
4.248,-0.080
4.249,-0.081
4.250,-0.081
4.251,-0.081
4.252,-0.080
4.253,-0.081
4.254,-0.084
4.255,-0.088
4.256,-0.089
4.257,-0.088
4.258,-0.088
4.259,-0.088
4.260,-0.088
4.261,-0.091
4.262,-0.091
4.263,-0.091
4.264,-0.089
4.265,-0.091
4.266,-0.091
4.267,-0.094
4.268,-0.094
4.269,-0.094
4.270,-0.094
4.271,-0.091
4.272,-0.094
4.273,-0.094
4.274,-0.093
4.275,-0.091
4.276,-0.094
4.277,-0.097
4.278,-0.097
4.279,-0.094
4.280,-0.097
4.281,-0.097
4.282,-0.095
4.283,-0.097
4.284,-0.096
4.285,-0.094
4.286,-0.098
4.287,-0.100
4.288,-0.099
4.289,-0.097
4.290,-0.093
4.291,-0.094
4.292,-0.098
4.293,-0.097
4.294,-0.097
4.295,-0.097
4.296,-0.095
4.297,-0.097
4.298,-0.097
4.299,-0.097
4.300,-0.097
4.301,-0.097
4.302,-0.101
4.303,-0.100
4.304,-0.099
4.305,-0.097
4.306,-0.094
4.307,-0.094
4.308,-0.094
4.309,-0.094
4.310,-0.092
4.311,-0.094
4.312,-0.091
4.313,-0.088
4.314,-0.091
4.315,-0.091
4.316,-0.092
4.317,-0.103
4.318,-0.109
4.319,-0.119
4.320,-0.128
4.321,-0.128
4.322,-0.122
4.323,-0.116
4.324,-0.109
4.325,-0.088
4.326,-0.063
4.327,-0.025
4.328,-0.003
4.329,0.025
4.330,0.039
4.331,0.056
4.332,0.069
4.333,0.084
4.334,0.106
4.335,0.134
4.336,0.180
4.337,0.228
4.338,0.287
4.339,0.350
4.340,0.412
4.341,0.469
4.342,0.522
4.343,0.591
4.344,0.653
4.345,0.706
4.346,0.736
4.347,0.706
4.348,0.702
4.349,0.712
4.350,0.782
4.351,0.856
4.352,0.887
4.353,0.912
4.354,0.841
4.355,0.769
4.356,0.612
4.357,0.453
4.358,0.334
4.359,0.219
4.360,0.161
4.361,0.106
4.362,0.073
4.363,0.041
4.364,0.022
4.365,0.006
4.366,-0.013
4.367,-0.034
4.368,-0.056
4.369,-0.078
4.370,-0.082
4.371,-0.088
4.372,-0.084
4.373,-0.084
4.374,-0.084
4.375,-0.078
4.376,-0.072
4.377,-0.047
4.378,-0.019
4.379,-0.009
4.380,-0.004
4.381,0.000
4.382,0.009
4.383,0.009
4.384,0.016
4.385,0.016
4.386,0.003
4.387,-0.006
4.388,-0.014
4.389,-0.019
4.390,-0.024
4.391,-0.031
4.392,-0.034
4.393,-0.044
4.394,-0.056
4.395,-0.063
4.396,-0.064
4.397,-0.066
4.398,-0.069
4.399,-0.072
4.400,-0.069
4.401,-0.069
4.402,-0.066
4.403,-0.056
4.404,-0.056
4.405,-0.056
4.406,-0.063
4.407,-0.063
4.408,-0.063
4.409,-0.066
4.410,-0.070
4.411,-0.075
4.412,-0.075
4.413,-0.075
4.414,-0.076
4.415,-0.075
4.416,-0.075
4.417,-0.072
4.418,-0.069
4.419,-0.063
4.420,-0.061
4.421,-0.059
4.422,-0.056
4.423,-0.056
4.424,-0.058
4.425,-0.059
4.426,-0.055
4.427,-0.059
4.428,-0.061
4.429,-0.063
4.430,-0.064
4.431,-0.063
4.432,-0.061
4.433,-0.059
4.434,-0.056
4.435,-0.056
4.436,-0.056
4.437,-0.056
4.438,-0.054
4.439,-0.056
4.440,-0.056
4.441,-0.056
4.442,-0.055
4.443,-0.056
4.444,-0.056
4.445,-0.056
4.446,-0.058
4.447,-0.056
4.448,-0.055
4.449,-0.053
4.450,-0.056
4.451,-0.053
4.452,-0.051
4.453,-0.053
4.454,-0.052
4.455,-0.047
4.456,-0.047
4.457,-0.047
4.458,-0.046
4.459,-0.044
4.460,-0.043
4.461,-0.041
4.462,-0.041
4.463,-0.038
4.464,-0.038
4.465,-0.038
4.466,-0.039
4.467,-0.041
4.468,-0.038
4.469,-0.038
4.470,-0.042
4.471,-0.041
4.472,-0.038
4.473,-0.038
4.474,-0.039
4.475,-0.034
4.476,-0.038
4.477,-0.038
4.478,-0.033
4.479,-0.031
4.480,-0.028
4.481,-0.028
4.482,-0.028
4.483,-0.028
4.484,-0.025
4.485,-0.022
4.486,-0.022
4.487,-0.022
4.488,-0.021
4.489,-0.022
4.490,-0.022
4.491,-0.022
4.492,-0.022
4.493,-0.022
4.494,-0.016
4.495,-0.016
4.496,-0.014
4.497,-0.016
4.498,-0.020
4.499,-0.025
4.500,-0.024
4.501,-0.025
4.502,-0.022
4.503,-0.022
4.504,-0.019
4.505,-0.016
4.506,-0.016
4.507,-0.013
4.508,-0.016
4.509,-0.013
4.510,-0.016
4.511,-0.016
4.512,-0.013
4.513,-0.013
4.514,-0.013
4.515,-0.013
4.516,-0.011
4.517,-0.009
4.518,-0.009
4.519,-0.009
4.520,-0.008
4.521,-0.006
4.522,-0.008
4.523,-0.006
4.524,-0.006
4.525,0.000
4.526,-0.002
4.527,0.003
4.528,0.006
4.529,0.009
4.530,0.006
4.531,0.006
4.532,0.008
4.533,0.003
4.534,0.003
4.535,0.003
4.536,0.002
4.537,0.000
4.538,0.004
4.539,0.006
4.540,0.006
4.541,0.006
4.542,0.008
4.543,0.006
4.544,0.012
4.545,0.016
4.546,0.020
4.547,0.022
4.548,0.019
4.549,0.019
4.550,0.022
4.551,0.022
4.552,0.019
4.553,0.019
4.554,0.022
4.555,0.025
4.556,0.028
4.557,0.028
4.558,0.032
4.559,0.031
4.560,0.030
4.561,0.031
4.562,0.032
4.563,0.034
4.564,0.028
4.565,0.028
4.566,0.030
4.567,0.028
4.568,0.027
4.569,0.028
4.570,0.037
4.571,0.044
4.572,0.044
4.573,0.041
4.574,0.041
4.575,0.037
4.576,0.037
4.577,0.037
4.578,0.041
4.579,0.041
4.580,0.042
4.581,0.044
4.582,0.046
4.583,0.044
4.584,0.042
4.585,0.037
4.586,0.041
4.587,0.044
4.588,0.044
4.589,0.044
4.590,0.042
4.591,0.041
4.592,0.041
4.593,0.041
4.594,0.041
4.595,0.037
4.596,0.042
4.597,0.044
4.598,0.044
4.599,0.044
4.600,0.041
4.601,0.041
4.602,0.044
4.603,0.047
4.604,0.047
4.605,0.047
4.606,0.047
4.607,0.047
4.608,0.047
4.609,0.047
4.610,0.048
4.611,0.050
4.612,0.056
4.613,0.059
4.614,0.061
4.615,0.059
4.616,0.059
4.617,0.059
4.618,0.059
4.619,0.062
4.620,0.059
4.621,0.062
4.622,0.062
4.623,0.062
4.624,0.064
4.625,0.066
4.626,0.072
4.627,0.075
4.628,0.072
4.629,0.069
4.630,0.069
4.631,0.069
4.632,0.068
4.633,0.069
4.634,0.069
4.635,0.069
4.636,0.064
4.637,0.066
4.638,0.066
4.639,0.066
4.640,0.068
4.641,0.066
4.642,0.066
4.643,0.069
4.644,0.066
4.645,0.066
4.646,0.066
4.647,0.069
4.648,0.069
4.649,0.069
4.650,0.073
4.651,0.078
4.652,0.078
4.653,0.078
4.654,0.077
4.655,0.078
4.656,0.082
4.657,0.084
4.658,0.084
4.659,0.084
4.660,0.083
4.661,0.084
4.662,0.083
4.663,0.081
4.664,0.084
4.665,0.084
4.666,0.087
4.667,0.091
4.668,0.094
4.669,0.097
4.670,0.097
4.671,0.097
4.672,0.100
4.673,0.103
4.674,0.106
4.675,0.106
4.676,0.108
4.677,0.106
4.678,0.111
4.679,0.116
4.680,0.116
4.681,0.116
4.682,0.118
4.683,0.116
4.684,0.114
4.685,0.116
4.686,0.117
4.687,0.119
4.688,0.122
4.689,0.125
4.690,0.126
4.691,0.128
4.692,0.128
4.693,0.128
4.694,0.128
4.695,0.128
4.696,0.130
4.697,0.128
4.698,0.130
4.699,0.125
4.700,0.125
4.701,0.122
4.702,0.128
4.703,0.128
4.704,0.128
4.705,0.128
4.706,0.131
4.707,0.131
4.708,0.128
4.709,0.128
4.710,0.127
4.711,0.125
4.712,0.122
4.713,0.119
4.714,0.120
4.715,0.119
4.716,0.116
4.717,0.116
4.718,0.114
4.719,0.109
4.720,0.104
4.721,0.106
4.722,0.103
4.723,0.100
4.724,0.101
4.725,0.100
4.726,0.096
4.727,0.091
4.728,0.089
4.729,0.084
4.730,0.086
4.731,0.084
4.732,0.078
4.733,0.075
4.734,0.072
4.735,0.069
4.736,0.068
4.737,0.062
4.738,0.058
4.739,0.053
4.740,0.053
4.741,0.050
4.742,0.050
4.743,0.047
4.744,0.045
4.745,0.044
4.746,0.044
4.747,0.037
4.748,0.036
4.749,0.031
4.750,0.032
4.751,0.031
4.752,0.029
4.753,0.028
4.754,0.028
4.755,0.025
4.756,0.021
4.757,0.016
4.758,0.014
4.759,0.009
4.760,0.007
4.761,0.009
4.762,0.006
4.763,0.003
4.764,0.000
4.765,0.000
4.766,-0.001
4.767,-0.006
4.768,-0.009
4.769,-0.009
4.770,-0.008
4.771,-0.006
4.772,-0.008
4.773,-0.006
4.774,-0.003
4.775,0.000
4.776,-0.003
4.777,-0.003
4.778,-0.009
4.779,-0.009
4.780,-0.011
4.781,-0.013
4.782,-0.016
4.783,-0.016
4.784,-0.016
4.785,-0.016
4.786,-0.019
4.787,-0.019
4.788,-0.022
4.789,-0.022
4.790,-0.028
4.791,-0.028
4.792,-0.028
4.793,-0.028
4.794,-0.028
4.795,-0.031
4.796,-0.028
4.797,-0.028
4.798,-0.028
4.799,-0.028
4.800,-0.032
4.801,-0.034
4.802,-0.036
4.803,-0.034
4.804,-0.036
4.805,-0.041
4.806,-0.041
4.807,-0.041
4.808,-0.041
4.809,-0.041
4.810,-0.039
4.811,-0.038
4.812,-0.039
4.813,-0.041
4.814,-0.044
4.815,-0.044
4.816,-0.043
4.817,-0.038
4.818,-0.038
4.819,-0.041
4.820,-0.042
4.821,-0.044
4.822,-0.044
4.823,-0.044
4.824,-0.044
4.825,-0.041
4.826,-0.038
4.827,-0.038
4.828,-0.041
4.829,-0.038
4.830,-0.039
4.831,-0.038
4.832,-0.038
4.833,-0.034
4.834,-0.039
4.835,-0.041
4.836,-0.039
4.837,-0.041
4.838,-0.039
4.839,-0.041
4.840,-0.041
4.841,-0.041
4.842,-0.042
4.843,-0.047
4.844,-0.044
4.845,-0.044
4.846,-0.047
4.847,-0.047
4.848,-0.047
4.849,-0.047
4.850,-0.048
4.851,-0.050
4.852,-0.049
4.853,-0.050
4.854,-0.050
4.855,-0.050
4.856,-0.050
4.857,-0.050
4.858,-0.047
4.859,-0.044
4.860,-0.041
4.861,-0.047
4.862,-0.048
4.863,-0.050
4.864,-0.048
4.865,-0.050
4.866,-0.049
4.867,-0.047
4.868,-0.047
4.869,-0.041
4.870,-0.047
4.871,-0.047
4.872,-0.049
4.873,-0.050
4.874,-0.051
4.875,-0.050
4.876,-0.046
4.877,-0.047
4.878,-0.047
4.879,-0.050
4.880,-0.047
4.881,-0.050
4.882,-0.050
4.883,-0.050
4.884,-0.049
4.885,-0.047
4.886,-0.047
4.887,-0.047
4.888,-0.047
4.889,-0.050
4.890,-0.048
4.891,-0.050
4.892,-0.049
4.893,-0.050
4.894,-0.050
4.895,-0.050
4.896,-0.050
4.897,-0.050
4.898,-0.050
4.899,-0.050
4.900,-0.050
4.901,-0.050
4.902,-0.051
4.903,-0.053
4.904,-0.056
4.905,-0.059
4.906,-0.058
4.907,-0.056
4.908,-0.055
4.909,-0.053
4.910,-0.050
4.911,-0.053
4.912,-0.053
4.913,-0.056
4.914,-0.053
4.915,-0.053
4.916,-0.053
4.917,-0.056
4.918,-0.056
4.919,-0.059
4.920,-0.063
4.921,-0.063
4.922,-0.066
4.923,-0.063
4.924,-0.059
4.925,-0.056
4.926,-0.059
4.927,-0.059
4.928,-0.061
4.929,-0.063
4.930,-0.061
4.931,-0.063
4.932,-0.064
4.933,-0.066
4.934,-0.069
4.935,-0.069
4.936,-0.068
4.937,-0.066
4.938,-0.066
4.939,-0.066
4.940,-0.067
4.941,-0.066
4.942,-0.064
4.943,-0.066
4.944,-0.063
4.945,-0.066
4.946,-0.066
4.947,-0.066
4.948,-0.066
4.949,-0.066
4.950,-0.066
4.951,-0.066
4.952,-0.061
4.953,-0.056
4.954,-0.059
4.955,-0.063
4.956,-0.067
4.957,-0.066
4.958,-0.063
4.959,-0.063
4.960,-0.063
4.961,-0.063
4.962,-0.064
4.963,-0.066
4.964,-0.066
4.965,-0.066
4.966,-0.067
4.967,-0.069
4.968,-0.067
4.969,-0.069
4.970,-0.069
4.971,-0.069
4.972,-0.068
4.973,-0.066
4.974,-0.063
4.975,-0.063
4.976,-0.063
4.977,-0.063
4.978,-0.064
4.979,-0.066
4.980,-0.064
4.981,-0.063
4.982,-0.069
4.983,-0.072
4.984,-0.070
4.985,-0.072
4.986,-0.072
4.987,-0.072
4.988,-0.069
4.989,-0.072
4.990,-0.072
4.991,-0.072
4.992,-0.072
4.993,-0.072
4.994,-0.071
4.995,-0.069
4.996,-0.068
4.997,-0.066
4.998,-0.069
4.999,-0.069
5.000,-0.067
5.001,-0.069
5.002,-0.070
5.003,-0.072
5.004,-0.072
5.005,-0.072
5.006,-0.071
5.007,-0.069
5.008,-0.064
5.009,-0.059
5.010,-0.066
5.011,-0.066
5.012,-0.066
5.013,-0.069
5.014,-0.069
5.015,-0.069
5.016,-0.070
5.017,-0.072
5.018,-0.072
5.019,-0.075
5.020,-0.073
5.021,-0.075
5.022,-0.075
5.023,-0.075
5.024,-0.075
5.025,-0.075
5.026,-0.075
5.027,-0.075
5.028,-0.075
5.029,-0.075
5.030,-0.075
5.031,-0.075
5.032,-0.075
5.033,-0.075
5.034,-0.075
5.035,-0.072
5.036,-0.075
5.037,-0.075
5.038,-0.074
5.039,-0.072
5.040,-0.071
5.041,-0.072
5.042,-0.073
5.043,-0.078
5.044,-0.077
5.045,-0.075
5.046,-0.074
5.047,-0.075
5.048,-0.072
5.049,-0.072
5.050,-0.074
5.051,-0.075
5.052,-0.076
5.053,-0.081
5.054,-0.081
5.055,-0.081
5.056,-0.080
5.057,-0.078
5.058,-0.081
5.059,-0.081
5.060,-0.081
5.061,-0.084
5.062,-0.081
5.063,-0.084
5.064,-0.080
5.065,-0.078
5.066,-0.080
5.067,-0.081
5.068,-0.082
5.069,-0.081
5.070,-0.081
5.071,-0.081
5.072,-0.078
5.073,-0.075
5.074,-0.078
5.075,-0.078
5.076,-0.078
5.077,-0.078
5.078,-0.077
5.079,-0.072
5.080,-0.076
5.081,-0.078
5.082,-0.081
5.083,-0.081
5.084,-0.081
5.085,-0.084
5.086,-0.084
5.087,-0.088
5.088,-0.088
5.089,-0.088
5.090,-0.088
5.091,-0.088
5.092,-0.088
5.093,-0.088
5.094,-0.086
5.095,-0.088
5.096,-0.088
5.097,-0.088
5.098,-0.091
5.099,-0.091
5.100,-0.089
5.101,-0.091
5.102,-0.091
5.103,-0.088
5.104,-0.089
5.105,-0.088
5.106,-0.089
5.107,-0.091
5.108,-0.089
5.109,-0.091
5.110,-0.088
5.111,-0.088
5.112,-0.086
5.113,-0.088
5.114,-0.088
5.115,-0.091
5.116,-0.088
5.117,-0.088
5.118,-0.089
5.119,-0.088
5.120,-0.088
5.121,-0.088
5.122,-0.088
5.123,-0.088
5.124,-0.086
5.125,-0.084
5.126,-0.078
5.127,-0.081
5.128,-0.086
5.129,-0.084
5.130,-0.081
5.131,-0.084
5.132,-0.083
5.133,-0.081
5.134,-0.086
5.135,-0.084
5.136,-0.084
5.137,-0.084
5.138,-0.086
5.139,-0.081
5.140,-0.086
5.141,-0.084
5.142,-0.084
5.143,-0.084
5.144,-0.083
5.145,-0.081
5.146,-0.077
5.147,-0.078
5.148,-0.079
5.149,-0.081
5.150,-0.081
5.151,-0.084
5.152,-0.084
5.153,-0.088
5.154,-0.086
5.155,-0.088
5.156,-0.084
5.157,-0.081
5.158,-0.082
5.159,-0.084
5.160,-0.084
5.161,-0.084
5.162,-0.088
5.163,-0.088
5.164,-0.088
5.165,-0.084
5.166,-0.086
5.167,-0.088
5.168,-0.089
5.169,-0.088
5.170,-0.089
5.171,-0.088
5.172,-0.084
5.173,-0.081
5.174,-0.080
5.175,-0.078
5.176,-0.078
5.177,-0.078
5.178,-0.078
5.179,-0.078
5.180,-0.075
5.181,-0.072
5.182,-0.069
5.183,-0.069
5.184,-0.073
5.185,-0.072
5.186,-0.070
5.187,-0.072
5.188,-0.073
5.189,-0.075
5.190,-0.074
5.191,-0.075
5.192,-0.075
5.193,-0.075
5.194,-0.073
5.195,-0.075
5.196,-0.075
5.197,-0.078
5.198,-0.081
5.199,-0.081
5.200,-0.080
5.201,-0.081
5.202,-0.081
5.203,-0.081
5.204,-0.081
5.205,-0.081
5.206,-0.079
5.207,-0.081
5.208,-0.082
5.209,-0.084
5.210,-0.084
5.211,-0.084
5.212,-0.084
5.213,-0.084
5.214,-0.086
5.215,-0.084
5.216,-0.081
5.217,-0.078
5.218,-0.078
5.219,-0.081
5.220,-0.079
5.221,-0.088
5.222,-0.088
5.223,-0.088
5.224,-0.088
5.225,-0.088
5.226,-0.089
5.227,-0.088
5.228,-0.081
5.229,-0.075
5.230,-0.076
5.231,-0.078
5.232,-0.086
5.233,-0.088
5.234,-0.088
5.235,-0.088
5.236,-0.088
5.237,-0.088
5.238,-0.084
5.239,-0.084
5.240,-0.083
5.241,-0.081
5.242,-0.080
5.243,-0.078
5.244,-0.078
5.245,-0.078
5.246,-0.076
5.247,-0.078
5.248,-0.079
5.249,-0.084
5.250,-0.086
5.251,-0.088
5.252,-0.080
5.253,-0.078
5.254,-0.082
5.255,-0.081
5.256,-0.078
5.257,-0.075
5.258,-0.075
5.259,-0.075
5.260,-0.075
5.261,-0.075
5.262,-0.075
5.263,-0.072
5.264,-0.072
5.265,-0.063
5.266,-0.061
5.267,-0.056
5.268,-0.056
5.269,-0.053
5.270,-0.043
5.271,-0.038
5.272,-0.032
5.273,-0.034
5.274,-0.032
5.275,-0.034
5.276,-0.034
5.277,-0.034
5.278,-0.031
5.279,-0.031
5.280,-0.032
5.281,-0.028
5.282,-0.029
5.283,-0.031
5.284,-0.028
5.285,-0.028
5.286,-0.026
5.287,-0.028
5.288,-0.028
5.289,-0.028
5.290,-0.025
5.291,-0.019
5.292,-0.008
5.293,0.006
5.294,0.014
5.295,0.028
5.296,0.044
5.297,0.062
5.298,0.087
5.299,0.103
5.300,0.112
5.301,0.119
5.302,0.124
5.303,0.122
5.304,0.125
5.305,0.125
5.306,0.126
5.307,0.125
5.308,0.128
5.309,0.128
5.310,0.128
5.311,0.128
5.312,0.127
5.313,0.128
5.314,0.129
5.315,0.125
5.316,0.116
5.317,0.106
5.318,0.100
5.319,0.100
5.320,0.094
5.321,0.091
5.322,0.087
5.323,0.084
5.324,0.079
5.325,0.075
5.326,0.067
5.327,0.072
5.328,0.069
5.329,0.069
5.330,0.067
5.331,0.066
5.332,0.058
5.333,0.050
5.334,0.048
5.335,0.050
5.336,0.056
5.337,0.062
5.338,0.061
5.339,0.062
5.340,0.053
5.341,0.044
5.342,0.033
5.343,0.019
5.344,0.008
5.345,0.000
5.346,-0.006
5.347,-0.013
5.348,-0.021
5.349,-0.025
5.350,-0.029
5.351,-0.034
5.352,-0.038
5.353,-0.044
5.354,-0.050
5.355,-0.053
5.356,-0.052
5.357,-0.053
5.358,-0.054
5.359,-0.056
5.360,-0.058
5.361,-0.063
5.362,-0.063
5.363,-0.063
5.364,-0.066
5.365,-0.066
5.366,-0.066
5.367,-0.066
5.368,-0.064
5.369,-0.066
5.370,-0.067
5.371,-0.069
5.372,-0.069
5.373,-0.072
5.374,-0.068
5.375,-0.066
5.376,-0.066
5.377,-0.066
5.378,-0.069
5.379,-0.069
5.380,-0.072
5.381,-0.072
5.382,-0.071
5.383,-0.069
5.384,-0.071
5.385,-0.072
5.386,-0.072
5.387,-0.069
5.388,-0.072
5.389,-0.072
5.390,-0.070
5.391,-0.072
5.392,-0.071
5.393,-0.069
5.394,-0.072
5.395,-0.072
5.396,-0.073
5.397,-0.075
5.398,-0.071
5.399,-0.072
5.400,-0.076
5.401,-0.075
5.402,-0.076
5.403,-0.078
5.404,-0.076
5.405,-0.078
5.406,-0.075
5.407,-0.072
5.408,-0.071
5.409,-0.069
5.410,-0.073
5.411,-0.072
5.412,-0.068
5.413,-0.063
5.414,-0.063
5.415,-0.066
5.416,-0.067
5.417,-0.069
5.418,-0.066
5.419,-0.066
5.420,-0.064
5.421,-0.063
5.422,-0.069
5.423,-0.072
5.424,-0.073
5.425,-0.084
5.426,-0.092
5.427,-0.103
5.428,-0.109
5.429,-0.106
5.430,-0.100
5.431,-0.094
5.432,-0.083
5.433,-0.056
5.434,-0.033
5.435,0.003
5.436,0.022
5.437,0.047
5.438,0.066
5.439,0.087
5.440,0.102
5.441,0.119
5.442,0.142
5.443,0.172
5.444,0.222
5.445,0.275
5.446,0.339
5.447,0.406
5.448,0.466
5.449,0.519
5.450,0.575
5.451,0.647
5.452,0.705
5.453,0.753
5.454,0.778
5.455,0.744
5.456,0.733
5.457,0.737
5.458,0.804
5.459,0.875
5.460,0.897
5.461,0.912
5.462,0.824
5.463,0.734
5.464,0.581
5.465,0.425
5.466,0.317
5.467,0.212
5.468,0.166
5.469,0.122
5.470,0.089
5.471,0.056
5.472,0.042
5.473,0.031
5.474,0.009
5.475,-0.016
5.476,-0.038
5.477,-0.059
5.478,-0.064
5.479,-0.069
5.480,-0.066
5.481,-0.066
5.482,-0.067
5.483,-0.063
5.484,-0.055
5.485,-0.028
5.486,-0.001
5.487,0.006
5.488,0.012
5.489,0.019
5.490,0.027
5.491,0.025
5.492,0.031
5.493,0.031
5.494,0.022
5.495,0.016
5.496,0.009
5.497,0.006
5.498,0.001
5.499,-0.006
5.500,-0.008
5.501,-0.016
5.502,-0.026
5.503,-0.031
5.504,-0.034
5.505,-0.038
5.506,-0.038
5.507,-0.038
5.508,-0.036
5.509,-0.038
5.510,-0.041
5.511,-0.038
5.512,-0.038
5.513,-0.038
5.514,-0.041
5.515,-0.038
5.516,-0.039
5.517,-0.044
5.518,-0.047
5.519,-0.050
5.520,-0.050
5.521,-0.050
5.522,-0.050
5.523,-0.047
5.524,-0.047
5.525,-0.044
5.526,-0.044
5.527,-0.041
5.528,-0.038
5.529,-0.034
5.530,-0.033
5.531,-0.034
5.532,-0.036
5.533,-0.038
5.534,-0.034
5.535,-0.041
5.536,-0.041
5.537,-0.041
5.538,-0.042
5.539,-0.041
5.540,-0.038
5.541,-0.034
5.542,-0.031
5.543,-0.031
5.544,-0.031
5.545,-0.031
5.546,-0.028
5.547,-0.028
5.548,-0.024
5.549,-0.019
5.550,-0.020
5.551,-0.025
5.552,-0.026
5.553,-0.028
5.554,-0.027
5.555,-0.022
5.556,-0.023
5.557,-0.025
5.558,-0.028
5.559,-0.025
5.560,-0.021
5.561,-0.019
5.562,-0.022
5.563,-0.022
5.564,-0.022
5.565,-0.022
5.566,-0.023
5.567,-0.025
5.568,-0.025
5.569,-0.025
5.570,-0.024
5.571,-0.019
5.572,-0.019
5.573,-0.019
5.574,-0.018
5.575,-0.016
5.576,-0.014
5.577,-0.016
5.578,-0.020
5.579,-0.019
5.580,-0.014
5.581,-0.013
5.582,-0.017
5.583,-0.016
5.584,-0.018
5.585,-0.016
5.586,-0.013
5.587,-0.013
5.588,-0.008
5.589,-0.006
5.590,-0.005
5.591,-0.003
5.592,-0.003
5.593,-0.003
5.594,-0.003
5.595,-0.003
5.596,-0.003
5.597,-0.006
5.598,-0.008
5.599,-0.009
5.600,-0.008
5.601,-0.006
5.602,-0.002
5.603,-0.003
5.604,-0.003
5.605,-0.006
5.606,-0.006
5.607,-0.006
5.608,-0.002
5.609,0.000
5.610,0.002
5.611,0.000
5.612,-0.001
5.613,-0.003
5.614,-0.003
5.615,0.000
5.616,-0.003
5.617,0.000
5.618,-0.004
5.619,-0.006
5.620,-0.003
5.621,-0.003
5.622,-0.002
5.623,0.000
5.624,0.003
5.625,0.006
5.626,0.006
5.627,0.006
5.628,0.006
5.629,0.006
5.630,0.007
5.631,0.012
5.632,0.009
5.633,0.012
5.634,0.008
5.635,0.009
5.636,0.009
5.637,0.009
5.638,0.009
5.639,0.012
5.640,0.016
5.641,0.012
5.642,0.012
5.643,0.012
5.644,0.016
5.645,0.019
5.646,0.021
5.647,0.019
5.648,0.016
5.649,0.012
5.650,0.016
5.651,0.016
5.652,0.020
5.653,0.022
5.654,0.026
5.655,0.028
5.656,0.024
5.657,0.022
5.658,0.025
5.659,0.025
5.660,0.024
5.661,0.025
5.662,0.026
5.663,0.028
5.664,0.028
5.665,0.025
5.666,0.028
5.667,0.025
5.668,0.028
5.669,0.034
5.670,0.036
5.671,0.037
5.672,0.034
5.673,0.037
5.674,0.041
5.675,0.041
5.676,0.039
5.677,0.041
5.678,0.042
5.679,0.041
5.680,0.042
5.681,0.041
5.682,0.045
5.683,0.047
5.684,0.047
5.685,0.047
5.686,0.050
5.687,0.050
5.688,0.049
5.689,0.047
5.690,0.051
5.691,0.053
5.692,0.053
5.693,0.050
5.694,0.050
5.695,0.050
5.696,0.051
5.697,0.053
5.698,0.053
5.699,0.053
5.700,0.052
5.701,0.050
5.702,0.052
5.703,0.050
5.704,0.051
5.705,0.050
5.706,0.051
5.707,0.053
5.708,0.053
5.709,0.056
5.710,0.059
5.711,0.062
5.712,0.062
5.713,0.062
5.714,0.062
5.715,0.062
5.716,0.062
5.717,0.062
5.718,0.061
5.719,0.059
5.720,0.061
5.721,0.059
5.722,0.062
5.723,0.062
5.724,0.064
5.725,0.066
5.726,0.066
5.727,0.069
5.728,0.064
5.729,0.066
5.730,0.066
5.731,0.066
5.732,0.066
5.733,0.066
5.734,0.073
5.735,0.078
5.736,0.078
5.737,0.078
5.738,0.078
5.739,0.078
5.740,0.075
5.741,0.075
5.742,0.076
5.743,0.078
5.744,0.074
5.745,0.075
5.746,0.074
5.747,0.072
5.748,0.078
5.749,0.081
5.750,0.080
5.751,0.081
5.752,0.078
5.753,0.078
5.754,0.077
5.755,0.078
5.756,0.078
5.757,0.078
5.758,0.082
5.759,0.087
5.760,0.087
5.761,0.087
5.762,0.087
5.763,0.091
5.764,0.092
5.765,0.091
5.766,0.091
5.767,0.091
5.768,0.092
5.769,0.097
5.770,0.098
5.771,0.100
5.772,0.102
5.773,0.100
5.774,0.103
5.775,0.106
5.776,0.106
5.777,0.106
5.778,0.106
5.779,0.106
5.780,0.106
5.781,0.106
5.782,0.111
5.783,0.112
5.784,0.116
5.785,0.116
5.786,0.119
5.787,0.122
5.788,0.125
5.789,0.128
5.790,0.130
5.791,0.128
5.792,0.129
5.793,0.134
5.794,0.133
5.795,0.131
5.796,0.134
5.797,0.137
5.798,0.139
5.799,0.141
5.800,0.141
5.801,0.141
5.802,0.139
5.803,0.137
5.804,0.141
5.805,0.141
5.806,0.144
5.807,0.141
5.808,0.145
5.809,0.147
5.810,0.147
5.811,0.141
5.812,0.141
5.813,0.141
5.814,0.141
5.815,0.137
5.816,0.134
5.817,0.134
5.818,0.133
5.819,0.131
5.820,0.129
5.821,0.128
5.822,0.127
5.823,0.122
5.824,0.119
5.825,0.119
5.826,0.122
5.827,0.122
5.828,0.116
5.829,0.116
5.830,0.112
5.831,0.109
5.832,0.108
5.833,0.103
5.834,0.097
5.835,0.091
5.836,0.092
5.837,0.091
5.838,0.087
5.839,0.081
5.840,0.079
5.841,0.081
5.842,0.078
5.843,0.075
5.844,0.075
5.845,0.072
5.846,0.072
5.847,0.072
5.848,0.071
5.849,0.066
5.850,0.062
5.851,0.056
5.852,0.053
5.853,0.050
5.854,0.050
5.855,0.044
5.856,0.045
5.857,0.044
5.858,0.044
5.859,0.041
5.860,0.037
5.861,0.034
5.862,0.034
5.863,0.031
5.864,0.029
5.865,0.028
5.866,0.028
5.867,0.025
5.868,0.023
5.869,0.025
5.870,0.021
5.871,0.016
5.872,0.012
5.873,0.012
5.874,0.016
5.875,0.016
5.876,0.012
5.877,0.012
5.878,0.011
5.879,0.009
5.880,0.005
5.881,0.003
5.882,0.003
5.883,0.003
5.884,0.001
5.885,0.003
5.886,-0.004
5.887,-0.006
5.888,-0.006
5.889,-0.006
5.890,-0.009
5.891,-0.009
5.892,-0.011
5.893,-0.013
5.894,-0.016
5.895,-0.016
5.896,-0.018
5.897,-0.016
5.898,-0.019
5.899,-0.016
5.900,-0.017
5.901,-0.019
5.902,-0.019
5.903,-0.022
5.904,-0.023
5.905,-0.028
5.906,-0.028
5.907,-0.028
5.908,-0.030
5.909,-0.028
5.910,-0.029
5.911,-0.028
5.912,-0.025
5.913,-0.025
5.914,-0.022
5.915,-0.019
5.916,-0.019
5.917,-0.019
5.918,-0.019
5.919,-0.019
5.920,-0.019
5.921,-0.019
5.922,-0.021
5.923,-0.019
5.924,-0.020
5.925,-0.019
5.926,-0.018
5.927,-0.019
5.928,-0.019
5.929,-0.019
5.930,-0.019
5.931,-0.019
5.932,-0.019
5.933,-0.016
5.934,-0.016
5.935,-0.019
5.936,-0.022
5.937,-0.019
5.938,-0.021
5.939,-0.019
5.940,-0.019
5.941,-0.016
5.942,-0.019
5.943,-0.019
5.944,-0.017
5.945,-0.019
5.946,-0.018
5.947,-0.019
5.948,-0.020
5.949,-0.022
5.950,-0.022
5.951,-0.025
5.952,-0.025
5.953,-0.028
5.954,-0.030
5.955,-0.028
5.956,-0.029
5.957,-0.031
5.958,-0.030
5.959,-0.028
5.960,-0.027
5.961,-0.028
5.962,-0.029
5.963,-0.031
5.964,-0.030
5.965,-0.028
5.966,-0.029
5.967,-0.031
5.968,-0.027
5.969,-0.031
5.970,-0.032
5.971,-0.034
5.972,-0.032
5.973,-0.034
5.974,-0.034
5.975,-0.034
5.976,-0.036
5.977,-0.031
5.978,-0.033
5.979,-0.028
5.980,-0.030
5.981,-0.031
5.982,-0.032
5.983,-0.031
5.984,-0.027
5.985,-0.028
5.986,-0.027
5.987,-0.028
5.988,-0.025
5.989,-0.028
5.990,-0.028
5.991,-0.028
5.992,-0.028
5.993,-0.028
5.994,-0.029
5.995,-0.031
5.996,-0.030
5.997,-0.031
5.998,-0.029
5.999,-0.031
6.000,-0.030
6.001,-0.031
6.002,-0.031
6.003,-0.031
6.004,-0.032
6.005,-0.034
6.006,-0.036
6.007,-0.038
6.008,-0.038
6.009,-0.038
6.010,-0.038
6.011,-0.038
6.012,-0.038
6.013,-0.038
6.014,-0.039
6.015,-0.041
6.016,-0.041
6.017,-0.041
6.018,-0.038
6.019,-0.041
6.020,-0.044
6.021,-0.050
6.022,-0.048
6.023,-0.050
6.024,-0.049
6.025,-0.050
6.026,-0.049
6.027,-0.050
6.028,-0.053
6.029,-0.053
6.030,-0.056
6.031,-0.053
6.032,-0.052
6.033,-0.050
6.034,-0.054
6.035,-0.056
6.036,-0.056
6.037,-0.056
6.038,-0.052
6.039,-0.050
6.040,-0.049
6.041,-0.047
6.042,-0.050
6.043,-0.050
6.044,-0.051
6.045,-0.053
6.046,-0.052
6.047,-0.050
6.048,-0.051
6.049,-0.050
6.050,-0.053
6.051,-0.059
6.052,-0.058
6.053,-0.063
6.054,-0.063
6.055,-0.063
6.056,-0.058
6.057,-0.053
6.058,-0.052
6.059,-0.050
6.060,-0.050
6.061,-0.050
6.062,-0.050
6.063,-0.050
6.064,-0.054
6.065,-0.053
6.066,-0.052
6.067,-0.053
6.068,-0.054
6.069,-0.056
6.070,-0.056
6.071,-0.056
6.072,-0.058
6.073,-0.059
6.074,-0.061
6.075,-0.063
6.076,-0.058
6.077,-0.056
6.078,-0.056
6.079,-0.056
6.080,-0.056
6.081,-0.056
6.082,-0.055
6.083,-0.056
6.084,-0.058
6.085,-0.059
6.086,-0.058
6.087,-0.056
6.088,-0.056
6.089,-0.056
6.090,-0.059
6.091,-0.059
6.092,-0.058
6.093,-0.059
6.094,-0.058
6.095,-0.056
6.096,-0.052
6.097,-0.053
6.098,-0.054
6.099,-0.056
6.100,-0.058
6.101,-0.059
6.102,-0.058
6.103,-0.056
6.104,-0.056
6.105,-0.056
6.106,-0.061
6.107,-0.063
6.108,-0.058
6.109,-0.056
6.110,-0.055
6.111,-0.053
6.112,-0.053
6.113,-0.053
6.114,-0.056
6.115,-0.059
6.116,-0.059
6.117,-0.059
6.118,-0.064
6.119,-0.063
6.120,-0.063
6.121,-0.066
6.122,-0.066
6.123,-0.066
6.124,-0.066
6.125,-0.066
6.126,-0.064
6.127,-0.066
6.128,-0.064
6.129,-0.066
6.130,-0.066
6.131,-0.066
6.132,-0.066
6.133,-0.066
6.134,-0.066
6.135,-0.066
6.136,-0.066
6.137,-0.066
6.138,-0.061
6.139,-0.056
6.140,-0.056
6.141,-0.056
6.142,-0.058
6.143,-0.056
6.144,-0.058
6.145,-0.056
6.146,-0.056
6.147,-0.056
6.148,-0.056
6.149,-0.059
6.150,-0.059
6.151,-0.063
6.152,-0.063
6.153,-0.063
6.154,-0.061
6.155,-0.063
6.156,-0.063
6.157,-0.066
6.158,-0.064
6.159,-0.066
6.160,-0.063
6.161,-0.063
6.162,-0.064
6.163,-0.066
6.164,-0.069
6.165,-0.069
6.166,-0.069
6.167,-0.069
6.168,-0.068
6.169,-0.066
6.170,-0.069
6.171,-0.069
6.172,-0.066
6.173,-0.063
6.174,-0.061
6.175,-0.056
6.176,-0.059
6.177,-0.059
6.178,-0.061
6.179,-0.059
6.180,-0.056
6.181,-0.056
6.182,-0.056
6.183,-0.059
6.184,-0.061
6.185,-0.063
6.186,-0.064
6.187,-0.066
6.188,-0.066
6.189,-0.066
6.190,-0.064
6.191,-0.066
6.192,-0.069
6.193,-0.072
6.194,-0.075
6.195,-0.075
6.196,-0.072
6.197,-0.072
6.198,-0.073
6.199,-0.072
6.200,-0.072
6.201,-0.069
6.202,-0.071
6.203,-0.072
6.204,-0.071
6.205,-0.072
6.206,-0.070
6.207,-0.072
6.208,-0.070
6.209,-0.072
6.210,-0.071
6.211,-0.072
6.212,-0.068
6.213,-0.066
6.214,-0.066
6.215,-0.063
6.216,-0.063
6.217,-0.063
6.218,-0.064
6.219,-0.066
6.220,-0.069
6.221,-0.072
6.222,-0.064
6.223,-0.066
6.224,-0.070
6.225,-0.069
6.226,-0.064
6.227,-0.066
6.228,-0.066
6.229,-0.066
6.230,-0.069
6.231,-0.066
6.232,-0.066
6.233,-0.066
6.234,-0.069
6.235,-0.066
6.236,-0.070
6.237,-0.069
6.238,-0.069
6.239,-0.069
6.240,-0.068
6.241,-0.066
6.242,-0.063
6.243,-0.066
6.244,-0.067
6.245,-0.069
6.246,-0.068
6.247,-0.069
6.248,-0.069
6.249,-0.072
6.250,-0.070
6.251,-0.072
6.252,-0.072
6.253,-0.072
6.254,-0.071
6.255,-0.069
6.256,-0.070
6.257,-0.072
6.258,-0.071
6.259,-0.066
6.260,-0.067
6.261,-0.066
6.262,-0.068
6.263,-0.069
6.264,-0.068
6.265,-0.063
6.266,-0.064
6.267,-0.063
6.268,-0.063
6.269,-0.063
6.270,-0.063
6.271,-0.063
6.272,-0.063
6.273,-0.063
6.274,-0.066
6.275,-0.069
6.276,-0.068
6.277,-0.066
6.278,-0.064
6.279,-0.066
6.280,-0.070
6.281,-0.069
6.282,-0.069
6.283,-0.072
6.284,-0.072
6.285,-0.072
6.286,-0.071
6.287,-0.072
6.288,-0.072
6.289,-0.072
6.290,-0.070
6.291,-0.072
6.292,-0.071
6.293,-0.072
6.294,-0.073
6.295,-0.072
6.296,-0.071
6.297,-0.072
6.298,-0.072
6.299,-0.072
6.300,-0.072
6.301,-0.072
6.302,-0.070
6.303,-0.072
6.304,-0.072
6.305,-0.072
6.306,-0.069
6.307,-0.066
6.308,-0.064
6.309,-0.063
6.310,-0.066
6.311,-0.066
6.312,-0.066
6.313,-0.066
6.314,-0.066
6.315,-0.069
6.316,-0.063
6.317,-0.066
6.318,-0.066
6.319,-0.066
6.320,-0.066
6.321,-0.066
6.322,-0.067
6.323,-0.066
6.324,-0.066
6.325,-0.066
6.326,-0.064
6.327,-0.063
6.328,-0.067
6.329,-0.066
6.330,-0.066
6.331,-0.066
6.332,-0.068
6.333,-0.069
6.334,-0.067
6.335,-0.069
6.336,-0.069
6.337,-0.069
6.338,-0.070
6.339,-0.072
6.340,-0.072
6.341,-0.072
6.342,-0.069
6.343,-0.069
6.344,-0.069
6.345,-0.072
6.346,-0.072
6.347,-0.072
6.348,-0.069
6.349,-0.072
6.350,-0.074
6.351,-0.069
6.352,-0.069
6.353,-0.069
6.354,-0.070
6.355,-0.072
6.356,-0.071
6.357,-0.069
6.358,-0.069
6.359,-0.066
6.360,-0.068
6.361,-0.059
6.362,-0.058
6.363,-0.053
6.364,-0.051
6.365,-0.047
6.366,-0.039
6.367,-0.038
6.368,-0.028
6.369,-0.025
6.370,-0.020
6.371,-0.019
6.372,-0.019
6.373,-0.019
6.374,-0.017
6.375,-0.019
6.376,-0.022
6.377,-0.019
6.378,-0.016
6.379,-0.013
6.380,-0.013
6.381,-0.016
6.382,-0.013
6.383,-0.013
6.384,-0.013
6.385,-0.013
6.386,-0.016
6.387,-0.016
6.388,-0.011
6.389,-0.003
6.390,0.006
6.391,0.022
6.392,0.037
6.393,0.056
6.394,0.082
6.395,0.100
6.396,0.114
6.397,0.125
6.398,0.131
6.399,0.131
6.400,0.132
6.401,0.131
6.402,0.130
6.403,0.125
6.404,0.127
6.405,0.125
6.406,0.125
6.407,0.125
6.408,0.125
6.409,0.128
6.410,0.131
6.411,0.128
6.412,0.119
6.413,0.109
6.414,0.103
6.415,0.103
6.416,0.100
6.417,0.100
6.418,0.098
6.419,0.097
6.420,0.091
6.421,0.084
6.422,0.074
6.423,0.075
6.424,0.075
6.425,0.078
6.426,0.078
6.427,0.078
6.428,0.076
6.429,0.075
6.430,0.069
6.431,0.066
6.432,0.068
6.433,0.069
6.434,0.069
6.435,0.072
6.436,0.064
6.437,0.056
6.438,0.048
6.439,0.037
6.440,0.028
6.441,0.022
6.442,0.012
6.443,0.003
6.444,-0.006
6.445,-0.013
6.446,-0.016
6.447,-0.019
6.448,-0.021
6.449,-0.025
6.450,-0.031
6.451,-0.034
6.452,-0.038
6.453,-0.044
6.454,-0.045
6.455,-0.047
6.456,-0.046
6.457,-0.047
6.458,-0.047
6.459,-0.047
6.460,-0.049
6.461,-0.047
6.462,-0.048
6.463,-0.050
6.464,-0.050
6.465,-0.053
6.466,-0.056
6.467,-0.059
6.468,-0.059
6.469,-0.063
6.470,-0.061
6.471,-0.063
6.472,-0.064
6.473,-0.066
6.474,-0.068
6.475,-0.066
6.476,-0.070
6.477,-0.072
6.478,-0.072
6.479,-0.072
6.480,-0.074
6.481,-0.075
6.482,-0.075
6.483,-0.072
6.484,-0.075
6.485,-0.075
6.486,-0.073
6.487,-0.075
6.488,-0.074
6.489,-0.072
6.490,-0.075
6.491,-0.075
6.492,-0.075
6.493,-0.075
6.494,-0.075
6.495,-0.081
6.496,-0.084
6.497,-0.081
6.498,-0.078
6.499,-0.075
6.500,-0.072
6.501,-0.072
6.502,-0.072
6.503,-0.072
6.504,-0.072
6.505,-0.072
6.506,-0.076
6.507,-0.075
6.508,-0.075
6.509,-0.075
6.510,-0.071
6.511,-0.069
6.512,-0.069
6.513,-0.069
6.514,-0.061
6.515,-0.056
6.516,-0.056
6.517,-0.056
6.518,-0.064
6.519,-0.069
6.520,-0.070
6.521,-0.081
6.522,-0.089
6.523,-0.100
6.524,-0.103
6.525,-0.097
6.526,-0.083
6.527,-0.069
6.528,-0.061
6.529,-0.038
6.530,-0.011
6.531,0.028
6.532,0.046
6.533,0.069
6.534,0.086
6.535,0.106
6.536,0.123
6.537,0.144
6.538,0.170
6.539,0.203
6.540,0.250
6.541,0.300
6.542,0.367
6.543,0.437
6.544,0.499
6.545,0.553
6.546,0.607
6.547,0.678
6.548,0.728
6.549,0.769
6.550,0.791
6.551,0.753
6.552,0.755
6.553,0.772
6.554,0.834
6.555,0.900
6.556,0.919
6.557,0.931
6.558,0.839
6.559,0.747
6.560,0.589
6.561,0.428
6.562,0.328
6.563,0.231
6.564,0.178
6.565,0.128
6.566,0.095
6.567,0.062
6.568,0.042
6.569,0.025
6.570,0.005
6.571,-0.019
6.572,-0.036
6.573,-0.053
6.574,-0.058
6.575,-0.063
6.576,-0.058
6.577,-0.056
6.578,-0.055
6.579,-0.047
6.580,-0.041
6.581,-0.016
6.582,0.011
6.583,0.019
6.584,0.028
6.585,0.037
6.586,0.047
6.587,0.047
6.588,0.051
6.589,0.050
6.590,0.036
6.591,0.025
6.592,0.019
6.593,0.016
6.594,0.009
6.595,0.000
6.596,-0.002
6.597,-0.009
6.598,-0.018
6.599,-0.019
6.600,-0.022
6.601,-0.025
6.602,-0.025
6.603,-0.025
6.604,-0.023
6.605,-0.025
6.606,-0.025
6.607,-0.019
6.608,-0.020
6.609,-0.022
6.610,-0.028
6.611,-0.028
6.612,-0.025
6.613,-0.025
6.614,-0.027
6.615,-0.028
6.616,-0.028
6.617,-0.028
6.618,-0.029
6.619,-0.028
6.620,-0.028
6.621,-0.025
6.622,-0.025
6.623,-0.022
6.624,-0.020
6.625,-0.019
6.626,-0.018
6.627,-0.019
6.628,-0.019
6.629,-0.019
6.630,-0.011
6.631,-0.013
6.632,-0.014
6.633,-0.016
6.634,-0.017
6.635,-0.016
6.636,-0.017
6.637,-0.019
6.638,-0.016
6.639,-0.016
6.640,-0.013
6.641,-0.009
6.642,-0.006
6.643,-0.006
6.644,-0.009
6.645,-0.013
6.646,-0.011
6.647,-0.013
6.648,-0.011
6.649,-0.009
6.650,-0.011
6.651,-0.009
6.652,-0.009
6.653,-0.009
6.654,-0.013
6.655,-0.009
6.656,-0.006
6.657,-0.006
6.658,-0.008
6.659,-0.006
6.660,-0.003
6.661,0.000
6.662,0.000
6.663,0.000
6.664,-0.001
6.665,-0.003
6.666,-0.003
6.667,0.000
6.668,0.001
6.669,0.003
6.670,0.004
6.671,0.006
6.672,0.009
6.673,0.009
6.674,0.006
6.675,0.009
6.676,0.011
6.677,0.009
6.678,0.006
6.679,0.009
6.680,0.006
6.681,0.006
6.682,0.008
6.683,0.006
6.684,0.009
6.685,0.009
6.686,0.011
6.687,0.012
6.688,0.011
6.689,0.009
6.690,0.009
6.691,0.009
6.692,0.011
6.693,0.009
6.694,0.009
6.695,0.009
6.696,0.009
6.697,0.009
6.698,0.012
6.699,0.009
6.700,0.011
6.701,0.009
6.702,0.009
6.703,0.009
6.704,0.012
6.705,0.012
6.706,0.014
6.707,0.012
6.708,0.017
6.709,0.022
6.710,0.021
6.711,0.022
6.712,0.018
6.713,0.019
6.714,0.017
6.715,0.019
6.716,0.022
6.717,0.022
6.718,0.021
6.719,0.019
6.720,0.021
6.721,0.022
6.722,0.023
6.723,0.025
6.724,0.025
6.725,0.025
6.726,0.025
6.727,0.028
6.728,0.025
6.729,0.028
6.730,0.025
6.731,0.028
6.732,0.027
6.733,0.025
6.734,0.024
6.735,0.025
6.736,0.031
6.737,0.031
6.738,0.031
6.739,0.031
6.740,0.031
6.741,0.031
6.742,0.034
6.743,0.034
6.744,0.033
6.745,0.031
6.746,0.031
6.747,0.028
6.748,0.032
6.749,0.034
6.750,0.039
6.751,0.041
6.752,0.039
6.753,0.041
6.754,0.042
6.755,0.041
6.756,0.039
6.757,0.041
6.758,0.041
6.759,0.041
6.760,0.042
6.761,0.041
6.762,0.045
6.763,0.044
6.764,0.041
6.765,0.041
6.766,0.042
6.767,0.044
6.768,0.041
6.769,0.044
6.770,0.047
6.771,0.047
6.772,0.048
6.773,0.053
6.774,0.055
6.775,0.053
6.776,0.053
6.777,0.050
6.778,0.052
6.779,0.050
6.780,0.050
6.781,0.050
6.782,0.053
6.783,0.053
6.784,0.054
6.785,0.056
6.786,0.056
6.787,0.053
6.788,0.054
6.789,0.053
6.790,0.056
6.791,0.059
6.792,0.059
6.793,0.059
6.794,0.059
6.795,0.059
6.796,0.059
6.797,0.059
6.798,0.062
6.799,0.062
6.800,0.064
6.801,0.062
6.802,0.064
6.803,0.066
6.804,0.062
6.805,0.062
6.806,0.066
6.807,0.069
6.808,0.069
6.809,0.069
6.810,0.068
6.811,0.066
6.812,0.067
6.813,0.069
6.814,0.069
6.815,0.069
6.816,0.071
6.817,0.069
6.818,0.075
6.819,0.078
6.820,0.077
6.821,0.075
6.822,0.075
6.823,0.078
6.824,0.072
6.825,0.072
6.826,0.075
6.827,0.078
6.828,0.078
6.829,0.078
6.830,0.081
6.831,0.081
6.832,0.081
6.833,0.081
6.834,0.081
6.835,0.081
6.836,0.081
6.837,0.084
6.838,0.084
6.839,0.084
6.840,0.080
6.841,0.081
6.842,0.081
6.843,0.081
6.844,0.087
6.845,0.091
6.846,0.094
6.847,0.100
6.848,0.097
6.849,0.097
6.850,0.097
6.851,0.100
6.852,0.100
6.853,0.100
6.854,0.100
6.855,0.100
6.856,0.100
6.857,0.100
6.858,0.100
6.859,0.103
6.860,0.106
6.861,0.106
6.862,0.106
6.863,0.106
6.864,0.105
6.865,0.106
6.866,0.106
6.867,0.106
6.868,0.111
6.869,0.112
6.870,0.117
6.871,0.122
6.872,0.121
6.873,0.119
6.874,0.119
6.875,0.119
6.876,0.122
6.877,0.125
6.878,0.129
6.879,0.131
6.880,0.134
6.881,0.134
6.882,0.136
6.883,0.137
6.884,0.136
6.885,0.134
6.886,0.137
6.887,0.137
6.888,0.137
6.889,0.141
6.890,0.141
6.891,0.141
6.892,0.142
6.893,0.144
6.894,0.144
6.895,0.144
6.896,0.148
6.897,0.153
6.898,0.152
6.899,0.150
6.900,0.152
6.901,0.150
6.902,0.154
6.903,0.153
6.904,0.150
6.905,0.144
6.906,0.148
6.907,0.147
6.908,0.146
6.909,0.144
6.910,0.145
6.911,0.144
6.912,0.141
6.913,0.141
6.914,0.142
6.915,0.144
6.916,0.141
6.917,0.137
6.918,0.139
6.919,0.137
6.920,0.131
6.921,0.128
6.922,0.129
6.923,0.128
6.924,0.122
6.925,0.122
6.926,0.120
6.927,0.119
6.928,0.116
6.929,0.109
6.930,0.106
6.931,0.103
6.932,0.103
6.933,0.100
6.934,0.097
6.935,0.091
6.936,0.089
6.937,0.091
6.938,0.087
6.939,0.084
6.940,0.084
6.941,0.081
6.942,0.077
6.943,0.072
6.944,0.071
6.945,0.066
6.946,0.066
6.947,0.062
6.948,0.058
6.949,0.053
6.950,0.054
6.951,0.050
6.952,0.050
6.953,0.047
6.954,0.048
6.955,0.047
6.956,0.039
6.957,0.031
6.958,0.032
6.959,0.031
6.960,0.029
6.961,0.028
6.962,0.028
6.963,0.025
6.964,0.022
6.965,0.022
6.966,0.020
6.967,0.019
6.968,0.016
6.969,0.016
6.970,0.014
6.971,0.009
6.972,0.005
6.973,0.003
6.974,0.003
6.975,0.003
6.976,0.000
6.977,0.000
6.978,0.001
6.979,0.003
6.980,0.000
6.981,0.000
6.982,-0.008
6.983,-0.009
6.984,-0.009
6.985,-0.009
6.986,-0.013
6.987,-0.013
6.988,-0.013
6.989,-0.013
6.990,-0.014
6.991,-0.013
6.992,-0.014
6.993,-0.013
6.994,-0.017
6.995,-0.016
6.996,-0.014
6.997,-0.013
6.998,-0.016
6.999,-0.022
7.000,-0.022
7.001,-0.025
7.002,-0.024
7.003,-0.022
7.004,-0.026
7.005,-0.028
7.006,-0.029
7.007,-0.028
7.008,-0.025
7.009,-0.025
7.010,-0.025
7.011,-0.025
7.012,-0.025
7.013,-0.025
7.014,-0.026
7.015,-0.028
7.016,-0.028
7.017,-0.028
7.018,-0.031
7.019,-0.031
7.020,-0.034
7.021,-0.034
7.022,-0.033
7.023,-0.034
7.024,-0.034
7.025,-0.034
7.026,-0.034
7.027,-0.034
7.028,-0.036
7.029,-0.034
7.030,-0.031
7.031,-0.031
7.032,-0.034
7.033,-0.031
7.034,-0.034
7.035,-0.034
7.036,-0.034
7.037,-0.031
7.038,-0.034
7.039,-0.034
7.040,-0.032
7.041,-0.034
7.042,-0.033
7.043,-0.034
7.044,-0.036
7.045,-0.038
7.046,-0.036
7.047,-0.038
7.048,-0.034
7.049,-0.034
7.050,-0.038
7.051,-0.038
7.052,-0.038
7.053,-0.038
7.054,-0.038
7.055,-0.038
7.056,-0.036
7.057,-0.038
7.058,-0.038
7.059,-0.038
7.060,-0.038
7.061,-0.038
7.062,-0.038
7.063,-0.038
7.064,-0.034
7.065,-0.041
7.066,-0.041
7.067,-0.041
7.068,-0.038
7.069,-0.038
7.070,-0.038
7.071,-0.038
7.072,-0.041
7.073,-0.038
7.074,-0.044
7.075,-0.044
7.076,-0.046
7.077,-0.047
7.078,-0.047
7.079,-0.044
7.080,-0.042
7.081,-0.047
7.082,-0.047
7.083,-0.050
7.084,-0.047
7.085,-0.050
7.086,-0.047
7.087,-0.044
7.088,-0.044
7.089,-0.044
7.090,-0.045
7.091,-0.047
7.092,-0.046
7.093,-0.047
7.094,-0.045
7.095,-0.047
7.096,-0.046
7.097,-0.047
7.098,-0.048
7.099,-0.050
7.100,-0.051
7.101,-0.053
7.102,-0.053
7.103,-0.053
7.104,-0.053
7.105,-0.053
7.106,-0.052
7.107,-0.050
7.108,-0.050
7.109,-0.050
7.110,-0.050
7.111,-0.050
7.112,-0.050
7.113,-0.050
7.114,-0.047
7.115,-0.050
7.116,-0.050
7.117,-0.053
7.118,-0.050
7.119,-0.050
7.120,-0.049
7.121,-0.050
7.122,-0.049
7.123,-0.050
7.124,-0.054
7.125,-0.056
7.126,-0.059
7.127,-0.056
7.128,-0.056
7.129,-0.056
7.130,-0.059
7.131,-0.059
7.132,-0.059
7.133,-0.059
7.134,-0.056
7.135,-0.056
7.136,-0.055
7.137,-0.053
7.138,-0.056
7.139,-0.056
7.140,-0.056
7.141,-0.056
7.142,-0.059
7.143,-0.063
7.144,-0.064
7.145,-0.063
7.146,-0.061
7.147,-0.063
7.148,-0.059
7.149,-0.063
7.150,-0.059
7.151,-0.056
7.152,-0.058
7.153,-0.059
7.154,-0.059
7.155,-0.059
7.156,-0.061
7.157,-0.063
7.158,-0.064
7.159,-0.066
7.160,-0.069
7.161,-0.066
7.162,-0.061
7.163,-0.059
7.164,-0.061
7.165,-0.063
7.166,-0.064
7.167,-0.066
7.168,-0.066
7.169,-0.066
7.170,-0.066
7.171,-0.066
7.172,-0.064
7.173,-0.066
7.174,-0.066
7.175,-0.066
7.176,-0.063
7.177,-0.059
7.178,-0.059
7.179,-0.063
7.180,-0.064
7.181,-0.066
7.182,-0.066
7.183,-0.066
7.184,-0.066
7.185,-0.066
7.186,-0.070
7.187,-0.072
7.188,-0.070
7.189,-0.072
7.190,-0.068
7.191,-0.063
7.192,-0.059
7.193,-0.063
7.194,-0.059
7.195,-0.056
7.196,-0.056
7.197,-0.056
7.198,-0.059
7.199,-0.063
7.200,-0.064
7.201,-0.066
7.202,-0.069
7.203,-0.069
7.204,-0.067
7.205,-0.069
7.206,-0.068
7.207,-0.066
7.208,-0.064
7.209,-0.063
7.210,-0.063
7.211,-0.063
7.212,-0.061
7.213,-0.059
7.214,-0.064
7.215,-0.063
7.216,-0.061
7.217,-0.063
7.218,-0.064
7.219,-0.066
7.220,-0.066
7.221,-0.066
7.222,-0.064
7.223,-0.066
7.224,-0.064
7.225,-0.066
7.226,-0.067
7.227,-0.069
7.228,-0.069
7.229,-0.069
7.230,-0.069
7.231,-0.069
7.232,-0.069
7.233,-0.069
7.234,-0.069
7.235,-0.069
7.236,-0.069
7.237,-0.069
7.238,-0.070
7.239,-0.069
7.240,-0.071
7.241,-0.069
7.242,-0.068
7.243,-0.066
7.244,-0.067
7.245,-0.072
7.246,-0.070
7.247,-0.072
7.248,-0.072
7.249,-0.072
7.250,-0.072
7.251,-0.075
7.252,-0.073
7.253,-0.075
7.254,-0.076
7.255,-0.075
7.256,-0.072
7.257,-0.069
7.258,-0.067
7.259,-0.069
7.260,-0.072
7.261,-0.069
7.262,-0.073
7.263,-0.072
7.264,-0.071
7.265,-0.072
7.266,-0.075
7.267,-0.075
7.268,-0.072
7.269,-0.072
7.270,-0.072
7.271,-0.072
7.272,-0.071
7.273,-0.072
7.274,-0.072
7.275,-0.072
7.276,-0.072
7.277,-0.072
7.278,-0.069
7.279,-0.072
7.280,-0.073
7.281,-0.075
7.282,-0.073
7.283,-0.072
7.284,-0.071
7.285,-0.069
7.286,-0.072
7.287,-0.072
7.288,-0.072
7.289,-0.072
7.290,-0.072
7.291,-0.072
7.292,-0.071
7.293,-0.069
7.294,-0.072
7.295,-0.072
7.296,-0.072
7.297,-0.075
7.298,-0.076
7.299,-0.075
7.300,-0.075
7.301,-0.075
7.302,-0.073
7.303,-0.075
7.304,-0.072
7.305,-0.075
7.306,-0.077
7.307,-0.075
7.308,-0.079
7.309,-0.078
7.310,-0.079
7.311,-0.078
7.312,-0.077
7.313,-0.075
7.314,-0.079
7.315,-0.078
7.316,-0.077
7.317,-0.078
7.318,-0.078
7.319,-0.078
7.320,-0.078
7.321,-0.078
7.322,-0.075
7.323,-0.072
7.324,-0.072
7.325,-0.066
7.326,-0.069
7.327,-0.072
7.328,-0.072
7.329,-0.072
7.330,-0.075
7.331,-0.075
7.332,-0.074
7.333,-0.075
7.334,-0.073
7.335,-0.075
7.336,-0.075
7.337,-0.078
7.338,-0.075
7.339,-0.078
7.340,-0.076
7.341,-0.078
7.342,-0.078
7.343,-0.078
7.344,-0.078
7.345,-0.075
7.346,-0.075
7.347,-0.072
7.348,-0.072
7.349,-0.072
7.350,-0.074
7.351,-0.072
7.352,-0.076
7.353,-0.075
7.354,-0.075
7.355,-0.075
7.356,-0.075
7.357,-0.075
7.358,-0.075
7.359,-0.075
7.360,-0.076
7.361,-0.078
7.362,-0.075
7.363,-0.075
7.364,-0.072
7.365,-0.075
7.366,-0.081
7.367,-0.084
7.368,-0.080
7.369,-0.078
7.370,-0.075
7.371,-0.075
7.372,-0.075
7.373,-0.075
7.374,-0.075
7.375,-0.075
7.376,-0.074
7.377,-0.072
7.378,-0.072
7.379,-0.072
7.380,-0.073
7.381,-0.075
7.382,-0.078
7.383,-0.081
7.384,-0.078
7.385,-0.075
7.386,-0.075
7.387,-0.075
7.388,-0.075
7.389,-0.075
7.390,-0.079
7.391,-0.081
7.392,-0.082
7.393,-0.081
7.394,-0.078
7.395,-0.075
7.396,-0.078
7.397,-0.078
7.398,-0.076
7.399,-0.078
7.400,-0.081
7.401,-0.081
7.402,-0.078
7.403,-0.075
7.404,-0.075
7.405,-0.072
7.406,-0.072
7.407,-0.072
7.408,-0.072
7.409,-0.072
7.410,-0.072
7.411,-0.072
7.412,-0.071
7.413,-0.072
7.414,-0.075
7.415,-0.078
7.416,-0.078
7.417,-0.078
7.418,-0.081
7.419,-0.075
7.420,-0.078
7.421,-0.078
7.422,-0.075
7.423,-0.072
7.424,-0.072
7.425,-0.072
7.426,-0.070
7.427,-0.072
7.428,-0.072
7.429,-0.072
7.430,-0.071
7.431,-0.072
7.432,-0.070
7.433,-0.072
7.434,-0.071
7.435,-0.072
7.436,-0.075
7.437,-0.072
7.438,-0.072
7.439,-0.072
7.440,-0.072
7.441,-0.072
7.442,-0.072
7.443,-0.072
7.444,-0.073
7.445,-0.072
7.446,-0.071
7.447,-0.069
7.448,-0.072
7.449,-0.072
7.450,-0.072
7.451,-0.069
7.452,-0.072
7.453,-0.075
7.454,-0.072
7.455,-0.072
7.456,-0.072
7.457,-0.072
7.458,-0.072
7.459,-0.072
7.460,-0.072
7.461,-0.072
7.462,-0.070
7.463,-0.075
7.464,-0.070
7.465,-0.072
7.466,-0.070
7.467,-0.069
7.468,-0.059
7.469,-0.047
7.470,-0.043
7.471,-0.034
7.472,-0.036
7.473,-0.031
7.474,-0.025
7.475,-0.022
7.476,-0.023
7.477,-0.022
7.478,-0.022
7.479,-0.022
7.480,-0.016
7.481,-0.016
7.482,-0.016
7.483,-0.016
7.484,-0.020
7.485,-0.019
7.486,-0.018
7.487,-0.016
7.488,-0.016
7.489,-0.016
7.490,-0.014
7.491,-0.009
7.492,0.000
7.493,0.009
7.494,0.022
7.495,0.034
7.496,0.050
7.497,0.072
7.498,0.091
7.499,0.106
7.500,0.119
7.501,0.128
7.502,0.128
7.503,0.128
7.504,0.126
7.505,0.128
7.506,0.126
7.507,0.131
7.508,0.131
7.509,0.131
7.510,0.131
7.511,0.131
7.512,0.136
7.513,0.137
7.514,0.134
7.515,0.128
7.516,0.116
7.517,0.106
7.518,0.106
7.519,0.103
7.520,0.104
7.521,0.103
7.522,0.101
7.523,0.097
7.524,0.087
7.525,0.075
7.526,0.075
7.527,0.069
7.528,0.070
7.529,0.069
7.530,0.066
7.531,0.062
7.532,0.059
7.533,0.053
7.534,0.049
7.535,0.050
7.536,0.054
7.537,0.056
7.538,0.061
7.539,0.056
7.540,0.050
7.541,0.041
7.542,0.027
7.543,0.016
7.544,0.011
7.545,0.003
7.546,-0.006
7.547,-0.016
7.548,-0.023
7.549,-0.028
7.550,-0.030
7.551,-0.031
7.552,-0.038
7.553,-0.044
7.554,-0.048
7.555,-0.050
7.556,-0.056
7.557,-0.059
7.558,-0.059
7.559,-0.059
7.560,-0.063
7.561,-0.063
7.562,-0.063
7.563,-0.066
7.564,-0.067
7.565,-0.069
7.566,-0.068
7.567,-0.066
7.568,-0.069
7.569,-0.069
7.570,-0.068
7.571,-0.066
7.572,-0.070
7.573,-0.069
7.574,-0.069
7.575,-0.069
7.576,-0.068
7.577,-0.069
7.578,-0.069
7.579,-0.072
7.580,-0.073
7.581,-0.075
7.582,-0.076
7.583,-0.081
7.584,-0.084
7.585,-0.084
7.586,-0.082
7.587,-0.088
7.588,-0.089
7.589,-0.088
7.590,-0.089
7.591,-0.091
7.592,-0.089
7.593,-0.091
7.594,-0.091
7.595,-0.091
7.596,-0.092
7.597,-0.091
7.598,-0.093
7.599,-0.094
7.600,-0.086
7.601,-0.081
7.602,-0.084
7.603,-0.084
7.604,-0.084
7.605,-0.084
7.606,-0.086
7.607,-0.088
7.608,-0.088
7.609,-0.091
7.610,-0.088
7.611,-0.088
7.612,-0.088
7.613,-0.084
7.614,-0.084
7.615,-0.084
7.616,-0.086
7.617,-0.084
7.618,-0.084
7.619,-0.084
7.620,-0.081
7.621,-0.084
7.622,-0.086
7.623,-0.084
7.624,-0.091
7.625,-0.094
7.626,-0.103
7.627,-0.109
7.628,-0.111
7.629,-0.106
7.630,-0.096
7.631,-0.084
7.632,-0.064
7.633,-0.047
7.634,-0.011
7.635,0.012
7.636,0.044
7.637,0.062
7.638,0.081
7.639,0.097
7.640,0.112
7.641,0.131
7.642,0.152
7.643,0.191
7.644,0.239
7.645,0.300
7.646,0.369
7.647,0.437
7.648,0.496
7.649,0.544
7.650,0.612
7.651,0.678
7.652,0.737
7.653,0.775
7.654,0.757
7.655,0.775
7.656,0.797
7.657,0.859
7.658,0.941
7.659,0.978
7.660,1.019
7.661,0.962
7.662,0.886
7.663,0.731
7.664,0.550
7.665,0.412
7.666,0.281
7.667,0.209
7.668,0.144
7.669,0.091
7.670,0.042
7.671,0.006
7.672,-0.019
7.673,-0.034
7.674,-0.052
7.675,-0.063
7.676,-0.076
7.677,-0.081
7.678,-0.083
7.679,-0.072
7.680,-0.063
7.681,-0.059
7.682,-0.053
7.683,-0.047
7.684,-0.028
7.685,-0.006
7.686,0.006
7.687,0.016
7.688,0.023
7.689,0.034
7.690,0.033
7.691,0.034
7.692,0.028
7.693,0.012
7.694,0.000
7.695,-0.009
7.696,-0.014
7.697,-0.022
7.698,-0.032
7.699,-0.038
7.700,-0.044
7.701,-0.050
7.702,-0.053
7.703,-0.056
7.704,-0.061
7.705,-0.063
7.706,-0.066
7.707,-0.066
7.708,-0.063
7.709,-0.059
7.710,-0.052
7.711,-0.050
7.712,-0.049
7.713,-0.053
7.714,-0.054
7.715,-0.056
7.716,-0.061
7.717,-0.066
7.718,-0.068
7.719,-0.066
7.720,-0.069
7.721,-0.072
7.722,-0.069
7.723,-0.069
7.724,-0.064
7.725,-0.063
7.726,-0.059
7.727,-0.056
7.728,-0.053
7.729,-0.053
7.730,-0.053
7.731,-0.050
7.732,-0.050
7.733,-0.047
7.734,-0.054
7.735,-0.056
7.736,-0.056
7.737,-0.056
7.738,-0.054
7.739,-0.056
7.740,-0.056
7.741,-0.053
7.742,-0.053
7.743,-0.053
7.744,-0.053
7.745,-0.050
7.746,-0.050
7.747,-0.050
7.748,-0.049
7.749,-0.047
7.750,-0.050
7.751,-0.050
7.752,-0.050
7.753,-0.050
7.754,-0.047
7.755,-0.047
7.756,-0.046
7.757,-0.047
7.758,-0.047
7.759,-0.047
7.760,-0.047
7.761,-0.047
7.762,-0.044
7.763,-0.044
7.764,-0.043
7.765,-0.041
7.766,-0.041
7.767,-0.041
7.768,-0.041
7.769,-0.041
7.770,-0.038
7.771,-0.038
7.772,-0.038
7.773,-0.038
7.774,-0.039
7.775,-0.038
7.776,-0.036
7.777,-0.038
7.778,-0.036
7.779,-0.034
7.780,-0.033
7.781,-0.034
7.782,-0.031
7.783,-0.034
7.784,-0.034
7.785,-0.031
7.786,-0.032
7.787,-0.031
7.788,-0.032
7.789,-0.034
7.790,-0.033
7.791,-0.031
7.792,-0.030
7.793,-0.025
7.794,-0.022
7.795,-0.022
7.796,-0.022
7.797,-0.019
7.798,-0.020
7.799,-0.022
7.800,-0.022
7.801,-0.019
7.802,-0.023
7.803,-0.022
7.804,-0.021
7.805,-0.019
7.806,-0.018
7.807,-0.016
7.808,-0.020
7.809,-0.019
7.810,-0.019
7.811,-0.019
7.812,-0.019
7.813,-0.019
7.814,-0.017
7.815,-0.022
7.816,-0.016
7.817,-0.016
7.818,-0.017
7.819,-0.016
7.820,-0.016
7.821,-0.016
7.822,-0.017
7.823,-0.016
7.824,-0.013
7.825,-0.013
7.826,-0.013
7.827,-0.013
7.828,-0.013
7.829,-0.013
7.830,-0.009
7.831,-0.013
7.832,-0.009
7.833,-0.013
7.834,-0.011
7.835,-0.013
7.836,-0.013
7.837,-0.013
7.838,-0.008
7.839,-0.003
7.840,-0.006
7.841,-0.006
7.842,-0.006
7.843,-0.006
7.844,-0.008
7.845,-0.006
7.846,-0.005
7.847,-0.003
7.848,-0.003
7.849,0.000
7.850,-0.001
7.851,0.000
7.852,0.000
7.853,0.003
7.854,0.003
7.855,0.000
7.856,-0.001
7.857,0.000
7.858,0.000
7.859,0.000
7.860,0.003
7.861,0.003
7.862,0.002
7.863,0.003
7.864,0.003
7.865,0.006
7.866,0.004
7.867,0.006
7.868,0.008
7.869,0.006
7.870,0.006
7.871,0.003
7.872,0.009
7.873,0.016
7.874,0.017
7.875,0.019
7.876,0.019
7.877,0.019
7.878,0.018
7.879,0.016
7.880,0.011
7.881,0.012
7.882,0.012
7.883,0.012
7.884,0.012
7.885,0.016
7.886,0.016
7.887,0.016
7.888,0.014
7.889,0.016
7.890,0.019
7.891,0.022
7.892,0.019
7.893,0.022
7.894,0.025
7.895,0.025
7.896,0.024
7.897,0.022
7.898,0.022
7.899,0.022
7.900,0.022
7.901,0.025
7.902,0.025
7.903,0.025
7.904,0.022
7.905,0.022
7.906,0.022
7.907,0.022
7.908,0.025
7.909,0.028
7.910,0.030
7.911,0.028
7.912,0.027
7.913,0.025
7.914,0.025
7.915,0.025
7.916,0.028
7.917,0.031
7.918,0.030
7.919,0.031
7.920,0.030
7.921,0.031
7.922,0.031
7.923,0.031
7.924,0.030
7.925,0.028
7.926,0.036
7.927,0.037
7.928,0.039
7.929,0.037
7.930,0.039
7.931,0.041
7.932,0.037
7.933,0.037
7.934,0.039
7.935,0.041
7.936,0.041
7.937,0.041
7.938,0.042
7.939,0.044
7.940,0.046
7.941,0.044
7.942,0.045
7.943,0.044
7.944,0.047
7.945,0.047
7.946,0.046
7.947,0.047
7.948,0.047
7.949,0.047
7.950,0.050
7.951,0.047
7.952,0.047
7.953,0.047
7.954,0.049
7.955,0.047
7.956,0.048
7.957,0.053
7.958,0.056
7.959,0.056
7.960,0.056
7.961,0.056
7.962,0.059
7.963,0.062
7.964,0.062
7.965,0.062
7.966,0.062
7.967,0.062
7.968,0.064
7.969,0.062
7.970,0.064
7.971,0.069
7.972,0.070
7.973,0.075
7.974,0.077
7.975,0.075
7.976,0.075
7.977,0.078
7.978,0.082
7.979,0.084
7.980,0.083
7.981,0.084
7.982,0.083
7.983,0.084
7.984,0.086
7.985,0.091
7.986,0.094
7.987,0.094
7.988,0.091
7.989,0.091
7.990,0.092
7.991,0.094
7.992,0.098
7.993,0.100
7.994,0.100
7.995,0.103
7.996,0.106
7.997,0.106
7.998,0.106
7.999,0.106
8.000,0.106
8.001,0.106
8.002,0.109
8.003,0.116
8.004,0.114
8.005,0.116
8.006,0.114
8.007,0.116
8.008,0.114
8.009,0.119
8.010,0.114
8.011,0.112
8.012,0.112
8.013,0.112
8.014,0.109
8.015,0.106
8.016,0.106
8.017,0.106
8.018,0.107
8.019,0.106
8.020,0.103
8.021,0.103
8.022,0.101
8.023,0.100
8.024,0.099
8.025,0.097
8.026,0.094
8.027,0.087
8.028,0.087
8.029,0.084
8.030,0.081
8.031,0.081
8.032,0.081
8.033,0.081
8.034,0.075
8.035,0.072
8.036,0.070
8.037,0.069
8.038,0.061
8.039,0.056
8.040,0.057
8.041,0.056
8.042,0.053
8.043,0.053
8.044,0.050
8.045,0.047
8.046,0.045
8.047,0.047
8.048,0.044
8.049,0.044
8.050,0.042
8.051,0.041
8.052,0.037
8.053,0.037
8.054,0.030
8.055,0.028
8.056,0.022
8.057,0.019
8.058,0.019
8.059,0.019
8.060,0.016
8.061,0.016
8.062,0.012
8.063,0.009
8.064,0.005
8.065,0.003
8.066,0.001
8.067,0.000
8.068,0.000
8.069,-0.003
8.070,-0.008
8.071,-0.013
8.072,-0.013
8.073,-0.013
8.074,-0.014
8.075,-0.016
8.076,-0.014
8.077,-0.013
8.078,-0.011
8.079,-0.013
8.080,-0.017
8.081,-0.022
8.082,-0.022
8.083,-0.025
8.084,-0.024
8.085,-0.028
8.086,-0.028
8.087,-0.028
8.088,-0.028
8.089,-0.031
8.090,-0.032
8.091,-0.034
8.092,-0.034
8.093,-0.038
8.094,-0.036
8.095,-0.038
8.096,-0.036
8.097,-0.038
8.098,-0.036
8.099,-0.038
8.100,-0.039
8.101,-0.044
8.102,-0.050
8.103,-0.047
8.104,-0.047
8.105,-0.047
8.106,-0.046
8.107,-0.047
8.108,-0.047
8.109,-0.047
8.110,-0.043
8.111,-0.041
8.112,-0.044
8.113,-0.044
8.114,-0.044
8.115,-0.044
8.116,-0.044
8.117,-0.044
8.118,-0.047
8.119,-0.050
8.120,-0.049
8.121,-0.050
8.122,-0.051
8.123,-0.053
8.124,-0.047
8.125,-0.044
8.126,-0.047
8.127,-0.047
8.128,-0.047
8.129,-0.047
8.130,-0.048
8.131,-0.050
8.132,-0.047
8.133,-0.047
8.134,-0.050
8.135,-0.053
8.136,-0.050
8.137,-0.053
8.138,-0.053
8.139,-0.053
8.140,-0.049
8.141,-0.050
8.142,-0.053
8.143,-0.053
8.144,-0.052
8.145,-0.050
8.146,-0.053
8.147,-0.053
8.148,-0.053
8.149,-0.053
8.150,-0.058
8.151,-0.056
8.152,-0.056
8.153,-0.059
8.154,-0.056
8.155,-0.053
8.156,-0.053
8.157,-0.053
8.158,-0.052
8.159,-0.050
8.160,-0.053
8.161,-0.053
8.162,-0.054
8.163,-0.056
8.164,-0.058
8.165,-0.059
8.166,-0.059
8.167,-0.056
8.168,-0.061
8.169,-0.059
8.170,-0.058
8.171,-0.053
8.172,-0.053
8.173,-0.053
8.174,-0.054
8.175,-0.059
8.176,-0.056
8.177,-0.059
8.178,-0.055
8.179,-0.056
8.180,-0.059
8.181,-0.059
8.182,-0.058
8.183,-0.056
8.184,-0.058
8.185,-0.056
8.186,-0.061
8.187,-0.059
8.188,-0.063
8.189,-0.063
8.190,-0.063
8.191,-0.063
8.192,-0.063
8.193,-0.063
8.194,-0.061
8.195,-0.059
8.196,-0.063
8.197,-0.059
8.198,-0.059
8.199,-0.059
8.200,-0.063
8.201,-0.063
8.202,-0.063
8.203,-0.063
8.204,-0.063
8.205,-0.063
8.206,-0.063
8.207,-0.063
8.208,-0.063
8.209,-0.063
8.210,-0.063
8.211,-0.063
8.212,-0.063
8.213,-0.063
8.214,-0.064
8.215,-0.066
8.216,-0.067
8.217,-0.066
8.218,-0.068
8.219,-0.066
8.220,-0.069
8.221,-0.066
8.222,-0.064
8.223,-0.063
8.224,-0.064
8.225,-0.063
8.226,-0.064
8.227,-0.066
8.228,-0.067
8.229,-0.069
8.230,-0.064
8.231,-0.066
8.232,-0.064
8.233,-0.066
8.234,-0.066
8.235,-0.066
8.236,-0.067
8.237,-0.066
8.238,-0.066
8.239,-0.066
8.240,-0.064
8.241,-0.066
8.242,-0.066
8.243,-0.066
8.244,-0.067
8.245,-0.069
8.246,-0.069
8.247,-0.069
8.248,-0.066
8.249,-0.066
8.250,-0.068
8.251,-0.063
8.252,-0.066
8.253,-0.066
8.254,-0.066
8.255,-0.066
8.256,-0.066
8.257,-0.066
8.258,-0.066
8.259,-0.066
8.260,-0.066
8.261,-0.066
8.262,-0.066
8.263,-0.069
8.264,-0.066
8.265,-0.066
8.266,-0.069
8.267,-0.069
8.268,-0.069
8.269,-0.069
8.270,-0.070
8.271,-0.072
8.272,-0.072
8.273,-0.072
8.274,-0.072
8.275,-0.069
8.276,-0.069
8.277,-0.069
8.278,-0.070
8.279,-0.072
8.280,-0.071
8.281,-0.069
8.282,-0.072
8.283,-0.072
8.284,-0.071
8.285,-0.069
8.286,-0.069
8.287,-0.069
8.288,-0.069
8.289,-0.072
8.290,-0.072
8.291,-0.069
8.292,-0.068
8.293,-0.066
8.294,-0.066
8.295,-0.063
8.296,-0.066
8.297,-0.066
8.298,-0.066
8.299,-0.066
8.300,-0.066
8.301,-0.066
8.302,-0.067
8.303,-0.069
8.304,-0.068
8.305,-0.069
8.306,-0.066
8.307,-0.059
8.308,-0.061
8.309,-0.063
8.310,-0.064
8.311,-0.066
8.312,-0.066
8.313,-0.066
8.314,-0.067
8.315,-0.069
8.316,-0.069
8.317,-0.072
8.318,-0.069
8.319,-0.069
8.320,-0.071
8.321,-0.069
8.322,-0.070
8.323,-0.072
8.324,-0.071
8.325,-0.069
8.326,-0.073
8.327,-0.072
8.328,-0.073
8.329,-0.075
8.330,-0.075
8.331,-0.075
8.332,-0.075
8.333,-0.075
8.334,-0.075
8.335,-0.075
8.336,-0.075
8.337,-0.075
8.338,-0.075
8.339,-0.075
8.340,-0.074
8.341,-0.072
8.342,-0.068
8.343,-0.069
8.344,-0.070
8.345,-0.072
8.346,-0.072
8.347,-0.072
8.348,-0.076
8.349,-0.075
8.350,-0.072
8.351,-0.069
8.352,-0.069
8.353,-0.069
8.354,-0.073
8.355,-0.072
8.356,-0.074
8.357,-0.072
8.358,-0.071
8.359,-0.072
8.360,-0.075
8.361,-0.075
8.362,-0.073
8.363,-0.075
8.364,-0.075
8.365,-0.075
8.366,-0.074
8.367,-0.075
8.368,-0.076
8.369,-0.078
8.370,-0.078
8.371,-0.078
8.372,-0.075
8.373,-0.078
8.374,-0.078
8.375,-0.078
8.376,-0.078
8.377,-0.078
8.378,-0.077
8.379,-0.075
8.380,-0.075
8.381,-0.072
8.382,-0.072
8.383,-0.072
8.384,-0.072
8.385,-0.072
8.386,-0.071
8.387,-0.069
8.388,-0.071
8.389,-0.069
8.390,-0.066
8.391,-0.066
8.392,-0.067
8.393,-0.066
8.394,-0.067
8.395,-0.069
8.396,-0.067
8.397,-0.069
8.398,-0.064
8.399,-0.066
8.400,-0.069
8.401,-0.069
8.402,-0.073
8.403,-0.072
8.404,-0.072
8.405,-0.069
8.406,-0.069
8.407,-0.069
8.408,-0.073
8.409,-0.072
8.410,-0.071
8.411,-0.072
8.412,-0.072
8.413,-0.072
8.414,-0.072
8.415,-0.072
8.416,-0.073
8.417,-0.075
8.418,-0.075
8.419,-0.069
8.420,-0.069
8.421,-0.069
8.422,-0.069
8.423,-0.069
8.424,-0.072
8.425,-0.072
8.426,-0.071
8.427,-0.072
8.428,-0.070
8.429,-0.072
8.430,-0.071
8.431,-0.072
8.432,-0.070
8.433,-0.075
8.434,-0.072
8.435,-0.072
8.436,-0.072
8.437,-0.072
8.438,-0.073
8.439,-0.072
8.440,-0.074
8.441,-0.072
8.442,-0.071
8.443,-0.069
8.444,-0.072
8.445,-0.072
8.446,-0.075
8.447,-0.072
8.448,-0.072
8.449,-0.072
8.450,-0.073
8.451,-0.075
8.452,-0.075
8.453,-0.075
8.454,-0.075
8.455,-0.075
8.456,-0.072
8.457,-0.072
8.458,-0.068
8.459,-0.069
8.460,-0.072
8.461,-0.072
8.462,-0.072
8.463,-0.075
8.464,-0.072
8.465,-0.072
8.466,-0.072
8.467,-0.072
8.468,-0.069
8.469,-0.066
8.470,-0.066
8.471,-0.066
8.472,-0.066
8.473,-0.066
8.474,-0.064
8.475,-0.063
8.476,-0.066
8.477,-0.069
8.478,-0.069
8.479,-0.069
8.480,-0.069
8.481,-0.069
8.482,-0.068
8.483,-0.066
8.484,-0.070
8.485,-0.072
8.486,-0.073
8.487,-0.072
8.488,-0.071
8.489,-0.069
8.490,-0.071
8.491,-0.069
8.492,-0.067
8.493,-0.069
8.494,-0.072
8.495,-0.072
8.496,-0.072
8.497,-0.072
8.498,-0.073
8.499,-0.072
8.500,-0.072
8.501,-0.072
8.502,-0.071
8.503,-0.069
8.504,-0.069
8.505,-0.069
8.506,-0.068
8.507,-0.069
8.508,-0.070
8.509,-0.072
8.510,-0.071
8.511,-0.069
8.512,-0.072
8.513,-0.066
8.514,-0.069
8.515,-0.069
8.516,-0.070
8.517,-0.072
8.518,-0.073
8.519,-0.075
8.520,-0.073
8.521,-0.075
8.522,-0.074
8.523,-0.072
8.524,-0.071
8.525,-0.072
8.526,-0.070
8.527,-0.072
8.528,-0.071
8.529,-0.072
8.530,-0.076
8.531,-0.075
8.532,-0.075
8.533,-0.075
8.534,-0.078
8.535,-0.081
8.536,-0.080
8.537,-0.078
8.538,-0.079
8.539,-0.078
8.540,-0.077
8.541,-0.075
8.542,-0.077
8.543,-0.075
8.544,-0.074
8.545,-0.069
8.546,-0.071
8.547,-0.072
8.548,-0.070
8.549,-0.072
8.550,-0.076
8.551,-0.081
8.552,-0.081
8.553,-0.081
8.554,-0.082
8.555,-0.084
8.556,-0.081
8.557,-0.084
8.558,-0.075
8.559,-0.072
8.560,-0.068
8.561,-0.063
8.562,-0.059
8.563,-0.053
8.564,-0.050
8.565,-0.044
8.566,-0.044
8.567,-0.038
8.568,-0.031
8.569,-0.028
8.570,-0.031
8.571,-0.031
8.572,-0.030
8.573,-0.028
8.574,-0.022
8.575,-0.022
8.576,-0.021
8.577,-0.019
8.578,-0.021
8.579,-0.016
8.580,-0.016
8.581,-0.016
8.582,-0.017
8.583,-0.019
8.584,-0.016
8.585,-0.009
8.586,0.001
8.587,0.012
8.588,0.028
8.589,0.044
8.590,0.061
8.591,0.084
8.592,0.100
8.593,0.112
8.594,0.121
8.595,0.125
8.596,0.126
8.597,0.128
8.598,0.126
8.599,0.128
8.600,0.125
8.601,0.128
8.602,0.129
8.603,0.131
8.604,0.132
8.605,0.134
8.606,0.139
8.607,0.141
8.608,0.136
8.609,0.128
8.610,0.116
8.611,0.106
8.612,0.107
8.613,0.106
8.614,0.107
8.615,0.106
8.616,0.100
8.617,0.091
8.618,0.084
8.619,0.075
8.620,0.077
8.621,0.072
8.622,0.072
8.623,0.069
8.624,0.069
8.625,0.069
8.626,0.062
8.627,0.053
8.628,0.049
8.629,0.050
8.630,0.053
8.631,0.053
8.632,0.057
8.633,0.053
8.634,0.047
8.635,0.037
8.636,0.024
8.637,0.012
8.638,0.005
8.639,-0.006
8.640,-0.013
8.641,-0.019
8.642,-0.026
8.643,-0.031
8.644,-0.034
8.645,-0.038
8.646,-0.043
8.647,-0.047
8.648,-0.051
8.649,-0.053
8.650,-0.055
8.651,-0.053
8.652,-0.053
8.653,-0.053
8.654,-0.058
8.655,-0.059
8.656,-0.059
8.657,-0.063
8.658,-0.063
8.659,-0.063
8.660,-0.064
8.661,-0.066
8.662,-0.069
8.663,-0.069
8.664,-0.069
8.665,-0.069
8.666,-0.073
8.667,-0.072
8.668,-0.072
8.669,-0.072
8.670,-0.071
8.671,-0.072
8.672,-0.075
8.673,-0.081
8.674,-0.081
8.675,-0.081
8.676,-0.080
8.677,-0.081
8.678,-0.084
8.679,-0.084
8.680,-0.081
8.681,-0.084
8.682,-0.086
8.683,-0.084
8.684,-0.084
8.685,-0.084
8.686,-0.083
8.687,-0.084
8.688,-0.088
8.689,-0.091
8.690,-0.092
8.691,-0.091
8.692,-0.093
8.693,-0.094
8.694,-0.091
8.695,-0.091
8.696,-0.088
8.697,-0.081
8.698,-0.082
8.699,-0.084
8.700,-0.086
8.701,-0.088
8.702,-0.084
8.703,-0.084
8.704,-0.080
8.705,-0.078
8.706,-0.079
8.707,-0.078
8.708,-0.078
8.709,-0.078
8.710,-0.078
8.711,-0.075
8.712,-0.075
8.713,-0.075
8.714,-0.075
8.715,-0.081
8.716,-0.084
8.717,-0.084
8.718,-0.095
8.719,-0.103
8.720,-0.108
8.721,-0.109
8.722,-0.106
8.723,-0.097
8.724,-0.081
8.725,-0.066
8.726,-0.038
8.727,-0.013
8.728,0.018
8.729,0.034
8.730,0.059
8.731,0.072
8.732,0.089
8.733,0.103
8.734,0.126
8.735,0.153
8.736,0.187
8.737,0.241
8.738,0.294
8.739,0.359
8.740,0.422
8.741,0.484
8.742,0.547
8.743,0.600
8.744,0.659
8.745,0.716
8.746,0.741
8.747,0.744
8.748,0.729
8.749,0.750
8.750,0.776
8.751,0.844
8.752,0.887
8.753,0.887
8.754,0.883
8.755,0.781
8.756,0.694
8.757,0.528
8.758,0.384
8.759,0.284
8.760,0.184
8.761,0.144
8.762,0.098
8.763,0.066
8.764,0.037
8.765,0.022
8.766,-0.003
8.767,-0.019
8.768,-0.039
8.769,-0.053
8.770,-0.066
8.771,-0.069
8.772,-0.075
8.773,-0.069
8.774,-0.059
8.775,-0.056
8.776,-0.039
8.777,-0.022
8.778,-0.004
8.779,0.016
8.780,0.025
8.781,0.031
8.782,0.034
8.783,0.041
8.784,0.037
8.785,0.037
8.786,0.030
8.787,0.012
8.788,0.006
8.789,0.003
8.790,0.000
8.791,-0.006
8.792,-0.017
8.793,-0.022
8.794,-0.028
8.795,-0.034
8.796,-0.034
8.797,-0.034
8.798,-0.039
8.799,-0.041
8.800,-0.042
8.801,-0.041
8.802,-0.044
8.803,-0.047
8.804,-0.042
8.805,-0.044
8.806,-0.041
8.807,-0.044
8.808,-0.044
8.809,-0.044
8.810,-0.046
8.811,-0.047
8.812,-0.050
8.813,-0.050
8.814,-0.050
8.815,-0.050
8.816,-0.047
8.817,-0.047
8.818,-0.045
8.819,-0.047
8.820,-0.043
8.821,-0.038
8.822,-0.034
8.823,-0.034
8.824,-0.036
8.825,-0.034
8.826,-0.034
8.827,-0.031
8.828,-0.038
8.829,-0.038
8.830,-0.039
8.831,-0.041
8.832,-0.034
8.833,-0.031
8.834,-0.032
8.835,-0.031
8.836,-0.031
8.837,-0.031
8.838,-0.034
8.839,-0.034
8.840,-0.031
8.841,-0.028
8.842,-0.028
8.843,-0.028
8.844,-0.031
8.845,-0.031
8.846,-0.028
8.847,-0.025
8.848,-0.023
8.849,-0.025
8.850,-0.024
8.851,-0.025
8.852,-0.025
8.853,-0.025
8.854,-0.024
8.855,-0.022
8.856,-0.019
8.857,-0.019
8.858,-0.019
8.859,-0.019
8.860,-0.019
8.861,-0.019
8.862,-0.019
8.863,-0.019
8.864,-0.017
8.865,-0.019
8.866,-0.019
8.867,-0.019
8.868,-0.020
8.869,-0.019
8.870,-0.016
8.871,-0.016
8.872,-0.014
8.873,-0.013
8.874,-0.008
8.875,-0.006
8.876,-0.004
8.877,-0.009
8.878,-0.011
8.879,-0.009
8.880,-0.009
8.881,-0.006
8.882,-0.006
8.883,-0.006
8.884,-0.008
8.885,-0.009
8.886,-0.009
8.887,-0.006
8.888,-0.002
8.889,0.000
8.890,-0.004
8.891,-0.006
8.892,-0.003
8.893,0.000
8.894,-0.001
8.895,0.000
8.896,-0.004
8.897,-0.003
8.898,-0.003
8.899,-0.003
8.900,-0.004
8.901,-0.006
8.902,-0.006
8.903,0.000
8.904,-0.001
8.905,-0.003
8.906,-0.006
8.907,-0.009
8.908,-0.003
8.909,-0.003
8.910,0.003
8.911,0.003
8.912,0.002
8.913,0.003
8.914,0.002
8.915,0.000
8.916,-0.001
8.917,0.000
8.918,0.002
8.919,0.000
8.920,0.000
8.921,0.000
8.922,-0.001
8.923,-0.003
8.924,0.000
8.925,-0.003
8.926,0.001
8.927,0.000
8.928,0.003
8.929,0.003
8.930,0.004
8.931,0.006
8.932,0.008
8.933,0.009
8.934,0.007
8.935,0.009
8.936,0.008
8.937,0.006
8.938,0.005
8.939,0.006
8.940,0.007
8.941,0.009
8.942,0.008
8.943,0.009
8.944,0.011
8.945,0.016
8.946,0.014
8.947,0.016
8.948,0.017
8.949,0.016
8.950,0.014
8.951,0.016
8.952,0.017
8.953,0.019
8.954,0.022
8.955,0.022
8.956,0.023
8.957,0.028
8.958,0.027
8.959,0.028
8.960,0.026
8.961,0.028
8.962,0.028
8.963,0.025
8.964,0.025
8.965,0.022
8.966,0.024
8.967,0.025
8.968,0.025
8.969,0.025
8.970,0.029
8.971,0.034
8.972,0.036
8.973,0.037
8.974,0.036
8.975,0.041
8.976,0.039
8.977,0.037
8.978,0.034
8.979,0.034
8.980,0.036
8.981,0.037
8.982,0.036
8.983,0.037
8.984,0.039
8.985,0.041
8.986,0.036
8.987,0.037
8.988,0.039
8.989,0.037
8.990,0.039
8.991,0.041
8.992,0.041
8.993,0.041
8.994,0.041
8.995,0.044
8.996,0.045
8.997,0.047
8.998,0.044
8.999,0.044
9.000,0.044
9.001,0.044
9.002,0.046
9.003,0.047
9.004,0.049
9.005,0.047
9.006,0.050
9.007,0.053
9.008,0.054
9.009,0.056
9.010,0.056
9.011,0.056
9.012,0.055
9.013,0.056
9.014,0.057
9.015,0.062
9.016,0.062
9.017,0.062
9.018,0.062
9.019,0.062
9.020,0.066
9.021,0.062
9.022,0.064
9.023,0.062
9.024,0.062
9.025,0.062
9.026,0.061
9.027,0.062
9.028,0.062
9.029,0.062
9.030,0.062
9.031,0.062
9.032,0.062
9.033,0.062
9.034,0.064
9.035,0.062
9.036,0.064
9.037,0.062
9.038,0.064
9.039,0.062
9.040,0.064
9.041,0.069
9.042,0.068
9.043,0.066
9.044,0.069
9.045,0.066
9.046,0.069
9.047,0.072
9.048,0.076
9.049,0.078
9.050,0.077
9.051,0.078
9.052,0.080
9.053,0.078
9.054,0.079
9.055,0.081
9.056,0.083
9.057,0.084
9.058,0.084
9.059,0.084
9.060,0.084
9.061,0.084
9.062,0.086
9.063,0.084
9.064,0.083
9.065,0.084
9.066,0.086
9.067,0.091
9.068,0.094
9.069,0.094
9.070,0.092
9.071,0.094
9.072,0.097
9.073,0.097
9.074,0.098
9.075,0.103
9.076,0.103
9.077,0.106
9.078,0.106
9.079,0.109
9.080,0.114
9.081,0.116
9.082,0.114
9.083,0.116
9.084,0.117
9.085,0.119
9.086,0.121
9.087,0.119
9.088,0.119
9.089,0.122
9.090,0.126
9.091,0.128
9.092,0.128
9.093,0.128
9.094,0.127
9.095,0.125
9.096,0.126
9.097,0.131
9.098,0.131
9.099,0.134
9.100,0.132
9.101,0.134
9.102,0.130
9.103,0.131
9.104,0.128
9.105,0.128
9.106,0.125
9.107,0.122
9.108,0.120
9.109,0.119
9.110,0.118
9.111,0.116
9.112,0.117
9.113,0.116
9.114,0.112
9.115,0.112
9.116,0.108
9.117,0.103
9.118,0.102
9.119,0.100
9.120,0.100
9.121,0.097
9.122,0.096
9.123,0.091
9.124,0.086
9.125,0.084
9.126,0.084
9.127,0.084
9.128,0.081
9.129,0.081
9.130,0.077
9.131,0.072
9.132,0.067
9.133,0.066
9.134,0.066
9.135,0.062
9.136,0.061
9.137,0.062
9.138,0.058
9.139,0.053
9.140,0.051
9.141,0.053
9.142,0.049
9.143,0.047
9.144,0.044
9.145,0.041
9.146,0.037
9.147,0.037
9.148,0.032
9.149,0.034
9.150,0.030
9.151,0.028
9.152,0.022
9.153,0.016
9.154,0.014
9.155,0.016
9.156,0.014
9.157,0.012
9.158,0.009
9.159,0.009
9.160,0.007
9.161,0.006
9.162,0.006
9.163,0.003
9.164,0.001
9.165,0.000
9.166,-0.003
9.167,-0.006
9.168,-0.008
9.169,-0.009
9.170,-0.009
9.171,-0.009
9.172,-0.008
9.173,-0.009
9.174,-0.009
9.175,-0.009
9.176,-0.009
9.177,-0.013
9.178,-0.014
9.179,-0.022
9.180,-0.023
9.181,-0.025
9.182,-0.024
9.183,-0.025
9.184,-0.025
9.185,-0.025
9.186,-0.025
9.187,-0.028
9.188,-0.028
9.189,-0.031
9.190,-0.030
9.191,-0.031
9.192,-0.028
9.193,-0.028
9.194,-0.025
9.195,-0.025
9.196,-0.032
9.197,-0.031
9.198,-0.031
9.199,-0.031
9.200,-0.031
9.201,-0.034
9.202,-0.036
9.203,-0.038
9.204,-0.034
9.205,-0.034
9.206,-0.038
9.207,-0.038
9.208,-0.036
9.209,-0.034
9.210,-0.034
9.211,-0.034
9.212,-0.034
9.213,-0.034
9.214,-0.036
9.215,-0.041
9.216,-0.041
9.217,-0.041
9.218,-0.038
9.219,-0.038
9.220,-0.039
9.221,-0.038
9.222,-0.039
9.223,-0.041
9.224,-0.041
9.225,-0.041
9.226,-0.036
9.227,-0.034
9.228,-0.038
9.229,-0.041
9.230,-0.038
9.231,-0.041
9.232,-0.041
9.233,-0.041
9.234,-0.038
9.235,-0.041
9.236,-0.041
9.237,-0.038
9.238,-0.038
9.239,-0.038
9.240,-0.041
9.241,-0.041
9.242,-0.039
9.243,-0.038
9.244,-0.039
9.245,-0.034
9.246,-0.033
9.247,-0.034
9.248,-0.034
9.249,-0.034
9.250,-0.034
9.251,-0.034
9.252,-0.038
9.253,-0.041
9.254,-0.045
9.255,-0.047
9.256,-0.046
9.257,-0.044
9.258,-0.044
9.259,-0.044
9.260,-0.045
9.261,-0.044
9.262,-0.049
9.263,-0.047
9.264,-0.048
9.265,-0.047
9.266,-0.047
9.267,-0.047
9.268,-0.047
9.269,-0.050
9.270,-0.047
9.271,-0.050
9.272,-0.046
9.273,-0.047
9.274,-0.050
9.275,-0.050
9.276,-0.048
9.277,-0.047
9.278,-0.049
9.279,-0.047
9.280,-0.050
9.281,-0.047
9.282,-0.050
9.283,-0.050
9.284,-0.050
9.285,-0.050
9.286,-0.050
9.287,-0.050
9.288,-0.050
9.289,-0.050
9.290,-0.053
9.291,-0.050
9.292,-0.050
9.293,-0.050
9.294,-0.053
9.295,-0.053
9.296,-0.056
9.297,-0.059
9.298,-0.059
9.299,-0.059
9.300,-0.056
9.301,-0.053
9.302,-0.053
9.303,-0.053
9.304,-0.053
9.305,-0.053
9.306,-0.053
9.307,-0.053
9.308,-0.052
9.309,-0.050
9.310,-0.050
9.311,-0.047
9.312,-0.050
9.313,-0.050
9.314,-0.054
9.315,-0.053
9.316,-0.052
9.317,-0.050
9.318,-0.052
9.319,-0.050
9.320,-0.053
9.321,-0.056
9.322,-0.056
9.323,-0.056
9.324,-0.051
9.325,-0.053
9.326,-0.052
9.327,-0.053
9.328,-0.052
9.329,-0.050
9.330,-0.051
9.331,-0.050
9.332,-0.051
9.333,-0.053
9.334,-0.052
9.335,-0.053
9.336,-0.054
9.337,-0.056
9.338,-0.056
9.339,-0.056
9.340,-0.044
9.341,-0.031
9.342,-0.014
9.343,0.000
9.344,-0.003
9.345,0.000
9.346,-0.003
9.347,-0.003
9.348,-0.014
9.349,-0.025
9.350,-0.039
9.351,-0.053
9.352,-0.053
9.353,-0.053
9.354,-0.053
9.355,-0.053
9.356,-0.052
9.357,-0.053
9.358,-0.050
9.359,-0.050
9.360,-0.053
9.361,-0.053
9.362,-0.056
9.363,-0.059
9.364,-0.061
9.365,-0.063
9.366,-0.059
9.367,-0.056
9.368,-0.058
9.369,-0.056
9.370,-0.056
9.371,-0.056
9.372,-0.056
9.373,-0.056
9.374,-0.055
9.375,-0.053
9.376,-0.056
9.377,-0.056
9.378,-0.056
9.379,-0.056
9.380,-0.056
9.381,-0.056
9.382,-0.056
9.383,-0.059
9.384,-0.059
9.385,-0.056
9.386,-0.056
9.387,-0.056
9.388,-0.056
9.389,-0.053
9.390,-0.056
9.391,-0.056
9.392,-0.056
9.393,-0.056
9.394,-0.058
9.395,-0.059
9.396,-0.059
9.397,-0.059
9.398,-0.059
9.399,-0.063
9.400,-0.064
9.401,-0.063
9.402,-0.059
9.403,-0.056
9.404,-0.058
9.405,-0.059
9.406,-0.059
9.407,-0.059
9.408,-0.059
9.409,-0.059
9.410,-0.058
9.411,-0.059
9.412,-0.059
9.413,-0.063
9.414,-0.066
9.415,-0.066
9.416,-0.063
9.417,-0.059
9.418,-0.056
9.419,-0.053
9.420,-0.058
9.421,-0.056
9.422,-0.056
9.423,-0.056
9.424,-0.056
9.425,-0.056
9.426,-0.056
9.427,-0.056
9.428,-0.056
9.429,-0.056
9.430,-0.056
9.431,-0.056
9.432,-0.056
9.433,-0.056
9.434,-0.056
9.435,-0.056
9.436,-0.053
9.437,-0.056
9.438,-0.056
9.439,-0.056
9.440,-0.055
9.441,-0.053
9.442,-0.058
9.443,-0.056
9.444,-0.056
9.445,-0.056
9.446,-0.055
9.447,-0.053
9.448,-0.058
9.449,-0.056
9.450,-0.059
9.451,-0.063
9.452,-0.064
9.453,-0.066
9.454,-0.063
9.455,-0.059
9.456,-0.058
9.457,-0.056
9.458,-0.056
9.459,-0.056
9.460,-0.056
9.461,-0.056
9.462,-0.059
9.463,-0.063
9.464,-0.064
9.465,-0.066
9.466,-0.066
9.467,-0.066
9.468,-0.061
9.469,-0.056
9.470,-0.059
9.471,-0.063
9.472,-0.063
9.473,-0.063
9.474,-0.063
9.475,-0.063
9.476,-0.064
9.477,-0.066
9.478,-0.066
