'Elapsed time','II'
'seconds','mV'
0.000,0.059
0.001,0.059
0.002,0.059
0.003,0.059
0.004,0.059
0.005,0.059
0.006,0.058
0.007,0.056
0.008,0.055
0.009,0.053
0.010,0.050
0.011,0.047
0.012,0.048
0.013,0.050
0.014,0.050
0.015,0.050
0.016,0.049
0.017,0.047
0.018,0.042
0.019,0.038
0.020,0.039
0.021,0.041
0.022,0.041
0.023,0.041
0.024,0.041
0.025,0.041
0.026,0.039
0.027,0.038
0.028,0.036
0.029,0.034
0.030,0.036
0.031,0.038
0.032,0.036
0.033,0.034
0.034,0.033
0.035,0.031
0.036,0.030
0.037,0.028
0.038,0.027
0.039,0.025
0.040,0.024
0.041,0.022
0.042,0.022
0.043,0.022
0.044,0.023
0.045,0.025
0.046,0.025
0.047,0.025
0.048,0.024
0.049,0.022
0.050,0.019
0.051,0.016
0.052,0.016
0.053,0.016
0.054,0.014
0.055,0.012
0.056,0.009
0.057,0.009
0.058,0.014
0.059,0.009
0.060,0.009
0.061,0.009
0.062,0.011
0.063,0.012
0.064,0.012
0.065,0.012
0.066,0.016
0.067,0.022
0.068,0.022
0.069,0.022
0.070,0.019
0.071,0.019
0.072,0.017
0.073,0.016
0.074,0.014
0.075,0.016
0.076,0.017
0.077,0.019
0.078,0.014
0.079,0.016
0.080,0.016
0.081,0.016
0.082,0.017
0.083,0.019
0.084,0.016
0.085,0.016
0.086,0.016
0.087,0.019
0.088,0.017
0.089,0.016
0.090,0.016
0.091,0.016
0.092,0.014
0.093,0.016
0.094,0.014
0.095,0.012
0.096,0.009
0.097,0.009
0.098,0.009
0.099,0.009
0.100,0.009
0.101,0.012
0.102,0.009
0.103,0.009
0.104,0.009
0.105,0.009
0.106,0.009
0.107,0.009
0.108,0.009
0.109,0.009
0.110,0.011
0.111,0.009
0.112,0.008
0.113,0.006
0.114,0.006
0.115,0.006
0.116,0.006
0.117,0.006
0.118,0.003
0.119,0.006
0.120,0.008
0.121,0.009
0.122,0.005
0.123,0.003
0.124,0.004
0.125,0.006
0.126,0.002
0.127,0.003
0.128,0.004
0.129,0.003
0.130,0.006
0.131,0.006
0.132,0.000
0.133,-0.003
0.134,-0.002
0.135,0.000
0.136,0.000
0.137,0.000
0.138,0.001
0.139,0.000
0.140,-0.003
0.141,0.000
0.142,0.000
0.143,0.003
0.144,0.002
0.145,0.003
0.146,0.003
0.147,-0.003
0.148,-0.006
0.149,-0.012
0.150,-0.011
0.151,-0.012
0.152,-0.009
0.153,-0.012
0.154,-0.012
0.155,-0.012
0.156,-0.014
0.157,-0.016
0.158,-0.016
0.159,-0.019
0.160,-0.019
0.161,-0.022
0.162,-0.018
0.163,-0.016
0.164,-0.018
0.165,-0.016
0.166,-0.020
0.167,-0.019
0.168,-0.020
0.169,-0.025
0.170,-0.024
0.171,-0.022
0.172,-0.021
0.173,-0.019
0.174,-0.019
0.175,-0.019
0.176,-0.020
0.177,-0.025
0.178,-0.028
0.179,-0.028
0.180,-0.029
0.181,-0.028
0.182,-0.027
0.183,-0.025
0.184,-0.027
0.185,-0.028
0.186,-0.026
0.187,-0.028
0.188,-0.029
0.189,-0.031
0.190,-0.033
0.191,-0.031
0.192,-0.030
0.193,-0.028
0.194,-0.028
0.195,-0.028
0.196,-0.028
0.197,-0.028
0.198,-0.028
0.199,-0.028
0.200,-0.029
0.201,-0.031
0.202,-0.033
0.203,-0.031
0.204,-0.032
0.205,-0.034
0.206,-0.033
0.207,-0.031
0.208,-0.034
0.209,-0.034
0.210,-0.031
0.211,-0.034
0.212,-0.036
0.213,-0.038
0.214,-0.034
0.215,-0.034
0.216,-0.031
0.217,-0.031
0.218,-0.034
0.219,-0.034
0.220,-0.034
0.221,-0.034
0.222,-0.034
0.223,-0.034
0.224,-0.034
0.225,-0.034
0.226,-0.034
0.227,-0.034
0.228,-0.034
0.229,-0.038
0.230,-0.041
0.231,-0.044
0.232,-0.045
0.233,-0.047
0.234,-0.047
0.235,-0.047
0.236,-0.045
0.237,-0.047
0.238,-0.044
0.239,-0.044
0.240,-0.042
0.241,-0.041
0.242,-0.042
0.243,-0.038
0.244,-0.038
0.245,-0.038
0.246,-0.041
0.247,-0.041
0.248,-0.041
0.249,-0.041
0.250,-0.038
0.251,-0.038
0.252,-0.038
0.253,-0.038
0.254,-0.039
0.255,-0.041
0.256,-0.042
0.257,-0.050
0.258,-0.050
0.259,-0.050
0.260,-0.050
0.261,-0.050
0.262,-0.050
0.263,-0.050
0.264,-0.049
0.265,-0.047
0.266,-0.047
0.267,-0.047
0.268,-0.048
0.269,-0.050
0.270,-0.050
0.271,-0.050
0.272,-0.051
0.273,-0.053
0.274,-0.053
0.275,-0.053
0.276,-0.053
0.277,-0.053
0.278,-0.052
0.279,-0.053
0.280,-0.053
0.281,-0.053
0.282,-0.049
0.283,-0.053
0.284,-0.053
0.285,-0.053
0.286,-0.056
0.287,-0.056
0.288,-0.056
0.289,-0.056
0.290,-0.053
0.291,-0.050
0.292,-0.050
0.293,-0.053
0.294,-0.053
0.295,-0.056
0.296,-0.055
0.297,-0.056
0.298,-0.056
0.299,-0.056
0.300,-0.058
0.301,-0.056
0.302,-0.056
0.303,-0.056
0.304,-0.061
0.305,-0.062
0.306,-0.056
0.307,-0.053
0.308,-0.053
0.309,-0.053
0.310,-0.054
0.311,-0.056
0.312,-0.055
0.313,-0.053
0.314,-0.055
0.315,-0.056
0.316,-0.056
0.317,-0.056
0.318,-0.055
0.319,-0.050
0.320,-0.052
0.321,-0.050
0.322,-0.051
0.323,-0.053
0.324,-0.050
0.325,-0.050
0.326,-0.053
0.327,-0.053
0.328,-0.049
0.329,-0.050
0.330,-0.051
0.331,-0.053
0.332,-0.051
0.333,-0.050
0.334,-0.052
0.335,-0.050
0.336,-0.053
0.337,-0.053
0.338,-0.053
0.339,-0.053
0.340,-0.053
0.341,-0.053
0.342,-0.053
0.343,-0.053
0.344,-0.053
0.345,-0.053
0.346,-0.053
0.347,-0.053
0.348,-0.056
0.349,-0.053
0.350,-0.053
0.351,-0.053
0.352,-0.054
0.353,-0.056
0.354,-0.061
0.355,-0.062
0.356,-0.064
0.357,-0.062
0.358,-0.059
0.359,-0.056
0.360,-0.058
0.361,-0.059
0.362,-0.059
0.363,-0.059
0.364,-0.059
0.365,-0.059
0.366,-0.058
0.367,-0.053
0.368,-0.053
0.369,-0.053
0.370,-0.056
0.371,-0.059
0.372,-0.056
0.373,-0.059
0.374,-0.056
0.375,-0.056
0.376,-0.052
0.377,-0.047
0.378,-0.044
0.379,-0.038
0.380,-0.028
0.381,-0.019
0.382,-0.008
0.383,0.000
0.384,0.003
0.385,0.003
0.386,0.003
0.387,0.003
0.388,0.005
0.389,0.006
0.390,0.012
0.391,0.019
0.392,0.022
0.393,0.022
0.394,0.024
0.395,0.022
0.396,0.023
0.397,0.025
0.398,0.026
0.399,0.025
0.400,0.024
0.401,0.025
0.402,0.026
0.403,0.025
0.404,0.028
0.405,0.028
0.406,0.027
0.407,0.031
0.408,0.038
0.409,0.044
0.410,0.050
0.411,0.059
0.412,0.055
0.413,0.050
0.414,0.051
0.415,0.056
0.416,0.058
0.417,0.066
0.418,0.072
0.419,0.081
0.420,0.084
0.421,0.084
0.422,0.084
0.423,0.084
0.424,0.082
0.425,0.078
0.426,0.066
0.427,0.056
0.428,0.050
0.429,0.044
0.430,0.038
0.431,0.034
0.432,0.032
0.433,0.031
0.434,0.028
0.435,0.028
0.436,0.025
0.437,0.022
0.438,0.018
0.439,0.006
0.440,0.004
0.441,0.000
0.442,-0.005
0.443,-0.009
0.444,-0.016
0.445,-0.019
0.446,-0.025
0.447,-0.025
0.448,-0.025
0.449,-0.028
0.450,-0.028
0.451,-0.028
0.452,-0.031
0.453,-0.034
0.454,-0.038
0.455,-0.044
0.456,-0.042
0.457,-0.044
0.458,-0.047
0.459,-0.050
0.460,-0.050
0.461,-0.053
0.462,-0.054
0.463,-0.059
0.464,-0.062
0.465,-0.066
0.466,-0.070
0.467,-0.072
0.468,-0.075
0.469,-0.075
0.470,-0.074
0.471,-0.075
0.472,-0.075
0.473,-0.075
0.474,-0.074
0.475,-0.072
0.476,-0.075
0.477,-0.078
0.478,-0.079
0.479,-0.081
0.480,-0.080
0.481,-0.081
0.482,-0.081
0.483,-0.081
0.484,-0.079
0.485,-0.081
0.486,-0.081
0.487,-0.084
0.488,-0.089
0.489,-0.088
0.490,-0.086
0.491,-0.081
0.492,-0.078
0.493,-0.075
0.494,-0.078
0.495,-0.075
0.496,-0.075
0.497,-0.078
0.498,-0.076
0.499,-0.081
0.500,-0.077
0.501,-0.075
0.502,-0.078
0.503,-0.078
0.504,-0.079
0.505,-0.081
0.506,-0.080
0.507,-0.078
0.508,-0.080
0.509,-0.078
0.510,-0.082
0.511,-0.084
0.512,-0.092
0.513,-0.097
0.514,-0.099
0.515,-0.106
0.516,-0.112
0.517,-0.119
0.518,-0.129
0.519,-0.141
0.520,-0.144
0.521,-0.144
0.522,-0.136
0.523,-0.131
0.524,-0.119
0.525,-0.103
0.526,-0.086
0.527,-0.062
0.528,-0.042
0.529,-0.012
0.530,0.022
0.531,0.059
0.532,0.099
0.533,0.144
0.534,0.200
0.535,0.253
0.536,0.309
0.537,0.359
0.538,0.402
0.539,0.447
0.540,0.508
0.541,0.575
0.542,0.650
0.543,0.725
0.544,0.797
0.545,0.856
0.546,0.914
0.547,0.972
0.548,1.025
0.549,1.075
0.550,1.109
0.551,1.119
0.552,1.120
0.553,1.109
0.554,1.079
0.555,1.028
0.556,0.959
0.557,0.888
0.558,0.817
0.559,0.750
0.560,0.678
0.561,0.616
0.562,0.558
0.563,0.497
0.564,0.428
0.565,0.366
0.566,0.296
0.567,0.228
0.568,0.164
0.569,0.106
0.570,0.066
0.571,0.041
0.572,0.023
0.573,0.022
0.574,0.023
0.575,0.025
0.576,0.016
0.577,-0.003
0.578,-0.016
0.579,-0.034
0.580,-0.050
0.581,-0.059
0.582,-0.070
0.583,-0.075
0.584,-0.081
0.585,-0.088
0.586,-0.094
0.587,-0.091
0.588,-0.084
0.589,-0.081
0.590,-0.078
0.591,-0.075
0.592,-0.072
0.593,-0.072
0.594,-0.071
0.595,-0.069
0.596,-0.062
0.597,-0.059
0.598,-0.053
0.599,-0.053
0.600,-0.052
0.601,-0.050
0.602,-0.051
0.603,-0.053
0.604,-0.056
0.605,-0.062
0.606,-0.069
0.607,-0.069
0.608,-0.071
0.609,-0.069
0.610,-0.074
0.611,-0.072
0.612,-0.072
0.613,-0.072
0.614,-0.072
0.615,-0.075
0.616,-0.075
0.617,-0.075
0.618,-0.075
0.619,-0.078
0.620,-0.075
0.621,-0.075
0.622,-0.075
0.623,-0.075
0.624,-0.079
0.625,-0.081
0.626,-0.082
0.627,-0.084
0.628,-0.084
0.629,-0.084
0.630,-0.083
0.631,-0.081
0.632,-0.078
0.633,-0.075
0.634,-0.076
0.635,-0.078
0.636,-0.078
0.637,-0.078
0.638,-0.076
0.639,-0.078
0.640,-0.082
0.641,-0.081
0.642,-0.080
0.643,-0.081
0.644,-0.082
0.645,-0.088
0.646,-0.086
0.647,-0.084
0.648,-0.080
0.649,-0.078
0.650,-0.077
0.651,-0.075
0.652,-0.078
0.653,-0.081
0.654,-0.081
0.655,-0.084
0.656,-0.083
0.657,-0.081
0.658,-0.080
0.659,-0.081
0.660,-0.078
0.661,-0.081
0.662,-0.082
0.663,-0.084
0.664,-0.084
0.665,-0.081
0.666,-0.078
0.667,-0.075
0.668,-0.076
0.669,-0.078
0.670,-0.081
0.671,-0.084
0.672,-0.084
0.673,-0.084
0.674,-0.081
0.675,-0.084
0.676,-0.086
0.677,-0.088
0.678,-0.086
0.679,-0.088
0.680,-0.084
0.681,-0.081
0.682,-0.083
0.683,-0.081
0.684,-0.082
0.685,-0.084
0.686,-0.081
0.687,-0.075
0.688,-0.075
0.689,-0.075
0.690,-0.076
0.691,-0.078
0.692,-0.079
0.693,-0.081
0.694,-0.081
0.695,-0.081
0.696,-0.081
0.697,-0.081
0.698,-0.081
0.699,-0.081
0.700,-0.078
0.701,-0.075
0.702,-0.075
0.703,-0.072
0.704,-0.072
0.705,-0.075
0.706,-0.073
0.707,-0.075
0.708,-0.075
0.709,-0.075
0.710,-0.075
0.711,-0.075
0.712,-0.073
0.713,-0.075
0.714,-0.075
0.715,-0.075
0.716,-0.075
0.717,-0.072
0.718,-0.072
0.719,-0.072
0.720,-0.072
0.721,-0.069
0.722,-0.073
0.723,-0.072
0.724,-0.071
0.725,-0.069
0.726,-0.066
0.727,-0.066
0.728,-0.069
0.729,-0.069
0.730,-0.070
0.731,-0.069
0.732,-0.073
0.733,-0.072
0.734,-0.072
0.735,-0.072
0.736,-0.072
0.737,-0.072
0.738,-0.072
0.739,-0.072
0.740,-0.071
0.741,-0.069
0.742,-0.066
0.743,-0.066
0.744,-0.064
0.745,-0.066
0.746,-0.062
0.747,-0.066
0.748,-0.061
0.749,-0.053
0.750,-0.054
0.751,-0.056
0.752,-0.056
0.753,-0.059
0.754,-0.059
0.755,-0.056
0.756,-0.058
0.757,-0.053
0.758,-0.055
0.759,-0.050
0.760,-0.050
0.761,-0.050
0.762,-0.050
0.763,-0.050
0.764,-0.051
0.765,-0.053
0.766,-0.050
0.767,-0.044
0.768,-0.044
0.769,-0.044
0.770,-0.047
0.771,-0.050
0.772,-0.049
0.773,-0.050
0.774,-0.050
0.775,-0.050
0.776,-0.051
0.777,-0.050
0.778,-0.050
0.779,-0.050
0.780,-0.050
0.781,-0.053
0.782,-0.050
0.783,-0.047
0.784,-0.042
0.785,-0.041
0.786,-0.042
0.787,-0.041
0.788,-0.045
0.789,-0.044
0.790,-0.044
0.791,-0.044
0.792,-0.048
0.793,-0.050
0.794,-0.053
0.795,-0.056
0.796,-0.047
0.797,-0.047
0.798,-0.049
0.799,-0.044
0.800,-0.047
0.801,-0.047
0.802,-0.048
0.803,-0.050
0.804,-0.050
0.805,-0.050
0.806,-0.050
0.807,-0.050
0.808,-0.051
0.809,-0.050
0.810,-0.049
0.811,-0.050
0.812,-0.050
0.813,-0.050
0.814,-0.047
0.815,-0.044
0.816,-0.042
0.817,-0.041
0.818,-0.042
0.819,-0.044
0.820,-0.047
0.821,-0.047
0.822,-0.044
0.823,-0.041
0.824,-0.038
0.825,-0.038
0.826,-0.036
0.827,-0.038
0.828,-0.039
0.829,-0.041
0.830,-0.039
0.831,-0.041
0.832,-0.038
0.833,-0.034
0.834,-0.031
0.835,-0.034
0.836,-0.034
0.837,-0.034
0.838,-0.034
0.839,-0.034
0.840,-0.034
0.841,-0.031
0.842,-0.028
0.843,-0.028
0.844,-0.029
0.845,-0.028
0.846,-0.028
0.847,-0.028
0.848,-0.027
0.849,-0.022
0.850,-0.023
0.851,-0.022
0.852,-0.025
0.853,-0.022
0.854,-0.022
0.855,-0.022
0.856,-0.023
0.857,-0.019
0.858,-0.012
0.859,-0.009
0.860,-0.011
0.861,-0.009
0.862,-0.002
0.863,0.003
0.864,0.006
0.865,0.006
0.866,0.009
0.867,0.009
0.868,0.012
0.869,0.012
0.870,0.014
0.871,0.016
0.872,0.020
0.873,0.025
0.874,0.025
0.875,0.025
0.876,0.027
0.877,0.025
0.878,0.027
0.879,0.028
0.880,0.029
0.881,0.034
0.882,0.039
0.883,0.044
0.884,0.042
0.885,0.044
0.886,0.042
0.887,0.044
0.888,0.045
0.889,0.047
0.890,0.054
0.891,0.059
0.892,0.056
0.893,0.056
0.894,0.055
0.895,0.053
0.896,0.058
0.897,0.062
0.898,0.058
0.899,0.056
0.900,0.059
0.901,0.059
0.902,0.059
0.903,0.059
0.904,0.058
0.905,0.056
0.906,0.056
0.907,0.056
0.908,0.053
0.909,0.053
0.910,0.051
0.911,0.050
0.912,0.050
0.913,0.050
0.914,0.049
0.915,0.047
0.916,0.048
0.917,0.047
0.918,0.042
0.919,0.038
0.920,0.039
0.921,0.038
0.922,0.042
0.923,0.038
0.924,0.042
0.925,0.038
0.926,0.039
0.927,0.038
0.928,0.036
0.929,0.028
0.930,0.028
0.931,0.028
0.932,0.024
0.933,0.022
0.934,0.019
0.935,0.019
0.936,0.019
0.937,0.019
0.938,0.014
0.939,0.012
0.940,0.008
0.941,0.009
0.942,0.014
0.943,0.012
0.944,0.012
0.945,0.012
0.946,0.014
0.947,0.016
0.948,0.012
0.949,0.012
0.950,0.014
0.951,0.016
0.952,0.012
0.953,0.012
0.954,0.012
0.955,0.012
0.956,0.011
0.957,0.009
0.958,0.009
0.959,0.009
0.960,0.009
0.961,0.009
0.962,0.009
0.963,0.009
0.964,0.008
0.965,0.006
0.966,0.009
0.967,0.009
0.968,0.009
0.969,0.009
0.970,0.009
0.971,0.009
0.972,0.009
0.973,0.009
0.974,0.008
0.975,0.006
0.976,0.008
0.977,0.006
0.978,0.009
0.979,0.009
0.980,0.008
0.981,0.006
0.982,0.009
0.983,0.012
0.984,0.009
0.985,0.006
0.986,0.009
0.987,0.009
0.988,0.009
0.989,0.012
0.990,0.012
0.991,0.012
0.992,0.011
0.993,0.009
0.994,0.009
0.995,0.009
0.996,0.009
0.997,0.006
0.998,0.006
0.999,0.006
1.000,0.008
1.001,0.009
1.002,0.009
1.003,0.009
1.004,0.011
1.005,0.012
1.006,0.009
1.007,0.009
1.008,0.012
1.009,0.012
1.010,0.009
1.011,0.009
1.012,0.009
1.013,0.009
1.014,0.008
1.015,0.006
1.016,0.008
1.017,0.009
1.018,0.006
1.019,0.006
1.020,0.006
1.021,0.006
1.022,0.006
1.023,0.006
1.024,0.008
1.025,0.006
1.026,0.006
1.027,0.003
1.028,0.002
1.029,0.000
1.030,0.003
1.031,0.003
1.032,0.003
1.033,0.003
1.034,0.000
1.035,0.000
1.036,0.004
1.037,0.003
1.038,0.002
1.039,0.000
1.040,-0.003
1.041,-0.006
1.042,-0.008
1.043,-0.006
1.044,-0.005
1.045,-0.006
1.046,-0.006
1.047,-0.006
1.048,-0.011
1.049,-0.009
1.050,-0.009
1.051,-0.012
1.052,-0.014
1.053,-0.016
1.054,-0.012
1.055,-0.009
1.056,-0.014
1.057,-0.012
1.058,-0.011
1.059,-0.012
1.060,-0.012
1.061,-0.012
1.062,-0.014
1.063,-0.019
1.064,-0.022
1.065,-0.025
1.066,-0.028
1.067,-0.025
1.068,-0.024
1.069,-0.019
1.070,-0.020
1.071,-0.022
1.072,-0.023
1.073,-0.025
1.074,-0.026
1.075,-0.028
1.076,-0.031
1.077,-0.031
1.078,-0.031
1.079,-0.031
1.080,-0.030
1.081,-0.031
1.082,-0.028
1.083,-0.028
1.084,-0.027
1.085,-0.028
1.086,-0.028
1.087,-0.028
1.088,-0.027
1.089,-0.028
1.090,-0.029
1.091,-0.031
1.092,-0.031
1.093,-0.031
1.094,-0.031
1.095,-0.031
1.096,-0.032
1.097,-0.034
1.098,-0.038
1.099,-0.044
1.100,-0.042
1.101,-0.044
1.102,-0.042
1.103,-0.041
1.104,-0.044
1.105,-0.044
1.106,-0.042
1.107,-0.044
1.108,-0.042
1.109,-0.044
1.110,-0.046
1.111,-0.041
1.112,-0.042
1.113,-0.041
1.114,-0.042
1.115,-0.044
1.116,-0.044
1.117,-0.044
1.118,-0.045
1.119,-0.047
1.120,-0.046
1.121,-0.044
1.122,-0.041
1.123,-0.038
1.124,-0.034
1.125,-0.031
1.126,-0.032
1.127,-0.034
1.128,-0.034
1.129,-0.038
1.130,-0.038
1.131,-0.038
1.132,-0.036
1.133,-0.034
1.134,-0.038
1.135,-0.038
1.136,-0.036
1.137,-0.038
1.138,-0.038
1.139,-0.038
1.140,-0.039
1.141,-0.041
1.142,-0.038
1.143,-0.034
1.144,-0.038
1.145,-0.038
1.146,-0.042
1.147,-0.044
1.148,-0.047
1.149,-0.047
1.150,-0.047
1.151,-0.047
1.152,-0.047
1.153,-0.044
1.154,-0.048
1.155,-0.047
1.156,-0.048
1.157,-0.050
1.158,-0.050
1.159,-0.047
1.160,-0.050
1.161,-0.050
1.162,-0.050
1.163,-0.050
1.164,-0.050
1.165,-0.050
1.166,-0.052
1.167,-0.050
1.168,-0.050
1.169,-0.050
1.170,-0.050
1.171,-0.050
1.172,-0.050
1.173,-0.050
1.174,-0.048
1.175,-0.053
1.176,-0.050
1.177,-0.053
1.178,-0.052
1.179,-0.050
1.180,-0.054
1.181,-0.056
1.182,-0.053
1.183,-0.056
1.184,-0.055
1.185,-0.050
1.186,-0.050
1.187,-0.053
1.188,-0.050
1.189,-0.050
1.190,-0.050
1.191,-0.050
1.192,-0.050
1.193,-0.047
1.194,-0.047
1.195,-0.047
1.196,-0.050
1.197,-0.050
1.198,-0.053
1.199,-0.053
1.200,-0.050
1.201,-0.050
1.202,-0.052
1.203,-0.053
1.204,-0.052
1.205,-0.050
1.206,-0.051
1.207,-0.050
1.208,-0.053
1.209,-0.053
1.210,-0.052
1.211,-0.050
1.212,-0.047
1.213,-0.047
1.214,-0.051
1.215,-0.053
1.216,-0.050
1.217,-0.053
1.218,-0.053
1.219,-0.053
1.220,-0.051
1.221,-0.050
1.222,-0.054
1.223,-0.056
1.224,-0.056
1.225,-0.053
1.226,-0.053
1.227,-0.053
1.228,-0.054
1.229,-0.056
1.230,-0.058
1.231,-0.059
1.232,-0.062
1.233,-0.066
1.234,-0.062
1.235,-0.059
1.236,-0.059
1.237,-0.053
1.238,-0.053
1.239,-0.053
1.240,-0.053
1.241,-0.053
1.242,-0.056
1.243,-0.056
1.244,-0.055
1.245,-0.050
1.246,-0.050
1.247,-0.050
1.248,-0.051
1.249,-0.053
1.250,-0.053
1.251,-0.053
1.252,-0.053
1.253,-0.053
1.254,-0.053
1.255,-0.050
1.256,-0.050
1.257,-0.050
1.258,-0.051
1.259,-0.053
1.260,-0.049
1.261,-0.050
1.262,-0.047
1.263,-0.047
1.264,-0.042
1.265,-0.038
1.266,-0.036
1.267,-0.031
1.268,-0.025
1.269,-0.019
1.270,-0.012
1.271,-0.009
1.272,-0.004
1.273,-0.003
1.274,0.001
1.275,0.006
1.276,0.011
1.277,0.016
1.278,0.016
1.279,0.016
1.280,0.021
1.281,0.022
1.282,0.028
1.283,0.031
1.284,0.030
1.285,0.028
1.286,0.029
1.287,0.028
1.288,0.025
1.289,0.025
1.290,0.028
1.291,0.028
1.292,0.034
1.293,0.038
1.294,0.041
1.295,0.050
1.296,0.053
1.297,0.056
1.298,0.056
1.299,0.059
1.300,0.061
1.301,0.062
1.302,0.070
1.303,0.081
1.304,0.083
1.305,0.091
1.306,0.091
1.307,0.094
1.308,0.091
1.309,0.084
1.310,0.081
1.311,0.078
1.312,0.075
1.313,0.069
1.314,0.066
1.315,0.066
1.316,0.059
1.317,0.053
1.318,0.046
1.319,0.041
1.320,0.039
1.321,0.038
1.322,0.034
1.323,0.034
1.324,0.030
1.325,0.025
1.326,0.021
1.327,0.009
1.328,0.006
1.329,0.000
1.330,-0.005
1.331,-0.009
1.332,-0.017
1.333,-0.022
1.334,-0.028
1.335,-0.028
1.336,-0.027
1.337,-0.028
1.338,-0.028
1.339,-0.028
1.340,-0.034
1.341,-0.041
1.342,-0.041
1.343,-0.044
1.344,-0.042
1.345,-0.044
1.346,-0.047
1.347,-0.050
1.348,-0.053
1.349,-0.059
1.350,-0.059
1.351,-0.062
1.352,-0.064
1.353,-0.066
1.354,-0.070
1.355,-0.072
1.356,-0.075
1.357,-0.075
1.358,-0.074
1.359,-0.075
1.360,-0.071
1.361,-0.066
1.362,-0.066
1.363,-0.066
1.364,-0.067
1.365,-0.069
1.366,-0.073
1.367,-0.078
1.368,-0.078
1.369,-0.081
1.370,-0.081
1.371,-0.081
1.372,-0.077
1.373,-0.075
1.374,-0.072
1.375,-0.072
1.376,-0.076
1.377,-0.075
1.378,-0.079
1.379,-0.081
1.380,-0.080
1.381,-0.078
1.382,-0.082
1.383,-0.081
1.384,-0.084
1.385,-0.091
1.386,-0.088
1.387,-0.091
1.388,-0.086
1.389,-0.084
1.390,-0.088
1.391,-0.088
1.392,-0.088
1.393,-0.088
1.394,-0.083
1.395,-0.078
1.396,-0.080
1.397,-0.078
1.398,-0.084
1.399,-0.088
1.400,-0.095
1.401,-0.100
1.402,-0.104
1.403,-0.116
1.404,-0.125
1.405,-0.134
1.406,-0.139
1.407,-0.144
1.408,-0.147
1.409,-0.147
1.410,-0.133
1.411,-0.122
1.412,-0.112
1.413,-0.100
1.414,-0.081
1.415,-0.056
1.416,-0.034
1.417,-0.003
1.418,0.029
1.419,0.066
1.420,0.108
1.421,0.156
1.422,0.209
1.423,0.259
1.424,0.320
1.425,0.375
1.426,0.429
1.427,0.488
1.428,0.547
1.429,0.612
1.430,0.686
1.431,0.759
1.432,0.830
1.433,0.888
1.434,0.938
1.435,0.988
1.436,1.034
1.437,1.078
1.438,1.111
1.439,1.119
1.440,1.111
1.441,1.091
1.442,1.049
1.443,0.984
1.444,0.919
1.445,0.850
1.446,0.777
1.447,0.706
1.448,0.639
1.449,0.581
1.450,0.519
1.451,0.453
1.452,0.378
1.453,0.309
1.454,0.239
1.455,0.172
1.456,0.114
1.457,0.062
1.458,0.028
1.459,0.009
1.460,-0.005
1.461,-0.003
1.462,-0.004
1.463,-0.006
1.464,-0.012
1.465,-0.028
1.466,-0.041
1.467,-0.059
1.468,-0.074
1.469,-0.081
1.470,-0.091
1.471,-0.094
1.472,-0.097
1.473,-0.100
1.474,-0.102
1.475,-0.094
1.476,-0.091
1.477,-0.091
1.478,-0.088
1.479,-0.084
1.480,-0.081
1.481,-0.081
1.482,-0.082
1.483,-0.084
1.484,-0.077
1.485,-0.072
1.486,-0.067
1.487,-0.069
1.488,-0.069
1.489,-0.069
1.490,-0.069
1.491,-0.069
1.492,-0.068
1.493,-0.069
1.494,-0.074
1.495,-0.072
1.496,-0.074
1.497,-0.072
1.498,-0.081
1.499,-0.084
1.500,-0.086
1.501,-0.088
1.502,-0.084
1.503,-0.084
1.504,-0.081
1.505,-0.078
1.506,-0.076
1.507,-0.078
1.508,-0.077
1.509,-0.078
1.510,-0.079
1.511,-0.081
1.512,-0.084
1.513,-0.084
1.514,-0.084
1.515,-0.084
1.516,-0.086
1.517,-0.088
1.518,-0.088
1.519,-0.088
1.520,-0.086
1.521,-0.084
1.522,-0.086
1.523,-0.088
1.524,-0.084
1.525,-0.081
1.526,-0.079
1.527,-0.081
1.528,-0.084
1.529,-0.081
1.530,-0.080
1.531,-0.081
1.532,-0.081
1.533,-0.084
1.534,-0.084
1.535,-0.084
1.536,-0.082
1.537,-0.084
1.538,-0.083
1.539,-0.081
1.540,-0.084
1.541,-0.088
1.542,-0.084
1.543,-0.084
1.544,-0.086
1.545,-0.088
1.546,-0.086
1.547,-0.088
1.548,-0.084
1.549,-0.088
1.550,-0.089
1.551,-0.091
1.552,-0.092
1.553,-0.091
1.554,-0.089
1.555,-0.088
1.556,-0.089
1.557,-0.091
1.558,-0.088
1.559,-0.084
1.560,-0.086
1.561,-0.088
1.562,-0.084
1.563,-0.088
1.564,-0.086
1.565,-0.084
1.566,-0.082
1.567,-0.084
1.568,-0.081
1.569,-0.078
1.570,-0.081
1.571,-0.081
1.572,-0.081
1.573,-0.081
1.574,-0.084
1.575,-0.084
1.576,-0.081
1.577,-0.078
1.578,-0.077
1.579,-0.075
1.580,-0.075
1.581,-0.075
1.582,-0.078
1.583,-0.081
1.584,-0.081
1.585,-0.081
1.586,-0.080
1.587,-0.078
1.588,-0.079
1.589,-0.081
1.590,-0.082
1.591,-0.081
1.592,-0.080
1.593,-0.081
1.594,-0.078
1.595,-0.078
1.596,-0.078
1.597,-0.078
1.598,-0.081
1.599,-0.084
1.600,-0.081
1.601,-0.081
1.602,-0.078
1.603,-0.075
1.604,-0.075
1.605,-0.072
1.606,-0.072
1.607,-0.072
1.608,-0.075
1.609,-0.075
1.610,-0.078
1.611,-0.075
1.612,-0.074
1.613,-0.072
1.614,-0.069
1.615,-0.069
1.616,-0.072
1.617,-0.072
1.618,-0.073
1.619,-0.072
1.620,-0.075
1.621,-0.072
1.622,-0.072
1.623,-0.072
1.624,-0.073
1.625,-0.075
1.626,-0.072
1.627,-0.069
1.628,-0.070
1.629,-0.072
1.630,-0.068
1.631,-0.066
1.632,-0.066
1.633,-0.069
1.634,-0.066
1.635,-0.069
1.636,-0.070
1.637,-0.069
1.638,-0.069
1.639,-0.069
1.640,-0.064
1.641,-0.062
1.642,-0.061
1.643,-0.056
1.644,-0.059
1.645,-0.056
1.646,-0.059
1.647,-0.056
1.648,-0.056
1.649,-0.056
1.650,-0.056
1.651,-0.056
1.652,-0.056
1.653,-0.056
1.654,-0.055
1.655,-0.050
1.656,-0.051
1.657,-0.053
1.658,-0.053
1.659,-0.053
1.660,-0.052
1.661,-0.053
1.662,-0.056
1.663,-0.059
1.664,-0.058
1.665,-0.053
1.666,-0.053
1.667,-0.053
1.668,-0.058
1.669,-0.066
1.670,-0.067
1.671,-0.069
1.672,-0.066
1.673,-0.066
1.674,-0.062
1.675,-0.056
1.676,-0.059
1.677,-0.056
1.678,-0.055
1.679,-0.053
1.680,-0.053
1.681,-0.050
1.682,-0.050
1.683,-0.050
1.684,-0.044
1.685,-0.047
1.686,-0.053
1.687,-0.053
1.688,-0.058
1.689,-0.059
1.690,-0.056
1.691,-0.053
1.692,-0.052
1.693,-0.050
1.694,-0.050
1.695,-0.050
1.696,-0.053
1.697,-0.053
1.698,-0.052
1.699,-0.053
1.700,-0.053
1.701,-0.053
1.702,-0.054
1.703,-0.056
1.704,-0.056
1.705,-0.056
1.706,-0.056
1.707,-0.056
1.708,-0.058
1.709,-0.056
1.710,-0.058
1.711,-0.059
1.712,-0.056
1.713,-0.056
1.714,-0.055
1.715,-0.056
1.716,-0.056
1.717,-0.056
1.718,-0.052
1.719,-0.050
1.720,-0.051
1.721,-0.053
1.722,-0.050
1.723,-0.053
1.724,-0.053
1.725,-0.053
1.726,-0.052
1.727,-0.050
1.728,-0.053
1.729,-0.053
1.730,-0.047
1.731,-0.044
1.732,-0.045
1.733,-0.044
1.734,-0.044
1.735,-0.044
1.736,-0.041
1.737,-0.034
1.738,-0.036
1.739,-0.034
1.740,-0.034
1.741,-0.028
1.742,-0.025
1.743,-0.022
1.744,-0.022
1.745,-0.016
1.746,-0.012
1.747,-0.012
1.748,-0.014
1.749,-0.012
1.750,-0.011
1.751,-0.012
1.752,-0.012
1.753,-0.016
1.754,-0.014
1.755,-0.016
1.756,-0.009
1.757,-0.006
1.758,-0.003
1.759,0.000
1.760,0.004
1.761,0.009
1.762,0.011
1.763,0.012
1.764,0.014
1.765,0.012
1.766,0.020
1.767,0.028
1.768,0.031
1.769,0.038
1.770,0.041
1.771,0.044
1.772,0.044
1.773,0.047
1.774,0.044
1.775,0.044
1.776,0.045
1.777,0.047
1.778,0.050
1.779,0.050
1.780,0.047
1.781,0.047
1.782,0.050
1.783,0.053
1.784,0.056
1.785,0.059
1.786,0.056
1.787,0.056
1.788,0.059
1.789,0.059
1.790,0.061
1.791,0.062
1.792,0.062
1.793,0.062
1.794,0.064
1.795,0.066
1.796,0.062
1.797,0.062
1.798,0.058
1.799,0.053
1.800,0.050
1.801,0.047
1.802,0.046
1.803,0.044
1.804,0.047
1.805,0.047
1.806,0.045
1.807,0.044
1.808,0.044
1.809,0.041
1.810,0.044
1.811,0.038
1.812,0.041
1.813,0.034
1.814,0.034
1.815,0.031
1.816,0.034
1.817,0.031
1.818,0.032
1.819,0.034
1.820,0.030
1.821,0.028
1.822,0.024
1.823,0.022
1.824,0.023
1.825,0.025
1.826,0.023
1.827,0.025
1.828,0.021
1.829,0.022
1.830,0.026
1.831,0.025
1.832,0.024
1.833,0.022
1.834,0.022
1.835,0.022
1.836,0.018
1.837,0.016
1.838,0.017
1.839,0.019
1.840,0.017
1.841,0.019
1.842,0.018
1.843,0.016
1.844,0.014
1.845,0.012
1.846,0.012
1.847,0.012
1.848,0.012
1.849,0.012
1.850,0.012
1.851,0.012
1.852,0.011
1.853,0.009
1.854,0.009
1.855,0.006
1.856,0.006
1.857,0.006
1.858,0.006
1.859,0.006
1.860,0.006
1.861,0.006
1.862,0.006
1.863,0.006
1.864,0.009
1.865,0.009
1.866,0.011
1.867,0.009
1.868,0.009
1.869,0.009
1.870,0.011
1.871,0.012
1.872,0.012
1.873,0.012
1.874,0.014
1.875,0.012
1.876,0.009
1.877,0.009
1.878,0.009
1.879,0.009
1.880,0.009
1.881,0.009
1.882,0.008
1.883,0.006
1.884,0.009
1.885,0.009
1.886,0.009
1.887,0.009
1.888,0.009
1.889,0.009
1.890,0.009
1.891,0.009
1.892,0.009
1.893,0.009
1.894,0.005
1.895,0.003
1.896,0.006
1.897,0.006
1.898,0.003
1.899,0.003
1.900,0.003
1.901,0.003
1.902,0.002
1.903,0.000
1.904,0.001
1.905,0.003
1.906,0.000
1.907,0.000
1.908,0.000
1.909,0.000
1.910,0.000
1.911,0.000
1.912,0.000
1.913,-0.003
1.914,-0.003
1.915,-0.006
1.916,-0.006
1.917,-0.006
1.918,-0.004
1.919,-0.006
1.920,-0.006
1.921,-0.006
1.922,-0.011
1.923,-0.012
1.924,-0.009
1.925,-0.012
1.926,-0.012
1.927,-0.012
1.928,-0.011
1.929,-0.009
1.930,-0.012
1.931,-0.012
1.932,-0.011
1.933,-0.012
1.934,-0.012
1.935,-0.012
1.936,-0.014
1.937,-0.009
1.938,-0.008
1.939,-0.009
1.940,-0.011
1.941,-0.012
1.942,-0.012
1.943,-0.012
1.944,-0.017
1.945,-0.016
1.946,-0.014
1.947,-0.016
1.948,-0.016
1.949,-0.016
1.950,-0.016
1.951,-0.019
1.952,-0.020
1.953,-0.022
1.954,-0.024
1.955,-0.019
1.956,-0.022
1.957,-0.022
1.958,-0.023
1.959,-0.025
1.960,-0.026
1.961,-0.028
1.962,-0.028
1.963,-0.028
1.964,-0.031
1.965,-0.031
1.966,-0.030
1.967,-0.028
1.968,-0.028
1.969,-0.031
1.970,-0.029
1.971,-0.031
1.972,-0.030
1.973,-0.031
1.974,-0.031
1.975,-0.031
1.976,-0.028
1.977,-0.028
1.978,-0.029
1.979,-0.031
1.980,-0.032
1.981,-0.034
1.982,-0.033
1.983,-0.031
1.984,-0.031
1.985,-0.031
1.986,-0.030
1.987,-0.031
1.988,-0.029
1.989,-0.031
1.990,-0.031
1.991,-0.031
1.992,-0.033
1.993,-0.031
1.994,-0.031
1.995,-0.034
1.996,-0.032
1.997,-0.034
1.998,-0.038
1.999,-0.034
2.000,-0.039
2.001,-0.041
2.002,-0.041
2.003,-0.041
2.004,-0.041
2.005,-0.041
2.006,-0.042
2.007,-0.044
2.008,-0.041
2.009,-0.038
2.010,-0.038
2.011,-0.038
2.012,-0.039
2.013,-0.041
2.014,-0.041
2.015,-0.041
2.016,-0.039
2.017,-0.041
2.018,-0.042
2.019,-0.044
2.020,-0.044
2.021,-0.044
2.022,-0.047
2.023,-0.047
2.024,-0.045
2.025,-0.047
2.026,-0.046
2.027,-0.044
2.028,-0.042
2.029,-0.041
2.030,-0.039
2.031,-0.038
2.032,-0.041
2.033,-0.041
2.034,-0.044
2.035,-0.044
2.036,-0.046
2.037,-0.044
2.038,-0.045
2.039,-0.047
2.040,-0.048
2.041,-0.047
2.042,-0.051
2.043,-0.050
2.044,-0.049
2.045,-0.047
2.046,-0.046
2.047,-0.041
2.048,-0.042
2.049,-0.041
2.050,-0.042
2.051,-0.047
2.052,-0.049
2.053,-0.047
2.054,-0.048
2.055,-0.050
2.056,-0.047
2.057,-0.050
2.058,-0.050
2.059,-0.050
2.060,-0.050
2.061,-0.047
2.062,-0.046
2.063,-0.047
2.064,-0.048
2.065,-0.047
2.066,-0.051
2.067,-0.053
2.068,-0.052
2.069,-0.047
2.070,-0.044
2.071,-0.047
2.072,-0.047
2.073,-0.050
2.074,-0.050
2.075,-0.050
2.076,-0.050
2.077,-0.050
2.078,-0.050
2.079,-0.050
2.080,-0.051
2.081,-0.053
2.082,-0.053
2.083,-0.053
2.084,-0.052
2.085,-0.053
2.086,-0.051
2.087,-0.053
2.088,-0.053
2.089,-0.053
2.090,-0.052
2.091,-0.053
2.092,-0.053
2.093,-0.053
2.094,-0.051
2.095,-0.053
2.096,-0.053
2.097,-0.053
2.098,-0.052
2.099,-0.050
2.100,-0.051
2.101,-0.053
2.102,-0.052
2.103,-0.050
2.104,-0.047
2.105,-0.047
2.106,-0.048
2.107,-0.050
2.108,-0.049
2.109,-0.044
2.110,-0.044
2.111,-0.038
2.112,-0.036
2.113,-0.031
2.114,-0.022
2.115,-0.016
2.116,-0.016
2.117,-0.012
2.118,-0.011
2.119,-0.006
2.120,-0.003
2.121,0.000
2.122,0.003
2.123,0.006
2.124,0.011
2.125,0.016
2.126,0.019
2.127,0.022
2.128,0.026
2.129,0.034
2.130,0.034
2.131,0.034
2.132,0.034
2.133,0.034
2.134,0.033
2.135,0.031
2.136,0.028
2.137,0.028
2.138,0.038
2.139,0.044
2.140,0.039
2.141,0.041
2.142,0.044
2.143,0.047
2.144,0.052
2.145,0.056
2.146,0.059
2.147,0.059
2.148,0.066
2.149,0.066
2.150,0.069
2.151,0.072
2.152,0.076
2.153,0.081
2.154,0.086
2.155,0.084
2.156,0.088
2.157,0.088
2.158,0.086
2.159,0.084
2.160,0.086
2.161,0.084
2.162,0.078
2.163,0.072
2.164,0.072
2.165,0.069
2.166,0.059
2.167,0.050
2.168,0.047
2.169,0.044
2.170,0.045
2.171,0.044
2.172,0.039
2.173,0.034
2.174,0.028
2.175,0.022
2.176,0.011
2.177,0.006
2.178,-0.001
2.179,-0.009
2.180,-0.016
2.181,-0.022
2.182,-0.022
2.183,-0.025
2.184,-0.022
2.185,-0.019
2.186,-0.022
2.187,-0.022
2.188,-0.025
2.189,-0.031
2.190,-0.041
2.191,-0.050
2.192,-0.055
2.193,-0.053
2.194,-0.055
2.195,-0.056
2.196,-0.059
2.197,-0.059
2.198,-0.061
2.199,-0.059
2.200,-0.059
2.201,-0.059
2.202,-0.064
2.203,-0.069
2.204,-0.068
2.205,-0.069
2.206,-0.068
2.207,-0.066
2.208,-0.068
2.209,-0.066
2.210,-0.067
2.211,-0.069
2.212,-0.069
2.213,-0.069
2.214,-0.069
2.215,-0.069
2.216,-0.069
2.217,-0.069
2.218,-0.072
2.219,-0.072
2.220,-0.073
2.221,-0.072
2.222,-0.071
2.223,-0.069
2.224,-0.069
2.225,-0.069
2.226,-0.066
2.227,-0.066
2.228,-0.066
2.229,-0.069
2.230,-0.069
2.231,-0.072
2.232,-0.070
2.233,-0.072
2.234,-0.075
2.235,-0.072
2.236,-0.076
2.237,-0.075
2.238,-0.074
2.239,-0.075
2.240,-0.078
2.241,-0.081
2.242,-0.081
2.243,-0.081
2.244,-0.080
2.245,-0.081
2.246,-0.078
2.247,-0.078
2.248,-0.081
2.249,-0.088
2.250,-0.091
2.251,-0.097
2.252,-0.105
2.253,-0.112
2.254,-0.121
2.255,-0.128
2.256,-0.136
2.257,-0.134
2.258,-0.132
2.259,-0.128
2.260,-0.125
2.261,-0.112
2.262,-0.094
2.263,-0.075
2.264,-0.049
2.265,-0.022
2.266,0.011
2.267,0.044
2.268,0.082
2.269,0.128
2.270,0.176
2.271,0.231
2.272,0.282
2.273,0.341
2.274,0.392
2.275,0.444
2.276,0.500
2.277,0.562
2.278,0.631
2.279,0.709
2.280,0.780
2.281,0.847
2.282,0.902
2.283,0.953
2.284,1.003
2.285,1.047
2.286,1.083
2.287,1.106
2.288,1.109
2.289,1.103
2.290,1.080
2.291,1.038
2.292,0.980
2.293,0.903
2.294,0.834
2.295,0.769
2.296,0.703
2.297,0.634
2.298,0.564
2.299,0.497
2.300,0.430
2.301,0.353
2.302,0.289
2.303,0.222
2.304,0.156
2.305,0.094
2.306,0.044
2.307,0.009
2.308,-0.011
2.309,-0.025
2.310,-0.031
2.311,-0.034
2.312,-0.030
2.313,-0.028
2.314,-0.038
2.315,-0.047
2.316,-0.062
2.317,-0.075
2.318,-0.083
2.319,-0.091
2.320,-0.095
2.321,-0.103
2.322,-0.108
2.323,-0.109
2.324,-0.108
2.325,-0.106
2.326,-0.100
2.327,-0.094
2.328,-0.091
2.329,-0.088
2.330,-0.086
2.331,-0.084
2.332,-0.083
2.333,-0.075
2.334,-0.069
2.335,-0.059
2.336,-0.058
2.337,-0.056
2.338,-0.056
2.339,-0.056
2.340,-0.059
2.341,-0.062
2.342,-0.064
2.343,-0.069
2.344,-0.068
2.345,-0.069
2.346,-0.066
2.347,-0.069
2.348,-0.069
2.349,-0.069
2.350,-0.068
2.351,-0.066
2.352,-0.072
2.353,-0.072
2.354,-0.070
2.355,-0.069
2.356,-0.069
2.357,-0.069
2.358,-0.072
2.359,-0.072
2.360,-0.071
2.361,-0.072
2.362,-0.072
2.363,-0.072
2.364,-0.072
2.365,-0.072
2.366,-0.072
2.367,-0.072
2.368,-0.072
2.369,-0.072
2.370,-0.071
2.371,-0.069
2.372,-0.069
2.373,-0.069
2.374,-0.072
2.375,-0.072
2.376,-0.075
2.377,-0.081
2.378,-0.078
2.379,-0.078
2.380,-0.081
2.381,-0.081
2.382,-0.083
2.383,-0.081
2.384,-0.081
2.385,-0.078
2.386,-0.078
2.387,-0.078
2.388,-0.078
2.389,-0.078
2.390,-0.075
2.391,-0.069
2.392,-0.069
2.393,-0.069
2.394,-0.070
2.395,-0.072
2.396,-0.075
2.397,-0.072
2.398,-0.074
2.399,-0.072
2.400,-0.071
2.401,-0.069
2.402,-0.067
2.403,-0.069
2.404,-0.070
2.405,-0.072
2.406,-0.071
2.407,-0.069
2.408,-0.069
2.409,-0.069
2.410,-0.070
2.411,-0.069
2.412,-0.072
2.413,-0.072
2.414,-0.073
2.415,-0.072
2.416,-0.071
2.417,-0.069
2.418,-0.068
2.419,-0.069
2.420,-0.070
2.421,-0.072
2.422,-0.072
2.423,-0.072
2.424,-0.068
2.425,-0.066
2.426,-0.066
2.427,-0.066
2.428,-0.066
2.429,-0.066
2.430,-0.067
2.431,-0.069
2.432,-0.069
2.433,-0.069
2.434,-0.069
2.435,-0.069
2.436,-0.069
2.437,-0.069
2.438,-0.070
2.439,-0.072
2.440,-0.069
2.441,-0.069
2.442,-0.073
2.443,-0.072
2.444,-0.072
2.445,-0.072
2.446,-0.072
2.447,-0.072
2.448,-0.073
2.449,-0.072
2.450,-0.072
2.451,-0.072
2.452,-0.071
2.453,-0.072
2.454,-0.072
2.455,-0.072
2.456,-0.073
2.457,-0.075
2.458,-0.069
2.459,-0.069
2.460,-0.067
2.461,-0.069
2.462,-0.069
2.463,-0.066
2.464,-0.064
2.465,-0.066
2.466,-0.066
2.467,-0.066
2.468,-0.059
2.469,-0.059
2.470,-0.056
2.471,-0.056
2.472,-0.056
2.473,-0.056
2.474,-0.056
2.475,-0.056
2.476,-0.056
2.477,-0.056
2.478,-0.056
2.479,-0.053
2.480,-0.052
2.481,-0.050
2.482,-0.054
2.483,-0.053
2.484,-0.056
2.485,-0.056
2.486,-0.054
2.487,-0.056
2.488,-0.055
2.489,-0.050
2.490,-0.050
2.491,-0.050
2.492,-0.047
2.493,-0.050
2.494,-0.051
2.495,-0.059
2.496,-0.058
2.497,-0.059
2.498,-0.053
2.499,-0.047
2.500,-0.047
2.501,-0.047
2.502,-0.048
2.503,-0.050
2.504,-0.048
2.505,-0.050
2.506,-0.049
2.507,-0.047
2.508,-0.047
2.509,-0.047
2.510,-0.050
2.511,-0.050
2.512,-0.049
2.513,-0.047
2.514,-0.044
2.515,-0.044
2.516,-0.041
2.517,-0.038
2.518,-0.042
2.519,-0.044
2.520,-0.048
2.521,-0.050
2.522,-0.050
2.523,-0.050
2.524,-0.047
2.525,-0.050
2.526,-0.048
2.527,-0.050
2.528,-0.049
2.529,-0.050
2.530,-0.050
2.531,-0.050
2.532,-0.051
2.533,-0.047
2.534,-0.049
2.535,-0.050
2.536,-0.047
2.537,-0.050
2.538,-0.050
2.539,-0.050
2.540,-0.051
2.541,-0.053
2.542,-0.053
2.543,-0.053
2.544,-0.053
2.545,-0.053
2.546,-0.050
2.547,-0.050
2.548,-0.053
2.549,-0.053
2.550,-0.050
2.551,-0.047
2.552,-0.047
2.553,-0.047
2.554,-0.048
2.555,-0.050
2.556,-0.051
2.557,-0.053
2.558,-0.051
2.559,-0.053
2.560,-0.053
2.561,-0.050
2.562,-0.050
2.563,-0.050
2.564,-0.053
2.565,-0.053
2.566,-0.053
2.567,-0.050
2.568,-0.051
2.569,-0.053
2.570,-0.052
2.571,-0.047
2.572,-0.049
2.573,-0.047
2.574,-0.046
2.575,-0.044
2.576,-0.042
2.577,-0.041
2.578,-0.039
2.579,-0.038
2.580,-0.034
2.581,-0.031
2.582,-0.028
2.583,-0.028
2.584,-0.028
2.585,-0.028
2.586,-0.026
2.587,-0.028
2.588,-0.026
2.589,-0.028
2.590,-0.022
2.591,-0.022
2.592,-0.023
2.593,-0.025
2.594,-0.019
2.595,-0.016
2.596,-0.014
2.597,-0.012
2.598,-0.009
2.599,-0.006
2.600,-0.008
2.601,-0.006
2.602,-0.005
2.603,0.000
2.604,-0.003
2.605,0.000
2.606,0.004
2.607,0.009
2.608,0.014
2.609,0.019
2.610,0.023
2.611,0.025
2.612,0.025
2.613,0.028
2.614,0.027
2.615,0.028
2.616,0.031
2.617,0.031
2.618,0.031
2.619,0.031
2.620,0.036
2.621,0.038
2.622,0.039
2.623,0.038
2.624,0.041
2.625,0.041
2.626,0.039
2.627,0.041
2.628,0.041
2.629,0.041
2.630,0.044
2.631,0.044
2.632,0.048
2.633,0.053
2.634,0.054
2.635,0.053
2.636,0.053
2.637,0.056
2.638,0.056
2.639,0.056
2.640,0.055
2.641,0.053
2.642,0.053
2.643,0.053
2.644,0.054
2.645,0.053
2.646,0.052
2.647,0.047
2.648,0.044
2.649,0.044
2.650,0.044
2.651,0.044
2.652,0.045
2.653,0.047
2.654,0.041
2.655,0.034
2.656,0.031
2.657,0.034
2.658,0.034
2.659,0.038
2.660,0.034
2.661,0.041
2.662,0.036
2.663,0.038
2.664,0.031
2.665,0.031
2.666,0.029
2.667,0.031
2.668,0.032
2.669,0.031
2.670,0.031
2.671,0.028
2.672,0.024
2.673,0.019
2.674,0.020
2.675,0.019
2.676,0.020
2.677,0.019
2.678,0.021
2.679,0.022
2.680,0.019
2.681,0.019
2.682,0.019
2.683,0.019
2.684,0.019
2.685,0.016
2.686,0.014
2.687,0.012
2.688,0.014
2.689,0.012
2.690,0.012
2.691,0.012
2.692,0.012
2.693,0.012
2.694,0.011
2.695,0.009
2.696,0.008
2.697,0.006
2.698,0.008
2.699,0.009
2.700,0.009
2.701,0.009
2.702,0.011
2.703,0.012
2.704,0.009
2.705,0.009
2.706,0.009
2.707,0.009
2.708,0.009
2.709,0.009
2.710,0.009
2.711,0.009
2.712,0.011
2.713,0.016
2.714,0.014
2.715,0.012
2.716,0.011
2.717,0.012
2.718,0.011
2.719,0.009
2.720,0.009
2.721,0.009
2.722,0.008
2.723,0.009
2.724,0.011
2.725,0.009
2.726,0.009
2.727,0.009
2.728,0.009
2.729,0.009
2.730,0.009
2.731,0.009
2.732,0.009
2.733,0.009
2.734,0.006
2.735,0.006
2.736,0.006
2.737,0.006
2.738,0.006
2.739,0.006
2.740,0.006
2.741,0.006
2.742,0.008
2.743,0.006
2.744,0.003
2.745,0.003
2.746,0.004
2.747,0.003
2.748,0.004
2.749,0.006
2.750,0.008
2.751,0.009
2.752,0.008
2.753,0.006
2.754,0.006
2.755,0.003
2.756,0.003
2.757,0.003
2.758,0.000
2.759,-0.003
2.760,0.000
2.761,0.003
2.762,0.000
2.763,0.000
2.764,-0.003
2.765,-0.003
2.766,0.000
2.767,0.006
2.768,0.006
2.769,0.006
2.770,0.006
2.771,0.003
2.772,-0.003
2.773,-0.006
2.774,-0.008
2.775,-0.006
2.776,-0.005
2.777,-0.003
2.778,-0.002
2.779,-0.003
2.780,-0.004
2.781,-0.006
2.782,-0.009
2.783,-0.009
2.784,-0.009
2.785,-0.012
2.786,-0.009
2.787,-0.009
2.788,-0.012
2.789,-0.012
2.790,-0.017
2.791,-0.022
2.792,-0.021
2.793,-0.022
2.794,-0.019
2.795,-0.019
2.796,-0.023
2.797,-0.025
2.798,-0.022
2.799,-0.019
2.800,-0.022
2.801,-0.022
2.802,-0.023
2.803,-0.028
2.804,-0.025
2.805,-0.028
2.806,-0.028
2.807,-0.028
2.808,-0.028
2.809,-0.028
2.810,-0.028
2.811,-0.028
2.812,-0.027
2.813,-0.028
2.814,-0.027
2.815,-0.025
2.816,-0.025
2.817,-0.025
2.818,-0.028
2.819,-0.025
2.820,-0.025
2.821,-0.025
2.822,-0.029
2.823,-0.031
2.824,-0.030
2.825,-0.028
2.826,-0.031
2.827,-0.031
2.828,-0.032
2.829,-0.034
2.830,-0.034
2.831,-0.034
2.832,-0.034
2.833,-0.034
2.834,-0.034
2.835,-0.034
2.836,-0.039
2.837,-0.038
2.838,-0.039
2.839,-0.041
2.840,-0.039
2.841,-0.041
2.842,-0.042
2.843,-0.044
2.844,-0.048
2.845,-0.047
2.846,-0.046
2.847,-0.047
2.848,-0.044
2.849,-0.047
2.850,-0.047
2.851,-0.047
2.852,-0.048
2.853,-0.050
2.854,-0.047
2.855,-0.044
2.856,-0.044
2.857,-0.044
2.858,-0.044
2.859,-0.044
2.860,-0.042
2.861,-0.041
2.862,-0.042
2.863,-0.044
2.864,-0.044
2.865,-0.044
2.866,-0.047
2.867,-0.047
2.868,-0.047
2.869,-0.047
2.870,-0.047
2.871,-0.050
2.872,-0.053
2.873,-0.053
2.874,-0.053
2.875,-0.053
2.876,-0.053
2.877,-0.053
2.878,-0.053
2.879,-0.053
2.880,-0.052
2.881,-0.053
2.882,-0.053
2.883,-0.053
2.884,-0.049
2.885,-0.050
2.886,-0.050
2.887,-0.050
2.888,-0.051
2.889,-0.053
2.890,-0.050
2.891,-0.053
2.892,-0.049
2.893,-0.047
2.894,-0.046
2.895,-0.044
2.896,-0.042
2.897,-0.047
2.898,-0.046
2.899,-0.044
2.900,-0.045
2.901,-0.047
2.902,-0.047
2.903,-0.050
2.904,-0.050
2.905,-0.050
2.906,-0.049
2.907,-0.047
2.908,-0.047
2.909,-0.047
2.910,-0.047
2.911,-0.044
2.912,-0.047
2.913,-0.044
2.914,-0.048
2.915,-0.050
2.916,-0.049
2.917,-0.050
2.918,-0.050
2.919,-0.050
2.920,-0.052
2.921,-0.053
2.922,-0.053
2.923,-0.053
2.924,-0.053
2.925,-0.050
2.926,-0.052
2.927,-0.050
2.928,-0.051
2.929,-0.053
2.930,-0.051
2.931,-0.053
2.932,-0.056
2.933,-0.056
2.934,-0.052
2.935,-0.053
2.936,-0.053
2.937,-0.053
2.938,-0.051
2.939,-0.050
2.940,-0.053
2.941,-0.053
2.942,-0.055
2.943,-0.053
2.944,-0.054
2.945,-0.056
2.946,-0.056
2.947,-0.056
2.948,-0.056
2.949,-0.056
2.950,-0.058
2.951,-0.059
2.952,-0.059
2.953,-0.059
2.954,-0.062
2.955,-0.059
2.956,-0.059
2.957,-0.059
2.958,-0.059
2.959,-0.059
2.960,-0.062
2.961,-0.062
2.962,-0.064
2.963,-0.062
2.964,-0.064
2.965,-0.066
2.966,-0.066
2.967,-0.066
2.968,-0.067
2.969,-0.069
2.970,-0.068
2.971,-0.066
2.972,-0.064
2.973,-0.059
2.974,-0.059
2.975,-0.059
2.976,-0.059
2.977,-0.059
2.978,-0.055
2.979,-0.056
2.980,-0.054
2.981,-0.056
2.982,-0.053
2.983,-0.050
2.984,-0.053
2.985,-0.053
2.986,-0.050
2.987,-0.047
2.988,-0.039
2.989,-0.034
2.990,-0.021
2.991,-0.009
2.992,-0.005
2.993,0.000
2.994,0.003
2.995,0.006
2.996,0.008
2.997,0.009
2.998,0.016
2.999,0.019
3.000,0.023
3.001,0.025
3.002,0.025
3.003,0.025
3.004,0.025
3.005,0.022
3.006,0.022
3.007,0.025
3.008,0.025
3.009,0.022
3.010,0.024
3.011,0.022
3.012,0.021
3.013,0.025
3.014,0.028
3.015,0.031
3.016,0.036
3.017,0.044
3.018,0.045
3.019,0.047
3.020,0.046
3.021,0.047
3.022,0.044
3.023,0.047
3.024,0.054
3.025,0.066
3.026,0.075
3.027,0.081
3.028,0.088
3.029,0.094
3.030,0.094
3.031,0.091
3.032,0.080
3.033,0.072
3.034,0.062
3.035,0.053
3.036,0.046
3.037,0.041
3.038,0.041
3.039,0.041
3.040,0.033
3.041,0.028
3.042,0.022
3.043,0.016
3.044,0.019
3.045,0.016
3.046,0.016
3.047,0.012
3.048,0.009
3.049,0.006
3.050,-0.004
3.051,-0.012
3.052,-0.022
3.053,-0.025
3.054,-0.026
3.055,-0.031
3.056,-0.030
3.057,-0.028
3.058,-0.031
3.059,-0.034
3.060,-0.034
3.061,-0.038
3.062,-0.039
3.063,-0.044
3.064,-0.047
3.065,-0.050
3.066,-0.050
3.067,-0.053
3.068,-0.053
3.069,-0.056
3.070,-0.062
3.071,-0.069
3.072,-0.072
3.073,-0.072
3.074,-0.074
3.075,-0.072
3.076,-0.071
3.077,-0.072
3.078,-0.072
3.079,-0.072
3.080,-0.072
3.081,-0.072
3.082,-0.073
3.083,-0.075
3.084,-0.078
3.085,-0.081
3.086,-0.080
3.087,-0.081
3.088,-0.080
3.089,-0.078
3.090,-0.074
3.091,-0.072
3.092,-0.072
3.093,-0.075
3.094,-0.081
3.095,-0.081
3.096,-0.082
3.097,-0.081
3.098,-0.078
3.099,-0.075
3.100,-0.079
3.101,-0.078
3.102,-0.079
3.103,-0.084
3.104,-0.081
3.105,-0.084
3.106,-0.081
3.107,-0.081
3.108,-0.086
3.109,-0.088
3.110,-0.088
3.111,-0.088
3.112,-0.088
3.113,-0.088
3.114,-0.089
3.115,-0.088
3.116,-0.089
3.117,-0.088
3.118,-0.092
3.119,-0.094
3.120,-0.094
3.121,-0.100
3.122,-0.109
3.123,-0.119
3.124,-0.127
3.125,-0.134
3.126,-0.136
3.127,-0.134
3.128,-0.128
3.129,-0.125
3.130,-0.116
3.131,-0.103
3.132,-0.086
3.133,-0.062
3.134,-0.044
3.135,-0.016
3.136,0.016
3.137,0.050
3.138,0.091
3.139,0.138
3.140,0.194
3.141,0.247
3.142,0.304
3.143,0.356
3.144,0.403
3.145,0.453
3.146,0.508
3.147,0.569
3.148,0.644
3.149,0.719
3.150,0.791
3.151,0.850
3.152,0.906
3.153,0.962
3.154,1.014
3.155,1.062
3.156,1.100
3.157,1.112
3.158,1.116
3.159,1.106
3.160,1.079
3.161,1.031
3.162,0.962
3.163,0.891
3.164,0.816
3.165,0.744
3.166,0.669
3.167,0.603
3.168,0.542
3.169,0.478
3.170,0.403
3.171,0.334
3.172,0.262
3.173,0.194
3.174,0.131
3.175,0.075
3.176,0.031
3.177,0.003
3.178,-0.014
3.179,-0.016
3.180,-0.014
3.181,-0.012
3.182,-0.012
3.183,-0.022
3.184,-0.036
3.185,-0.056
3.186,-0.073
3.187,-0.084
3.188,-0.092
3.189,-0.094
3.190,-0.099
3.191,-0.103
3.192,-0.111
3.193,-0.109
3.194,-0.102
3.195,-0.097
3.196,-0.094
3.197,-0.091
3.198,-0.088
3.199,-0.088
3.200,-0.086
3.201,-0.084
3.202,-0.078
3.203,-0.075
3.204,-0.066
3.205,-0.062
3.206,-0.059
3.207,-0.056
3.208,-0.059
3.209,-0.062
3.210,-0.064
3.211,-0.069
3.212,-0.075
3.213,-0.075
3.214,-0.078
3.215,-0.078
3.216,-0.084
3.217,-0.084
3.218,-0.086
3.219,-0.088
3.220,-0.086
3.221,-0.088
3.222,-0.086
3.223,-0.084
3.224,-0.082
3.225,-0.084
3.226,-0.083
3.227,-0.084
3.228,-0.084
3.229,-0.084
3.230,-0.088
3.231,-0.088
3.232,-0.088
3.233,-0.088
3.234,-0.088
3.235,-0.088
3.236,-0.088
3.237,-0.088
3.238,-0.089
3.239,-0.091
3.240,-0.091
3.241,-0.091
3.242,-0.091
3.243,-0.091
3.244,-0.089
3.245,-0.091
3.246,-0.095
3.247,-0.094
3.248,-0.092
3.249,-0.094
3.250,-0.092
3.251,-0.094
3.252,-0.094
3.253,-0.094
3.254,-0.089
3.255,-0.088
3.256,-0.088
3.257,-0.088
3.258,-0.084
3.259,-0.081
3.260,-0.078
3.261,-0.078
3.262,-0.079
3.263,-0.081
3.264,-0.078
3.265,-0.078
3.266,-0.075
3.267,-0.078
3.268,-0.079
3.269,-0.081
3.270,-0.082
3.271,-0.081
3.272,-0.082
3.273,-0.084
3.274,-0.084
3.275,-0.084
3.276,-0.084
3.277,-0.084
3.278,-0.080
3.279,-0.075
3.280,-0.072
3.281,-0.075
3.282,-0.076
3.283,-0.078
3.284,-0.075
3.285,-0.075
3.286,-0.074
3.287,-0.072
3.288,-0.075
3.289,-0.075
3.290,-0.075
3.291,-0.075
3.292,-0.078
3.293,-0.078
3.294,-0.075
3.295,-0.072
3.296,-0.072
3.297,-0.072
3.298,-0.073
3.299,-0.075
3.300,-0.075
3.301,-0.075
3.302,-0.075
3.303,-0.075
3.304,-0.074
3.305,-0.072
3.306,-0.072
3.307,-0.072
3.308,-0.073
3.309,-0.072
3.310,-0.071
3.311,-0.072
3.312,-0.069
3.313,-0.069
3.314,-0.068
3.315,-0.066
3.316,-0.069
3.317,-0.072
3.318,-0.070
3.319,-0.072
3.320,-0.071
3.321,-0.069
3.322,-0.072
3.323,-0.072
3.324,-0.069
3.325,-0.066
3.326,-0.066
3.327,-0.062
3.328,-0.067
3.329,-0.066
3.330,-0.067
3.331,-0.069
3.332,-0.066
3.333,-0.066
3.334,-0.069
3.335,-0.069
3.336,-0.070
3.337,-0.069
3.338,-0.071
3.339,-0.066
3.340,-0.066
3.341,-0.066
3.342,-0.066
3.343,-0.066
3.344,-0.066
3.345,-0.066
3.346,-0.062
3.347,-0.059
3.348,-0.058
3.349,-0.059
3.350,-0.058
3.351,-0.059
3.352,-0.059
3.353,-0.066
3.354,-0.067
3.355,-0.066
3.356,-0.062
3.357,-0.059
3.358,-0.058
3.359,-0.059
3.360,-0.061
3.361,-0.059
3.362,-0.062
3.363,-0.059
3.364,-0.064
3.365,-0.062
3.366,-0.062
3.367,-0.062
3.368,-0.062
3.369,-0.062
3.370,-0.062
3.371,-0.062
3.372,-0.061
3.373,-0.056
3.374,-0.058
3.375,-0.059
3.376,-0.061
3.377,-0.062
3.378,-0.061
3.379,-0.062
3.380,-0.061
3.381,-0.059
3.382,-0.059
3.383,-0.056
3.384,-0.056
3.385,-0.056
3.386,-0.055
3.387,-0.056
3.388,-0.055
3.389,-0.053
3.390,-0.050
3.391,-0.050
3.392,-0.050
3.393,-0.047
3.394,-0.050
3.395,-0.047
3.396,-0.047
3.397,-0.047
3.398,-0.049
3.399,-0.047
3.400,-0.048
3.401,-0.050
3.402,-0.044
3.403,-0.047
3.404,-0.051
3.405,-0.050
3.406,-0.052
3.407,-0.050
3.408,-0.050
3.409,-0.050
3.410,-0.050
3.411,-0.050
3.412,-0.051
3.413,-0.053
3.414,-0.054
3.415,-0.053
3.416,-0.052
3.417,-0.053
3.418,-0.054
3.419,-0.056
3.420,-0.058
3.421,-0.059
3.422,-0.058
3.423,-0.056
3.424,-0.056
3.425,-0.056
3.426,-0.056
3.427,-0.053
3.428,-0.052
3.429,-0.050
3.430,-0.047
3.431,-0.047
3.432,-0.047
3.433,-0.050
3.434,-0.050
3.435,-0.050
3.436,-0.048
3.437,-0.050
3.438,-0.049
3.439,-0.047
3.440,-0.044
3.441,-0.047
3.442,-0.047
3.443,-0.047
3.444,-0.047
3.445,-0.047
3.446,-0.047
3.447,-0.044
3.448,-0.042
3.449,-0.044
3.450,-0.045
3.451,-0.044
3.452,-0.042
3.453,-0.041
3.454,-0.039
3.455,-0.034
3.456,-0.031
3.457,-0.025
3.458,-0.028
3.459,-0.025
3.460,-0.025
3.461,-0.025
3.462,-0.025
3.463,-0.019
3.464,-0.016
3.465,-0.016
3.466,-0.017
3.467,-0.016
3.468,-0.012
3.469,-0.012
3.470,-0.011
3.471,-0.012
3.472,-0.009
3.473,-0.009
3.474,-0.003
3.475,0.000
3.476,0.002
3.477,0.003
3.478,0.003
3.479,0.003
3.480,0.004
3.481,0.006
3.482,0.009
3.483,0.009
3.484,0.012
3.485,0.016
3.486,0.017
3.487,0.022
3.488,0.024
3.489,0.025
3.490,0.026
3.491,0.031
3.492,0.030
3.493,0.031
3.494,0.036
3.495,0.041
3.496,0.044
3.497,0.044
3.498,0.041
3.499,0.041
3.500,0.044
3.501,0.047
3.502,0.047
3.503,0.047
3.504,0.044
3.505,0.044
3.506,0.046
3.507,0.044
3.508,0.044
3.509,0.044
3.510,0.042
3.511,0.041
3.512,0.041
3.513,0.041
3.514,0.038
3.515,0.038
3.516,0.036
3.517,0.034
3.518,0.034
3.519,0.034
3.520,0.034
3.521,0.034
3.522,0.034
3.523,0.031
3.524,0.029
3.525,0.028
3.526,0.032
3.527,0.034
3.528,0.038
3.529,0.031
3.530,0.036
3.531,0.031
3.532,0.028
3.533,0.022
3.534,0.025
3.535,0.022
3.536,0.019
3.537,0.016
3.538,0.014
3.539,0.016
3.540,0.012
3.541,0.012
3.542,0.014
3.543,0.016
3.544,0.014
3.545,0.016
3.546,0.011
3.547,0.012
3.548,0.016
3.549,0.012
3.550,0.012
3.551,0.012
3.552,0.012
3.553,0.012
3.554,0.009
3.555,0.009
3.556,0.009
3.557,0.009
3.558,0.006
3.559,0.006
3.560,0.006
3.561,0.006
3.562,0.006
3.563,0.006
3.564,0.006
3.565,0.006
3.566,0.006
3.567,0.006
3.568,0.006
3.569,0.006
3.570,0.006
3.571,0.006
3.572,0.006
3.573,0.003
3.574,0.004
3.575,0.006
3.576,0.006
3.577,0.006
3.578,0.005
3.579,0.003
3.580,0.003
3.581,0.003
3.582,0.005
3.583,0.003
3.584,0.003
3.585,0.000
3.586,0.000
3.587,0.000
3.588,0.000
3.589,0.000
3.590,-0.001
3.591,-0.003
3.592,0.000
3.593,0.000
3.594,-0.003
3.595,-0.003
3.596,-0.003
3.597,-0.003
3.598,-0.003
3.599,-0.003
3.600,0.000
3.601,0.003
3.602,0.004
3.603,0.003
3.604,0.002
3.605,0.000
3.606,0.000
3.607,0.000
3.608,0.000
3.609,0.000
3.610,0.000
3.611,0.000
3.612,-0.003
3.613,-0.003
3.614,0.000
3.615,0.000
3.616,-0.004
3.617,-0.006
3.618,-0.008
3.619,-0.009
3.620,-0.009
3.621,-0.009
3.622,-0.008
3.623,-0.006
3.624,-0.009
3.625,-0.009
3.626,-0.009
3.627,-0.009
3.628,-0.011
3.629,-0.012
3.630,-0.012
3.631,-0.016
3.632,-0.014
3.633,-0.016
3.634,-0.016
3.635,-0.016
3.636,-0.014
3.637,-0.016
3.638,-0.014
3.639,-0.012
3.640,-0.016
3.641,-0.016
3.642,-0.011
3.643,-0.012
3.644,-0.014
3.645,-0.016
3.646,-0.014
3.647,-0.012
3.648,-0.016
3.649,-0.016
3.650,-0.014
3.651,-0.016
3.652,-0.017
3.653,-0.019
3.654,-0.025
3.655,-0.025
3.656,-0.025
3.657,-0.028
3.658,-0.028
3.659,-0.028
3.660,-0.027
3.661,-0.025
3.662,-0.029
3.663,-0.028
3.664,-0.027
3.665,-0.028
3.666,-0.028
3.667,-0.028
3.668,-0.027
3.669,-0.028
3.670,-0.027
3.671,-0.025
3.672,-0.028
3.673,-0.025
3.674,-0.028
3.675,-0.028
3.676,-0.028
3.677,-0.028
3.678,-0.028
3.679,-0.028
3.680,-0.027
3.681,-0.025
3.682,-0.028
3.683,-0.028
3.684,-0.029
3.685,-0.031
3.686,-0.032
3.687,-0.038
3.688,-0.036
3.689,-0.038
3.690,-0.036
3.691,-0.038
3.692,-0.042
3.693,-0.047
3.694,-0.046
3.695,-0.047
3.696,-0.047
3.697,-0.047
3.698,-0.046
3.699,-0.044
3.700,-0.042
3.701,-0.041
3.702,-0.041
3.703,-0.041
3.704,-0.039
3.705,-0.041
3.706,-0.036
3.707,-0.034
3.708,-0.036
3.709,-0.038
3.710,-0.042
3.711,-0.044
3.712,-0.042
3.713,-0.044
3.714,-0.039
3.715,-0.038
3.716,-0.044
3.717,-0.044
3.718,-0.047
3.719,-0.047
3.720,-0.047
3.721,-0.047
3.722,-0.047
3.723,-0.047
3.724,-0.048
3.725,-0.050
3.726,-0.051
3.727,-0.053
3.728,-0.053
3.729,-0.053
3.730,-0.052
3.731,-0.050
3.732,-0.050
3.733,-0.050
3.734,-0.049
3.735,-0.050
3.736,-0.047
3.737,-0.044
3.738,-0.042
3.739,-0.041
3.740,-0.044
3.741,-0.044
3.742,-0.042
3.743,-0.044
3.744,-0.042
3.745,-0.041
3.746,-0.041
3.747,-0.041
3.748,-0.041
3.749,-0.041
3.750,-0.044
3.751,-0.044
3.752,-0.045
3.753,-0.044
3.754,-0.051
3.755,-0.056
3.756,-0.056
3.757,-0.056
3.758,-0.055
3.759,-0.050
3.760,-0.053
3.761,-0.050
3.762,-0.047
3.763,-0.044
3.764,-0.042
3.765,-0.038
3.766,-0.041
3.767,-0.041
3.768,-0.041
3.769,-0.041
3.770,-0.042
3.771,-0.044
3.772,-0.047
3.773,-0.047
3.774,-0.047
3.775,-0.047
3.776,-0.047
3.777,-0.047
3.778,-0.047
3.779,-0.047
3.780,-0.042
3.781,-0.044
3.782,-0.042
3.783,-0.047
3.784,-0.047
3.785,-0.047
3.786,-0.050
3.787,-0.050
3.788,-0.047
3.789,-0.050
3.790,-0.051
3.791,-0.050
3.792,-0.049
3.793,-0.050
3.794,-0.048
3.795,-0.050
3.796,-0.049
3.797,-0.047
3.798,-0.050
3.799,-0.050
3.800,-0.047
3.801,-0.044
3.802,-0.045
3.803,-0.044
3.804,-0.047
3.805,-0.047
3.806,-0.044
3.807,-0.044
3.808,-0.046
3.809,-0.047
3.810,-0.047
3.811,-0.047
3.812,-0.048
3.813,-0.047
3.814,-0.050
3.815,-0.050
3.816,-0.050
3.817,-0.050
3.818,-0.048
3.819,-0.050
3.820,-0.053
3.821,-0.053
3.822,-0.049
3.823,-0.050
3.824,-0.050
3.825,-0.050
3.826,-0.048
3.827,-0.047
3.828,-0.050
3.829,-0.050
3.830,-0.052
3.831,-0.050
3.832,-0.050
3.833,-0.050
3.834,-0.050
3.835,-0.050
3.836,-0.050
3.837,-0.050
3.838,-0.050
3.839,-0.050
3.840,-0.050
3.841,-0.050
3.842,-0.053
3.843,-0.050
3.844,-0.050
3.845,-0.050
3.846,-0.049
3.847,-0.047
3.848,-0.050
3.849,-0.050
3.850,-0.053
3.851,-0.053
3.852,-0.052
3.853,-0.050
3.854,-0.050
3.855,-0.050
3.856,-0.050
3.857,-0.050
3.858,-0.047
3.859,-0.044
3.860,-0.044
3.861,-0.041
3.862,-0.041
3.863,-0.041
3.864,-0.041
3.865,-0.041
3.866,-0.038
3.867,-0.041
3.868,-0.039
3.869,-0.041
3.870,-0.041
3.871,-0.041
3.872,-0.044
3.873,-0.044
3.874,-0.039
3.875,-0.034
3.876,-0.025
3.877,-0.019
3.878,-0.011
3.879,-0.006
3.880,-0.004
3.881,-0.003
3.882,-0.001
3.883,0.000
3.884,0.000
3.885,0.000
3.886,0.009
3.887,0.016
3.888,0.026
3.889,0.034
3.890,0.034
3.891,0.034
3.892,0.039
3.893,0.041
3.894,0.036
3.895,0.034
3.896,0.034
3.897,0.031
3.898,0.033
3.899,0.031
3.900,0.025
3.901,0.025
3.902,0.027
3.903,0.028
3.904,0.038
3.905,0.050
3.906,0.054
3.907,0.059
3.908,0.059
3.909,0.062
3.910,0.061
3.911,0.066
3.912,0.072
3.913,0.081
3.914,0.091
3.915,0.097
3.916,0.098
3.917,0.100
3.918,0.100
3.919,0.097
3.920,0.088
3.921,0.081
3.922,0.076
3.923,0.072
3.924,0.066
3.925,0.062
3.926,0.056
3.927,0.050
3.928,0.047
3.929,0.047
3.930,0.041
3.931,0.034
3.932,0.036
3.933,0.031
3.934,0.031
3.935,0.028
3.936,0.021
3.937,0.012
3.938,0.008
3.939,0.006
3.940,-0.006
3.941,-0.012
3.942,-0.016
3.943,-0.022
3.944,-0.022
3.945,-0.022
3.946,-0.024
3.947,-0.025
3.948,-0.028
3.949,-0.034
3.950,-0.034
3.951,-0.038
3.952,-0.042
3.953,-0.047
3.954,-0.046
3.955,-0.047
3.956,-0.046
3.957,-0.047
3.958,-0.051
3.959,-0.056
3.960,-0.062
3.961,-0.066
3.962,-0.070
3.963,-0.072
3.964,-0.071
3.965,-0.072
3.966,-0.071
3.967,-0.069
3.968,-0.069
3.969,-0.069
3.970,-0.069
3.971,-0.069
3.972,-0.068
3.973,-0.066
3.974,-0.066
3.975,-0.069
3.976,-0.070
3.977,-0.072
3.978,-0.069
3.979,-0.069
3.980,-0.068
3.981,-0.069
3.982,-0.073
3.983,-0.072
3.984,-0.073
3.985,-0.072
3.986,-0.071
3.987,-0.069
3.988,-0.073
3.989,-0.072
3.990,-0.071
3.991,-0.072
3.992,-0.072
3.993,-0.078
3.994,-0.075
3.995,-0.075
3.996,-0.079
3.997,-0.081
3.998,-0.078
3.999,-0.075
4.000,-0.075
4.001,-0.075
4.002,-0.077
4.003,-0.075
4.004,-0.079
4.005,-0.081
4.006,-0.083
4.007,-0.081
4.008,-0.084
4.009,-0.094
4.010,-0.104
4.011,-0.116
4.012,-0.125
4.013,-0.134
4.014,-0.134
4.015,-0.131
4.016,-0.122
4.017,-0.116
4.018,-0.102
4.019,-0.084
4.020,-0.066
4.021,-0.041
4.022,-0.020
4.023,0.009
4.024,0.042
4.025,0.078
4.026,0.122
4.027,0.172
4.028,0.228
4.029,0.281
4.030,0.334
4.031,0.381
4.032,0.430
4.033,0.481
4.034,0.544
4.035,0.612
4.036,0.686
4.037,0.759
4.038,0.831
4.039,0.891
4.040,0.947
4.041,1.003
4.042,1.052
4.043,1.097
4.044,1.125
4.045,1.128
4.046,1.124
4.047,1.106
4.048,1.068
4.049,1.006
4.050,0.934
4.051,0.859
4.052,0.786
4.053,0.716
4.054,0.648
4.055,0.591
4.056,0.532
4.057,0.472
4.058,0.399
4.059,0.331
4.060,0.261
4.061,0.194
4.062,0.136
4.063,0.084
4.064,0.050
4.065,0.031
4.066,0.017
4.067,0.019
4.068,0.020
4.069,0.022
4.070,0.016
4.071,0.000
4.072,-0.014
4.073,-0.034
4.074,-0.050
4.075,-0.059
4.076,-0.068
4.077,-0.069
4.078,-0.075
4.079,-0.081
4.080,-0.089
4.081,-0.088
4.082,-0.082
4.083,-0.081
4.084,-0.079
4.085,-0.078
4.086,-0.075
4.087,-0.075
4.088,-0.074
4.089,-0.072
4.090,-0.066
4.091,-0.062
4.092,-0.058
4.093,-0.059
4.094,-0.058
4.095,-0.056
4.096,-0.056
4.097,-0.056
4.098,-0.055
4.099,-0.056
4.100,-0.064
4.101,-0.066
4.102,-0.070
4.103,-0.072
4.104,-0.078
4.105,-0.078
4.106,-0.081
4.107,-0.084
4.108,-0.084
4.109,-0.088
4.110,-0.088
4.111,-0.088
4.112,-0.080
4.113,-0.075
4.114,-0.074
4.115,-0.075
4.116,-0.075
4.117,-0.075
4.118,-0.078
4.119,-0.078
4.120,-0.079
4.121,-0.081
4.122,-0.084
4.123,-0.088
4.124,-0.089
4.125,-0.091
4.126,-0.089
4.127,-0.088
4.128,-0.084
4.129,-0.081
4.130,-0.080
4.131,-0.078
4.132,-0.074
4.133,-0.072
4.134,-0.075
4.135,-0.072
4.136,-0.073
4.137,-0.078
4.138,-0.081
4.139,-0.088
4.140,-0.089
4.141,-0.091
4.142,-0.086
4.143,-0.084
4.144,-0.080
4.145,-0.075
4.146,-0.076
4.147,-0.078
4.148,-0.076
4.149,-0.078
4.150,-0.078
4.151,-0.078
4.152,-0.075
4.153,-0.075
4.154,-0.072
4.155,-0.075
4.156,-0.076
4.157,-0.078
4.158,-0.082
4.159,-0.084
4.160,-0.080
4.161,-0.075
4.162,-0.076
4.163,-0.078
4.164,-0.078
4.165,-0.078
4.166,-0.078
4.167,-0.078
4.168,-0.076
4.169,-0.081
4.170,-0.080
4.171,-0.078
4.172,-0.076
4.173,-0.078
4.174,-0.079
4.175,-0.081
4.176,-0.084
4.177,-0.084
4.178,-0.083
4.179,-0.081
4.180,-0.081
4.181,-0.078
4.182,-0.078
4.183,-0.078
4.184,-0.079
4.185,-0.081
4.186,-0.078
4.187,-0.075
4.188,-0.075
4.189,-0.075
4.190,-0.076
4.191,-0.078
4.192,-0.077
4.193,-0.075
4.194,-0.074
4.195,-0.072
4.196,-0.073
4.197,-0.072
4.198,-0.071
4.199,-0.072
4.200,-0.070
4.201,-0.072
4.202,-0.072
4.203,-0.072
4.204,-0.073
4.205,-0.075
4.206,-0.073
4.207,-0.075
4.208,-0.074
4.209,-0.072
4.210,-0.074
4.211,-0.072
4.212,-0.072
4.213,-0.072
4.214,-0.071
4.215,-0.066
4.216,-0.069
4.217,-0.066
4.218,-0.067
4.219,-0.069
4.220,-0.066
4.221,-0.066
4.222,-0.068
4.223,-0.066
4.224,-0.064
4.225,-0.059
4.226,-0.066
4.227,-0.066
4.228,-0.066
4.229,-0.066
4.230,-0.066
4.231,-0.066
4.232,-0.066
4.233,-0.066
4.234,-0.067
4.235,-0.069
4.236,-0.067
4.237,-0.069
4.238,-0.068
4.239,-0.069
4.240,-0.064
4.241,-0.066
4.242,-0.067
4.243,-0.066
4.244,-0.066
4.245,-0.066
4.246,-0.061
4.247,-0.059
4.248,-0.058
4.249,-0.053
4.250,-0.055
4.251,-0.050
4.252,-0.053
4.253,-0.050
4.254,-0.050
4.255,-0.050
4.256,-0.050
4.257,-0.050
4.258,-0.050
4.259,-0.050
4.260,-0.051
4.261,-0.050
4.262,-0.051
4.263,-0.053
4.264,-0.053
4.265,-0.053
4.266,-0.052
4.267,-0.053
4.268,-0.053
4.269,-0.053
4.270,-0.054
4.271,-0.053
4.272,-0.054
4.273,-0.056
4.274,-0.053
4.275,-0.053
4.276,-0.054
4.277,-0.056
4.278,-0.052
4.279,-0.050
4.280,-0.050
4.281,-0.047
4.282,-0.051
4.283,-0.050
4.284,-0.049
4.285,-0.047
4.286,-0.050
4.287,-0.050
4.288,-0.051
4.289,-0.053
4.290,-0.042
4.291,-0.041
4.292,-0.047
4.293,-0.047
4.294,-0.051
4.295,-0.053
4.296,-0.054
4.297,-0.056
4.298,-0.056
4.299,-0.056
4.300,-0.056
4.301,-0.056
4.302,-0.053
4.303,-0.047
4.304,-0.046
4.305,-0.047
4.306,-0.047
4.307,-0.047
4.308,-0.048
4.309,-0.050
4.310,-0.050
4.311,-0.050
4.312,-0.050
4.313,-0.050
4.314,-0.051
4.315,-0.050
4.316,-0.050
4.317,-0.050
4.318,-0.047
4.319,-0.047
4.320,-0.046
4.321,-0.047
4.322,-0.047
4.323,-0.047
4.324,-0.045
4.325,-0.047
4.326,-0.046
4.327,-0.044
4.328,-0.039
4.329,-0.041
4.330,-0.041
4.331,-0.041
4.332,-0.042
4.333,-0.044
4.334,-0.044
4.335,-0.041
4.336,-0.038
4.337,-0.038
4.338,-0.039
4.339,-0.038
4.340,-0.036
4.341,-0.034
4.342,-0.036
4.343,-0.034
4.344,-0.033
4.345,-0.028
4.346,-0.031
4.347,-0.028
4.348,-0.028
4.349,-0.028
4.350,-0.028
4.351,-0.022
4.352,-0.014
4.353,-0.009
4.354,-0.011
4.355,-0.009
4.356,-0.009
4.357,-0.012
4.358,-0.008
4.359,-0.006
4.360,-0.002
4.361,0.000
4.362,0.005
4.363,0.006
4.364,0.011
4.365,0.016
4.366,0.018
4.367,0.019
4.368,0.019
4.369,0.019
4.370,0.023
4.371,0.025
4.372,0.029
4.373,0.034
4.374,0.034
4.375,0.038
4.376,0.039
4.377,0.041
4.378,0.039
4.379,0.041
4.380,0.041
4.381,0.044
4.382,0.045
4.383,0.047
4.384,0.050
4.385,0.050
4.386,0.049
4.387,0.050
4.388,0.051
4.389,0.053
4.390,0.056
4.391,0.059
4.392,0.056
4.393,0.056
4.394,0.058
4.395,0.056
4.396,0.058
4.397,0.059
4.398,0.058
4.399,0.056
4.400,0.055
4.401,0.053
4.402,0.050
4.403,0.050
4.404,0.048
4.405,0.047
4.406,0.046
4.407,0.044
4.408,0.041
4.409,0.038
4.410,0.039
4.411,0.038
4.412,0.038
4.413,0.038
4.414,0.039
4.415,0.038
4.416,0.042
4.417,0.038
4.418,0.039
4.419,0.031
4.420,0.028
4.421,0.022
4.422,0.025
4.423,0.022
4.424,0.023
4.425,0.025
4.426,0.025
4.427,0.028
4.428,0.025
4.429,0.025
4.430,0.026
4.431,0.028
4.432,0.028
4.433,0.031
4.434,0.027
4.435,0.028
4.436,0.031
4.437,0.028
4.438,0.027
4.439,0.025
4.440,0.025
4.441,0.025
4.442,0.022
4.443,0.022
4.444,0.022
4.445,0.022
4.446,0.018
4.447,0.016
4.448,0.014
4.449,0.012
4.450,0.014
4.451,0.016
4.452,0.019
4.453,0.022
4.454,0.022
4.455,0.022
4.456,0.021
4.457,0.019
4.458,0.020
4.459,0.022
4.460,0.023
4.461,0.022
4.462,0.023
4.463,0.025
4.464,0.025
4.465,0.025
4.466,0.024
4.467,0.022
4.468,0.022
4.469,0.022
4.470,0.024
4.471,0.022
4.472,0.023
4.473,0.022
4.474,0.022
4.475,0.022
4.476,0.021
4.477,0.019
4.478,0.019
4.479,0.019
4.480,0.019
4.481,0.016
4.482,0.012
4.483,0.012
4.484,0.012
4.485,0.012
4.486,0.012
4.487,0.012
4.488,0.012
4.489,0.012
4.490,0.012
4.491,0.009
4.492,0.009
4.493,0.009
4.494,0.009
4.495,0.009
4.496,0.009
4.497,0.009
4.498,0.011
4.499,0.012
4.500,0.009
4.501,0.009
4.502,0.012
4.503,0.012
4.504,0.009
4.505,0.009
4.506,0.009
4.507,0.009
4.508,0.009
4.509,0.009
4.510,0.009
4.511,0.009
4.512,0.009
4.513,0.012
4.514,0.012
4.515,0.012
4.516,0.011
4.517,0.009
4.518,0.009
4.519,0.006
4.520,0.006
4.521,0.003
4.522,0.002
4.523,0.000
4.524,0.003
4.525,0.003
4.526,0.003
4.527,0.003
4.528,0.000
4.529,0.000
4.530,0.006
4.531,0.006
4.532,0.006
4.533,0.006
4.534,0.006
4.535,0.006
4.536,0.003
4.537,0.003
4.538,0.003
4.539,0.000
4.540,0.001
4.541,0.003
4.542,-0.004
4.543,-0.006
4.544,-0.005
4.545,-0.006
4.546,-0.006
4.547,-0.006
4.548,-0.005
4.549,-0.003
4.550,-0.008
4.551,-0.006
4.552,-0.005
4.553,-0.006
4.554,-0.006
4.555,-0.006
4.556,-0.006
4.557,-0.009
4.558,-0.008
4.559,-0.006
4.560,-0.011
4.561,-0.009
4.562,-0.014
4.563,-0.016
4.564,-0.014
4.565,-0.012
4.566,-0.012
4.567,-0.012
4.568,-0.014
4.569,-0.016
4.570,-0.020
4.571,-0.022
4.572,-0.023
4.573,-0.025
4.574,-0.021
4.575,-0.019
4.576,-0.016
4.577,-0.016
4.578,-0.014
4.579,-0.016
4.580,-0.017
4.581,-0.019
4.582,-0.018
4.583,-0.019
4.584,-0.018
4.585,-0.016
4.586,-0.016
4.587,-0.016
4.588,-0.017
4.589,-0.019
4.590,-0.020
4.591,-0.022
4.592,-0.021
4.593,-0.022
4.594,-0.019
4.595,-0.019
4.596,-0.018
4.597,-0.016
4.598,-0.019
4.599,-0.019
4.600,-0.018
4.601,-0.019
4.602,-0.017
4.603,-0.019
4.604,-0.022
4.605,-0.019
4.606,-0.022
4.607,-0.022
4.608,-0.022
4.609,-0.022
4.610,-0.022
4.611,-0.022
4.612,-0.022
4.613,-0.022
4.614,-0.023
4.615,-0.025
4.616,-0.025
4.617,-0.025
4.618,-0.026
4.619,-0.028
4.620,-0.028
4.621,-0.028
4.622,-0.027
4.623,-0.028
4.624,-0.028
4.625,-0.028
4.626,-0.028
4.627,-0.028
4.628,-0.031
4.629,-0.031
4.630,-0.029
4.631,-0.031
4.632,-0.031
4.633,-0.031
4.634,-0.031
4.635,-0.031
4.636,-0.031
4.637,-0.031
4.638,-0.033
4.639,-0.031
4.640,-0.032
4.641,-0.031
4.642,-0.034
4.643,-0.034
4.644,-0.034
4.645,-0.034
4.646,-0.036
4.647,-0.034
4.648,-0.039
4.649,-0.038
4.650,-0.034
4.651,-0.031
4.652,-0.032
4.653,-0.031
4.654,-0.034
4.655,-0.034
4.656,-0.033
4.657,-0.031
4.658,-0.030
4.659,-0.028
4.660,-0.031
4.661,-0.031
4.662,-0.031
4.663,-0.031
4.664,-0.034
4.665,-0.038
4.666,-0.042
4.667,-0.047
4.668,-0.042
4.669,-0.044
4.670,-0.039
4.671,-0.041
4.672,-0.039
4.673,-0.038
4.674,-0.041
4.675,-0.041
4.676,-0.034
4.677,-0.034
4.678,-0.036
4.679,-0.034
4.680,-0.031
4.681,-0.031
4.682,-0.029
4.683,-0.031
4.684,-0.030
4.685,-0.028
4.686,-0.031
4.687,-0.031
4.688,-0.032
4.689,-0.034
4.690,-0.036
4.691,-0.034
4.692,-0.038
4.693,-0.038
4.694,-0.034
4.695,-0.038
4.696,-0.036
4.697,-0.038
4.698,-0.039
4.699,-0.038
4.700,-0.039
4.701,-0.041
4.702,-0.036
4.703,-0.038
4.704,-0.038
4.705,-0.038
4.706,-0.039
4.707,-0.038
4.708,-0.038
4.709,-0.041
4.710,-0.041
4.711,-0.038
4.712,-0.041
4.713,-0.041
4.714,-0.042
4.715,-0.041
4.716,-0.038
4.717,-0.041
4.718,-0.041
4.719,-0.044
4.720,-0.044
4.721,-0.044
4.722,-0.042
4.723,-0.041
4.724,-0.038
4.725,-0.034
4.726,-0.034
4.727,-0.034
4.728,-0.034
4.729,-0.034
4.730,-0.033
4.731,-0.034
4.732,-0.032
4.733,-0.034
4.734,-0.036
4.735,-0.038
4.736,-0.036
4.737,-0.038
4.738,-0.038
4.739,-0.038
4.740,-0.039
4.741,-0.044
4.742,-0.044
4.743,-0.044
4.744,-0.044
4.745,-0.044
4.746,-0.042
4.747,-0.041
4.748,-0.041
4.749,-0.041
4.750,-0.039
4.751,-0.041
4.752,-0.041
4.753,-0.041
4.754,-0.041
4.755,-0.038
4.756,-0.042
4.757,-0.041
4.758,-0.041
4.759,-0.038
4.760,-0.033
4.761,-0.031
4.762,-0.032
4.763,-0.031
4.764,-0.024
4.765,-0.012
4.766,-0.003
4.767,0.006
4.768,0.011
4.769,0.016
4.770,0.018
4.771,0.019
4.772,0.021
4.773,0.022
4.774,0.026
4.775,0.034
4.776,0.039
4.777,0.044
4.778,0.044
4.779,0.044
4.780,0.044
4.781,0.044
4.782,0.041
4.783,0.041
4.784,0.042
4.785,0.041
4.786,0.039
4.787,0.044
4.788,0.042
4.789,0.041
4.790,0.041
4.791,0.041
4.792,0.047
4.793,0.050
4.794,0.059
4.795,0.062
4.796,0.064
4.797,0.066
4.798,0.066
4.799,0.066
4.800,0.075
4.801,0.078
4.802,0.084
4.803,0.088
4.804,0.092
4.805,0.097
4.806,0.096
4.807,0.091
4.808,0.088
4.809,0.084
4.810,0.080
4.811,0.072
4.812,0.066
4.813,0.059
4.814,0.055
4.815,0.050
4.816,0.048
4.817,0.044
4.818,0.039
4.819,0.034
4.820,0.034
4.821,0.034
4.822,0.026
4.823,0.025
4.824,0.018
4.825,0.009
4.826,0.006
4.827,0.003
4.828,0.000
4.829,-0.006
4.830,-0.009
4.831,-0.012
4.832,-0.016
4.833,-0.016
4.834,-0.012
4.835,-0.012
4.836,-0.012
4.837,-0.012
4.838,-0.025
4.839,-0.031
4.840,-0.031
4.841,-0.031
4.842,-0.036
4.843,-0.038
4.844,-0.042
4.845,-0.044
4.846,-0.047
4.847,-0.050
4.848,-0.050
4.849,-0.050
4.850,-0.049
4.851,-0.050
4.852,-0.054
4.853,-0.059
4.854,-0.064
4.855,-0.066
4.856,-0.067
4.857,-0.069
4.858,-0.068
4.859,-0.066
4.860,-0.066
4.861,-0.066
4.862,-0.059
4.863,-0.053
4.864,-0.056
4.865,-0.056
4.866,-0.059
4.867,-0.059
4.868,-0.058
4.869,-0.056
4.870,-0.059
4.871,-0.062
4.872,-0.061
4.873,-0.062
4.874,-0.061
4.875,-0.062
4.876,-0.061
4.877,-0.062
4.878,-0.059
4.879,-0.059
4.880,-0.062
4.881,-0.059
4.882,-0.064
4.883,-0.062
4.884,-0.062
4.885,-0.066
4.886,-0.067
4.887,-0.069
4.888,-0.069
4.889,-0.069
4.890,-0.068
4.891,-0.069
4.892,-0.068
4.893,-0.069
4.894,-0.069
4.895,-0.072
4.896,-0.075
4.897,-0.081
4.898,-0.089
4.899,-0.097
4.900,-0.106
4.901,-0.116
4.902,-0.126
4.903,-0.128
4.904,-0.129
4.905,-0.128
4.906,-0.124
4.907,-0.109
4.908,-0.091
4.909,-0.072
4.910,-0.050
4.911,-0.028
4.912,0.003
4.913,0.034
4.914,0.070
4.915,0.112
4.916,0.159
4.917,0.212
4.918,0.259
4.919,0.312
4.920,0.361
4.921,0.409
4.922,0.464
4.923,0.525
4.924,0.594
4.925,0.672
4.926,0.746
4.927,0.816
4.928,0.876
4.929,0.934
4.930,0.994
4.931,1.047
4.932,1.091
4.933,1.122
4.934,1.131
4.935,1.131
4.936,1.118
4.937,1.084
4.938,1.034
4.939,0.966
4.940,0.894
4.941,0.825
4.942,0.756
4.943,0.684
4.944,0.622
4.945,0.562
4.946,0.503
4.947,0.434
4.948,0.366
4.949,0.294
4.950,0.228
4.951,0.166
4.952,0.111
4.953,0.072
4.954,0.050
4.955,0.034
4.956,0.031
4.957,0.031
4.958,0.030
4.959,0.025
4.960,0.009
4.961,-0.006
4.962,-0.026
4.963,-0.044
4.964,-0.056
4.965,-0.069
4.966,-0.075
4.967,-0.084
4.968,-0.091
4.969,-0.094
4.970,-0.086
4.971,-0.078
4.972,-0.075
4.973,-0.072
4.974,-0.068
4.975,-0.062
4.976,-0.058
4.977,-0.053
4.978,-0.052
4.979,-0.044
4.980,-0.045
4.981,-0.044
4.982,-0.044
4.983,-0.044
4.984,-0.045
4.985,-0.047
4.986,-0.046
4.987,-0.044
4.988,-0.047
4.989,-0.053
4.990,-0.053
4.991,-0.056
4.992,-0.056
4.993,-0.062
4.994,-0.062
4.995,-0.062
4.996,-0.061
4.997,-0.059
4.998,-0.064
4.999,-0.062
5.000,-0.064
5.001,-0.066
5.002,-0.064
5.003,-0.062
5.004,-0.066
5.005,-0.066
5.006,-0.064
5.007,-0.066
5.008,-0.066
5.009,-0.066
5.010,-0.064
5.011,-0.062
5.012,-0.062
5.013,-0.062
5.014,-0.062
5.015,-0.062
5.016,-0.062
5.017,-0.062
5.018,-0.064
5.019,-0.066
5.020,-0.066
5.021,-0.062
5.022,-0.059
5.023,-0.059
5.024,-0.059
5.025,-0.062
5.026,-0.066
5.027,-0.066
5.028,-0.068
5.029,-0.066
5.030,-0.067
5.031,-0.066
5.032,-0.067
5.033,-0.069
5.034,-0.069
5.035,-0.069
5.036,-0.070
5.037,-0.069
5.038,-0.069
5.039,-0.069
5.040,-0.069
5.041,-0.069
5.042,-0.072
5.043,-0.069
5.044,-0.072
5.045,-0.072
5.046,-0.072
5.047,-0.072
5.048,-0.070
5.049,-0.072
5.050,-0.072
5.051,-0.072
5.052,-0.072
5.053,-0.072
5.054,-0.072
5.055,-0.072
5.056,-0.072
5.057,-0.069
5.058,-0.072
5.059,-0.072
5.060,-0.073
5.061,-0.072
5.062,-0.072
5.063,-0.072
5.064,-0.071
5.065,-0.072
5.066,-0.072
5.067,-0.072
5.068,-0.071
5.069,-0.069
5.070,-0.067
5.071,-0.069
5.072,-0.069
5.073,-0.069
5.074,-0.069
5.075,-0.069
5.076,-0.069
5.077,-0.069
5.078,-0.064
5.079,-0.059
5.080,-0.061
5.081,-0.062
5.082,-0.064
5.083,-0.066
5.084,-0.067
5.085,-0.069
5.086,-0.066
5.087,-0.066
5.088,-0.068
5.089,-0.062
5.090,-0.064
5.091,-0.066
5.092,-0.064
5.093,-0.062
5.094,-0.059
5.095,-0.053
5.096,-0.053
5.097,-0.053
5.098,-0.053
5.099,-0.056
5.100,-0.056
5.101,-0.056
5.102,-0.061
5.103,-0.066
5.104,-0.062
5.105,-0.066
5.106,-0.064
5.107,-0.066
5.108,-0.062
5.109,-0.056
5.110,-0.056
5.111,-0.059
5.112,-0.059
5.113,-0.059
5.114,-0.058
5.115,-0.062
5.116,-0.059
5.117,-0.059
5.118,-0.058
5.119,-0.056
5.120,-0.056
5.121,-0.056
5.122,-0.056
5.123,-0.056
5.124,-0.056
5.125,-0.053
5.126,-0.054
5.127,-0.056
5.128,-0.061
5.129,-0.059
5.130,-0.061
5.131,-0.059
5.132,-0.056
5.133,-0.056
5.134,-0.058
5.135,-0.056
5.136,-0.056
5.137,-0.056
5.138,-0.053
5.139,-0.056
5.140,-0.053
5.141,-0.056
5.142,-0.054
5.143,-0.056
5.144,-0.056
5.145,-0.056
5.146,-0.058
5.147,-0.059
5.148,-0.058
5.149,-0.056
5.150,-0.052
5.151,-0.050
5.152,-0.050
5.153,-0.050
5.154,-0.050
5.155,-0.050
5.156,-0.052
5.157,-0.050
5.158,-0.050
5.159,-0.050
5.160,-0.048
5.161,-0.050
5.162,-0.049
5.163,-0.047
5.164,-0.050
5.165,-0.050
5.166,-0.051
5.167,-0.050
5.168,-0.051
5.169,-0.053
5.170,-0.049
5.171,-0.050
5.172,-0.048
5.173,-0.050
5.174,-0.049
5.175,-0.050
5.176,-0.050
5.177,-0.050
5.178,-0.053
5.179,-0.050
5.180,-0.052
5.181,-0.053
5.182,-0.049
5.183,-0.050
5.184,-0.050
5.185,-0.050
5.186,-0.051
5.187,-0.053
5.188,-0.053
5.189,-0.053
5.190,-0.053
5.191,-0.053
5.192,-0.049
5.193,-0.047
5.194,-0.050
5.195,-0.050
5.196,-0.050
5.197,-0.050
5.198,-0.050
5.199,-0.050
5.200,-0.050
5.201,-0.050
5.202,-0.050
5.203,-0.050
5.204,-0.048
5.205,-0.050
5.206,-0.051
5.207,-0.050
5.208,-0.049
5.209,-0.047
5.210,-0.050
5.211,-0.050
5.212,-0.051
5.213,-0.050
5.214,-0.050
5.215,-0.050
5.216,-0.050
5.217,-0.047
5.218,-0.049
5.219,-0.047
5.220,-0.047
5.221,-0.047
5.222,-0.044
5.223,-0.041
5.224,-0.042
5.225,-0.044
5.226,-0.045
5.227,-0.047
5.228,-0.044
5.229,-0.044
5.230,-0.039
5.231,-0.034
5.232,-0.031
5.233,-0.031
5.234,-0.031
5.235,-0.034
5.236,-0.029
5.237,-0.031
5.238,-0.034
5.239,-0.038
5.240,-0.031
5.241,-0.028
5.242,-0.025
5.243,-0.022
5.244,-0.018
5.245,-0.012
5.246,-0.011
5.247,-0.006
5.248,-0.008
5.249,-0.006
5.250,-0.008
5.251,-0.003
5.252,0.001
5.253,0.006
5.254,0.011
5.255,0.016
5.256,0.018
5.257,0.016
5.258,0.016
5.259,0.019
5.260,0.019
5.261,0.022
5.262,0.025
5.263,0.025
5.264,0.027
5.265,0.028
5.266,0.034
5.267,0.038
5.268,0.039
5.269,0.038
5.270,0.044
5.271,0.047
5.272,0.046
5.273,0.047
5.274,0.047
5.275,0.047
5.276,0.049
5.277,0.047
5.278,0.047
5.279,0.047
5.280,0.048
5.281,0.047
5.282,0.044
5.283,0.044
5.284,0.045
5.285,0.047
5.286,0.047
5.287,0.047
5.288,0.044
5.289,0.041
5.290,0.042
5.291,0.041
5.292,0.042
5.293,0.041
5.294,0.036
5.295,0.034
5.296,0.038
5.297,0.041
5.298,0.041
5.299,0.041
5.300,0.041
5.301,0.041
5.302,0.038
5.303,0.041
5.304,0.039
5.305,0.041
5.306,0.033
5.307,0.034
5.308,0.029
5.309,0.031
5.310,0.028
5.311,0.031
5.312,0.029
5.313,0.031
5.314,0.031
5.315,0.028
5.316,0.029
5.317,0.028
5.318,0.027
5.319,0.025
5.320,0.025
5.321,0.022
5.322,0.023
5.323,0.022
5.324,0.024
5.325,0.025
5.326,0.019
5.327,0.016
5.328,0.016
5.329,0.016
5.330,0.017
5.331,0.016
5.332,0.017
5.333,0.019
5.334,0.019
5.335,0.016
5.336,0.016
5.337,0.016
5.338,0.017
5.339,0.019
5.340,0.018
5.341,0.016
5.342,0.014
5.343,0.012
5.344,0.011
5.345,0.009
5.346,0.009
5.347,0.009
5.348,0.009
5.349,0.009
5.350,0.005
5.351,0.003
5.352,0.003
5.353,0.003
5.354,0.003
5.355,0.003
5.356,0.004
5.357,0.006
5.358,0.005
5.359,0.006
5.360,0.008
5.361,0.009
5.362,0.008
5.363,0.009
5.364,0.008
5.365,0.006
5.366,0.006
5.367,0.006
5.368,0.005
5.369,0.006
5.370,0.008
5.371,0.006
5.372,0.008
5.373,0.009
5.374,0.009
5.375,0.009
5.376,0.008
5.377,0.006
5.378,0.008
5.379,0.009
5.380,0.006
5.381,0.006
5.382,0.006
5.383,0.006
5.384,0.005
5.385,0.003
5.386,0.003
5.387,0.003
5.388,0.002
5.389,-0.003
5.390,-0.008
5.391,-0.009
5.392,-0.008
5.393,-0.009
5.394,-0.009
5.395,-0.009
5.396,-0.009
5.397,-0.009
5.398,-0.009
5.399,-0.009
5.400,-0.008
5.401,-0.009
5.402,-0.009
5.403,-0.009
5.404,-0.009
5.405,-0.009
5.406,-0.008
5.407,-0.006
5.408,-0.008
5.409,-0.006
5.410,-0.012
5.411,-0.016
5.412,-0.019
5.413,-0.019
5.414,-0.018
5.415,-0.016
5.416,-0.014
5.417,-0.016
5.418,-0.017
5.419,-0.016
5.420,-0.018
5.421,-0.016
5.422,-0.014
5.423,-0.012
5.424,-0.012
5.425,-0.016
5.426,-0.016
5.427,-0.016
5.428,-0.019
5.429,-0.019
5.430,-0.019
5.431,-0.022
5.432,-0.022
5.433,-0.025
5.434,-0.028
5.435,-0.028
5.436,-0.028
5.437,-0.028
5.438,-0.025
5.439,-0.025
5.440,-0.021
5.441,-0.019
5.442,-0.023
5.443,-0.025
5.444,-0.028
5.445,-0.031
5.446,-0.034
5.447,-0.034
5.448,-0.031
5.449,-0.031
5.450,-0.028
5.451,-0.031
5.452,-0.031
5.453,-0.031
5.454,-0.031
5.455,-0.031
5.456,-0.031
5.457,-0.031
5.458,-0.030
5.459,-0.031
5.460,-0.031
5.461,-0.031
5.462,-0.032
5.463,-0.034
5.464,-0.039
5.465,-0.038
5.466,-0.036
5.467,-0.034
5.468,-0.041
5.469,-0.044
5.470,-0.044
5.471,-0.044
5.472,-0.047
5.473,-0.047
5.474,-0.046
5.475,-0.044
5.476,-0.044
5.477,-0.044
5.478,-0.045
5.479,-0.047
5.480,-0.047
5.481,-0.047
5.482,-0.051
5.483,-0.050
5.484,-0.049
5.485,-0.047
5.486,-0.046
5.487,-0.047
5.488,-0.047
5.489,-0.047
5.490,-0.051
5.491,-0.050
5.492,-0.050
5.493,-0.053
5.494,-0.049
5.495,-0.050
5.496,-0.050
5.497,-0.050
5.498,-0.050
5.499,-0.050
5.500,-0.050
5.501,-0.050
5.502,-0.049
5.503,-0.047
5.504,-0.047
5.505,-0.047
5.506,-0.048
5.507,-0.050
5.508,-0.050
5.509,-0.050
5.510,-0.049
5.511,-0.047
5.512,-0.049
5.513,-0.047
5.514,-0.048
5.515,-0.050
5.516,-0.050
5.517,-0.053
5.518,-0.054
5.519,-0.053
5.520,-0.054
5.521,-0.056
5.522,-0.056
5.523,-0.056
5.524,-0.056
5.525,-0.056
5.526,-0.056
5.527,-0.059
5.528,-0.059
5.529,-0.059
5.530,-0.053
5.531,-0.053
5.532,-0.053
5.533,-0.053
5.534,-0.054
5.535,-0.056
5.536,-0.053
5.537,-0.056
5.538,-0.054
5.539,-0.056
5.540,-0.056
5.541,-0.056
5.542,-0.054
5.543,-0.059
5.544,-0.061
5.545,-0.062
5.546,-0.061
5.547,-0.059
5.548,-0.058
5.549,-0.059
5.550,-0.059
5.551,-0.059
5.552,-0.059
5.553,-0.059
5.554,-0.059
5.555,-0.059
5.556,-0.059
5.557,-0.056
5.558,-0.058
5.559,-0.053
5.560,-0.055
5.561,-0.053
5.562,-0.052
5.563,-0.053
5.564,-0.054
5.565,-0.053
5.566,-0.056
5.567,-0.056
5.568,-0.053
5.569,-0.053
5.570,-0.058
5.571,-0.056
5.572,-0.056
5.573,-0.056
5.574,-0.058
5.575,-0.062
5.576,-0.067
5.577,-0.069
5.578,-0.066
5.579,-0.062
5.580,-0.056
5.581,-0.056
5.582,-0.058
5.583,-0.059
5.584,-0.059
5.585,-0.056
5.586,-0.056
5.587,-0.059
5.588,-0.059
5.589,-0.056
5.590,-0.059
5.591,-0.059
5.592,-0.059
5.593,-0.056
5.594,-0.050
5.595,-0.050
5.596,-0.049
5.597,-0.050
5.598,-0.054
5.599,-0.059
5.600,-0.058
5.601,-0.056
5.602,-0.056
5.603,-0.056
5.604,-0.056
5.605,-0.056
5.606,-0.053
5.607,-0.050
5.608,-0.050
5.609,-0.053
5.610,-0.051
5.611,-0.053
5.612,-0.053
5.613,-0.053
5.614,-0.052
5.615,-0.053
5.616,-0.053
5.617,-0.053
5.618,-0.051
5.619,-0.053
5.620,-0.056
5.621,-0.059
5.622,-0.058
5.623,-0.056
5.624,-0.056
5.625,-0.056
5.626,-0.056
5.627,-0.056
5.628,-0.054
5.629,-0.056
5.630,-0.056
5.631,-0.056
5.632,-0.058
5.633,-0.056
5.634,-0.062
5.635,-0.062
5.636,-0.061
5.637,-0.056
5.638,-0.052
5.639,-0.050
5.640,-0.048
5.641,-0.044
5.642,-0.041
5.643,-0.034
5.644,-0.025
5.645,-0.016
5.646,-0.011
5.647,-0.006
5.648,-0.004
5.649,-0.003
5.650,0.000
5.651,0.003
5.652,0.003
5.653,0.006
5.654,0.014
5.655,0.022
5.656,0.022
5.657,0.022
5.658,0.023
5.659,0.025
5.660,0.022
5.661,0.022
5.662,0.025
5.663,0.025
5.664,0.022
5.665,0.025
5.666,0.026
5.667,0.028
5.668,0.028
5.669,0.028
5.670,0.034
5.671,0.038
5.672,0.048
5.673,0.053
5.674,0.053
5.675,0.053
5.676,0.052
5.677,0.050
5.678,0.059
5.679,0.062
5.680,0.073
5.681,0.081
5.682,0.082
5.683,0.084
5.684,0.088
5.685,0.088
5.686,0.086
5.687,0.084
5.688,0.081
5.689,0.075
5.690,0.068
5.691,0.059
5.692,0.055
5.693,0.050
5.694,0.048
5.695,0.044
5.696,0.038
5.697,0.031
5.698,0.031
5.699,0.031
5.700,0.023
5.701,0.022
5.702,0.017
5.703,0.012
5.704,0.006
5.705,0.000
5.706,-0.003
5.707,-0.009
5.708,-0.014
5.709,-0.019
5.710,-0.023
5.711,-0.025
5.712,-0.024
5.713,-0.025
5.714,-0.028
5.715,-0.031
5.716,-0.041
5.717,-0.044
5.718,-0.047
5.719,-0.050
5.720,-0.052
5.721,-0.050
5.722,-0.052
5.723,-0.050
5.724,-0.056
5.725,-0.062
5.726,-0.066
5.727,-0.069
5.728,-0.069
5.729,-0.072
5.730,-0.071
5.731,-0.069
5.732,-0.072
5.733,-0.072
5.734,-0.072
5.735,-0.072
5.736,-0.073
5.737,-0.075
5.738,-0.074
5.739,-0.072
5.740,-0.069
5.741,-0.066
5.742,-0.069
5.743,-0.069
5.744,-0.072
5.745,-0.072
5.746,-0.072
5.747,-0.072
5.748,-0.076
5.749,-0.081
5.750,-0.081
5.751,-0.084
5.752,-0.082
5.753,-0.084
5.754,-0.080
5.755,-0.078
5.756,-0.074
5.757,-0.072
5.758,-0.075
5.759,-0.072
5.760,-0.074
5.761,-0.069
5.762,-0.068
5.763,-0.069
5.764,-0.070
5.765,-0.072
5.766,-0.073
5.767,-0.075
5.768,-0.081
5.769,-0.091
5.770,-0.086
5.771,-0.084
5.772,-0.083
5.773,-0.084
5.774,-0.083
5.775,-0.084
5.776,-0.094
5.777,-0.103
5.778,-0.112
5.779,-0.122
5.780,-0.130
5.781,-0.128
5.782,-0.128
5.783,-0.125
5.784,-0.126
5.785,-0.119
5.786,-0.104
5.787,-0.091
5.788,-0.068
5.789,-0.044
5.790,-0.016
5.791,0.012
5.792,0.047
5.793,0.088
5.794,0.131
5.795,0.181
5.796,0.232
5.797,0.291
5.798,0.342
5.799,0.394
5.800,0.446
5.801,0.503
5.802,0.566
5.803,0.638
5.804,0.714
5.805,0.788
5.806,0.848
5.807,0.906
5.808,0.964
5.809,1.016
5.810,1.067
5.811,1.106
5.812,1.119
5.813,1.122
5.814,1.114
5.815,1.088
5.816,1.036
5.817,0.966
5.818,0.889
5.819,0.816
5.820,0.750
5.821,0.681
5.822,0.619
5.823,0.559
5.824,0.496
5.825,0.422
5.826,0.359
5.827,0.294
5.828,0.227
5.829,0.162
5.830,0.103
5.831,0.059
5.832,0.031
5.833,0.009
5.834,0.002
5.835,-0.003
5.836,-0.002
5.837,-0.003
5.838,-0.009
5.839,-0.016
5.840,-0.034
5.841,-0.050
5.842,-0.058
5.843,-0.066
5.844,-0.072
5.845,-0.081
5.846,-0.089
5.847,-0.094
5.848,-0.094
5.849,-0.094
5.850,-0.094
5.851,-0.094
5.852,-0.089
5.853,-0.084
5.854,-0.081
5.855,-0.078
5.856,-0.077
5.857,-0.069
5.858,-0.064
5.859,-0.056
5.860,-0.055
5.861,-0.053
5.862,-0.052
5.863,-0.050
5.864,-0.050
5.865,-0.050
5.866,-0.053
5.867,-0.059
5.868,-0.064
5.869,-0.072
5.870,-0.072
5.871,-0.078
5.872,-0.077
5.873,-0.075
5.874,-0.075
5.875,-0.075
5.876,-0.078
5.877,-0.075
5.878,-0.073
5.879,-0.072
5.880,-0.069
5.881,-0.066
5.882,-0.069
5.883,-0.069
5.884,-0.068
5.885,-0.069
5.886,-0.070
5.887,-0.072
5.888,-0.072
5.889,-0.072
5.890,-0.071
5.891,-0.069
5.892,-0.069
5.893,-0.069
5.894,-0.070
5.895,-0.072
5.896,-0.072
5.897,-0.072
5.898,-0.073
5.899,-0.072
5.900,-0.071
5.901,-0.072
5.902,-0.069
5.903,-0.069
5.904,-0.071
5.905,-0.069
5.906,-0.072
5.907,-0.072
5.908,-0.073
5.909,-0.072
5.910,-0.072
5.911,-0.072
5.912,-0.072
5.913,-0.072
5.914,-0.071
5.915,-0.066
5.916,-0.066
5.917,-0.066
5.918,-0.064
5.919,-0.062
5.920,-0.067
5.921,-0.066
5.922,-0.069
5.923,-0.069
5.924,-0.069
5.925,-0.069
5.926,-0.066
5.927,-0.066
5.928,-0.066
5.929,-0.066
5.930,-0.067
5.931,-0.069
5.932,-0.069
5.933,-0.069
5.934,-0.070
5.935,-0.069
5.936,-0.071
5.937,-0.069
5.938,-0.066
5.939,-0.059
5.940,-0.061
5.941,-0.062
5.942,-0.062
5.943,-0.066
5.944,-0.066
5.945,-0.066
5.946,-0.067
5.947,-0.069
5.948,-0.066
5.949,-0.066
5.950,-0.066
5.951,-0.066
5.952,-0.066
5.953,-0.066
5.954,-0.064
5.955,-0.062
5.956,-0.059
5.957,-0.056
5.958,-0.058
5.959,-0.059
5.960,-0.059
5.961,-0.059
5.962,-0.059
5.963,-0.059
5.964,-0.058
5.965,-0.059
5.966,-0.064
5.967,-0.062
5.968,-0.062
5.969,-0.062
5.970,-0.062
5.971,-0.062
5.972,-0.064
5.973,-0.062
5.974,-0.061
5.975,-0.059
5.976,-0.058
5.977,-0.059
5.978,-0.062
5.979,-0.066
5.980,-0.067
5.981,-0.069
5.982,-0.066
5.983,-0.069
5.984,-0.064
5.985,-0.062
5.986,-0.059
5.987,-0.053
5.988,-0.053
5.989,-0.056
5.990,-0.058
5.991,-0.059
5.992,-0.056
5.993,-0.059
5.994,-0.053
5.995,-0.050
5.996,-0.050
5.997,-0.050
5.998,-0.053
5.999,-0.056
6.000,-0.056
6.001,-0.056
6.002,-0.056
6.003,-0.053
6.004,-0.052
6.005,-0.050
6.006,-0.054
6.007,-0.053
6.008,-0.056
6.009,-0.056
6.010,-0.053
6.011,-0.053
6.012,-0.053
6.013,-0.050
6.014,-0.051
6.015,-0.053
6.016,-0.050
6.017,-0.053
6.018,-0.050
6.019,-0.053
6.020,-0.051
6.021,-0.053
6.022,-0.053
6.023,-0.053
6.024,-0.053
6.025,-0.053
6.026,-0.053
6.027,-0.053
6.028,-0.051
6.029,-0.053
6.030,-0.053
6.031,-0.053
6.032,-0.053
6.033,-0.053
6.034,-0.055
6.035,-0.053
6.036,-0.052
6.037,-0.050
6.038,-0.048
6.039,-0.050
6.040,-0.049
6.041,-0.047
6.042,-0.050
6.043,-0.050
6.044,-0.051
6.045,-0.050
6.046,-0.053
6.047,-0.056
6.048,-0.053
6.049,-0.056
6.050,-0.054
6.051,-0.056
6.052,-0.053
6.053,-0.053
6.054,-0.053
6.055,-0.053
6.056,-0.056
6.057,-0.053
6.058,-0.053
6.059,-0.053
6.060,-0.049
6.061,-0.050
6.062,-0.050
6.063,-0.050
6.064,-0.050
6.065,-0.050
6.066,-0.050
6.067,-0.050
6.068,-0.050
6.069,-0.050
6.070,-0.048
6.071,-0.050
6.072,-0.053
6.073,-0.053
6.074,-0.056
6.075,-0.059
6.076,-0.058
6.077,-0.056
6.078,-0.056
6.079,-0.056
6.080,-0.056
6.081,-0.056
6.082,-0.053
6.083,-0.053
6.084,-0.054
6.085,-0.053
6.086,-0.053
6.087,-0.053
6.088,-0.053
6.089,-0.050
6.090,-0.051
6.091,-0.050
6.092,-0.050
6.093,-0.050
6.094,-0.051
6.095,-0.050
6.096,-0.052
6.097,-0.050
6.098,-0.051
6.099,-0.053
6.100,-0.053
6.101,-0.053
6.102,-0.051
6.103,-0.050
6.104,-0.046
6.105,-0.041
6.106,-0.038
6.107,-0.038
6.108,-0.038
6.109,-0.038
6.110,-0.036
6.111,-0.038
6.112,-0.036
6.113,-0.038
6.114,-0.032
6.115,-0.034
6.116,-0.033
6.117,-0.031
6.118,-0.022
6.119,-0.016
6.120,-0.014
6.121,-0.012
6.122,-0.012
6.123,-0.012
6.124,-0.014
6.125,-0.012
6.126,-0.011
6.127,-0.006
6.128,-0.005
6.129,0.003
6.130,0.005
6.131,0.006
6.132,0.008
6.133,0.009
6.134,0.014
6.135,0.016
6.136,0.016
6.137,0.019
6.138,0.019
6.139,0.022
6.140,0.026
6.141,0.028
6.142,0.034
6.143,0.041
6.144,0.045
6.145,0.047
6.146,0.049
6.147,0.047
6.148,0.049
6.149,0.047
6.150,0.044
6.151,0.044
6.152,0.044
6.153,0.044
6.154,0.050
6.155,0.053
6.156,0.053
6.157,0.053
6.158,0.053
6.159,0.050
6.160,0.049
6.161,0.050
6.162,0.050
6.163,0.050
6.164,0.050
6.165,0.050
6.166,0.049
6.167,0.047
6.168,0.048
6.169,0.047
6.170,0.048
6.171,0.047
6.172,0.044
6.173,0.044
6.174,0.045
6.175,0.047
6.176,0.048
6.177,0.050
6.178,0.047
6.179,0.044
6.180,0.038
6.181,0.038
6.182,0.041
6.183,0.047
6.184,0.039
6.185,0.041
6.186,0.031
6.187,0.028
6.188,0.025
6.189,0.028
6.190,0.022
6.191,0.019
6.192,0.022
6.193,0.022
6.194,0.023
6.195,0.022
6.196,0.021
6.197,0.019
6.198,0.020
6.199,0.019
6.200,0.020
6.201,0.019
6.202,0.022
6.203,0.025
6.204,0.023
6.205,0.025
6.206,0.024
6.207,0.022
6.208,0.019
6.209,0.012
6.210,0.011
6.211,0.009
6.212,0.009
6.213,0.006
6.214,0.006
6.215,0.006
6.216,0.006
6.217,0.006
6.218,0.006
6.219,0.006
6.220,0.006
6.221,0.006
6.222,0.006
6.223,0.006
6.224,0.006
6.225,0.006
6.226,0.006
6.227,0.006
6.228,0.003
6.229,0.003
6.230,0.002
6.231,0.000
6.232,0.001
6.233,0.003
6.234,0.006
6.235,0.009
6.236,0.008
6.237,0.009
6.238,0.009
6.239,0.009
6.240,0.006
6.241,0.006
6.242,0.005
6.243,0.003
6.244,0.003
6.245,0.003
6.246,0.003
6.247,0.006
6.248,0.008
6.249,0.006
6.250,0.006
6.251,0.006
6.252,0.005
6.253,0.003
6.254,0.004
6.255,0.006
6.256,0.006
6.257,0.006
6.258,0.003
6.259,0.003
6.260,0.000
6.261,-0.003
6.262,-0.003
6.263,-0.003
6.264,-0.003
6.265,-0.003
6.266,-0.002
6.267,-0.003
6.268,-0.004
6.269,-0.003
6.270,-0.002
6.271,-0.003
6.272,-0.003
6.273,-0.003
6.274,-0.004
6.275,-0.006
6.276,-0.009
6.277,-0.012
6.278,-0.011
6.279,-0.012
6.280,-0.012
6.281,-0.012
6.282,-0.012
6.283,-0.012
6.284,-0.011
6.285,-0.009
6.286,-0.012
6.287,-0.012
6.288,-0.014
6.289,-0.012
6.290,-0.014
6.291,-0.012
6.292,-0.012
6.293,-0.012
6.294,-0.011
6.295,-0.012
6.296,-0.012
6.297,-0.009
6.298,-0.012
6.299,-0.012
6.300,-0.014
6.301,-0.016
6.302,-0.014
6.303,-0.016
6.304,-0.016
6.305,-0.016
6.306,-0.019
6.307,-0.019
6.308,-0.019
6.309,-0.022
6.310,-0.020
6.311,-0.022
6.312,-0.025
6.313,-0.025
6.314,-0.025
6.315,-0.025
6.316,-0.026
6.317,-0.031
6.318,-0.028
6.319,-0.028
6.320,-0.030
6.321,-0.028
6.322,-0.027
6.323,-0.025
6.324,-0.029
6.325,-0.031
6.326,-0.032
6.327,-0.038
6.328,-0.034
6.329,-0.038
6.330,-0.041
6.331,-0.044
6.332,-0.044
6.333,-0.044
6.334,-0.042
6.335,-0.041
6.336,-0.039
6.337,-0.041
6.338,-0.039
6.339,-0.038
6.340,-0.034
6.341,-0.031
6.342,-0.036
6.343,-0.034
6.344,-0.034
6.345,-0.034
6.346,-0.038
6.347,-0.038
6.348,-0.042
6.349,-0.047
6.350,-0.049
6.351,-0.047
6.352,-0.047
6.353,-0.047
6.354,-0.048
6.355,-0.050
6.356,-0.050
6.357,-0.050
6.358,-0.049
6.359,-0.047
6.360,-0.051
6.361,-0.050
6.362,-0.050
6.363,-0.050
6.364,-0.049
6.365,-0.050
6.366,-0.049
6.367,-0.047
6.368,-0.051
6.369,-0.050
6.370,-0.049
6.371,-0.050
6.372,-0.047
6.373,-0.050
6.374,-0.050
6.375,-0.050
6.376,-0.050
6.377,-0.050
6.378,-0.050
6.379,-0.050
6.380,-0.050
6.381,-0.050
6.382,-0.050
6.383,-0.050
6.384,-0.050
6.385,-0.050
6.386,-0.050
6.387,-0.050
6.388,-0.053
6.389,-0.056
6.390,-0.058
6.391,-0.056
6.392,-0.058
6.393,-0.059
6.394,-0.059
6.395,-0.062
6.396,-0.059
6.397,-0.053
6.398,-0.053
6.399,-0.053
6.400,-0.054
6.401,-0.056
6.402,-0.056
6.403,-0.056
6.404,-0.055
6.405,-0.056
6.406,-0.056
6.407,-0.056
6.408,-0.053
6.409,-0.056
6.410,-0.056
6.411,-0.056
6.412,-0.055
6.413,-0.053
6.414,-0.050
6.415,-0.053
6.416,-0.051
6.417,-0.053
6.418,-0.053
6.419,-0.053
6.420,-0.052
6.421,-0.053
6.422,-0.053
6.423,-0.053
6.424,-0.056
6.425,-0.059
6.426,-0.061
6.427,-0.059
6.428,-0.062
6.429,-0.062
6.430,-0.058
6.431,-0.053
6.432,-0.050
6.433,-0.050
6.434,-0.053
6.435,-0.053
6.436,-0.050
6.437,-0.053
6.438,-0.054
6.439,-0.056
6.440,-0.054
6.441,-0.053
6.442,-0.055
6.443,-0.053
6.444,-0.056
6.445,-0.056
6.446,-0.059
6.447,-0.062
6.448,-0.059
6.449,-0.056
6.450,-0.058
6.451,-0.059
6.452,-0.061
6.453,-0.062
6.454,-0.061
6.455,-0.059
6.456,-0.061
6.457,-0.056
6.458,-0.058
6.459,-0.059
6.460,-0.061
6.461,-0.062
6.462,-0.067
6.463,-0.069
6.464,-0.069
6.465,-0.066
6.466,-0.066
6.467,-0.066
6.468,-0.066
6.469,-0.066
6.470,-0.066
6.471,-0.066
6.472,-0.066
6.473,-0.066
6.474,-0.067
6.475,-0.066
6.476,-0.066
6.477,-0.066
6.478,-0.062
6.479,-0.059
6.480,-0.056
6.481,-0.059
6.482,-0.059
6.483,-0.062
6.484,-0.058
6.485,-0.053
6.486,-0.056
6.487,-0.056
6.488,-0.051
6.489,-0.047
6.490,-0.038
6.491,-0.031
6.492,-0.025
6.493,-0.022
6.494,-0.020
6.495,-0.019
6.496,-0.017
6.497,-0.016
6.498,-0.011
6.499,-0.006
6.500,0.001
6.501,0.006
6.502,0.012
6.503,0.016
6.504,0.016
6.505,0.016
6.506,0.014
6.507,0.009
6.508,0.008
6.509,0.009
6.510,0.011
6.511,0.009
6.512,0.011
6.513,0.009
6.514,0.003
6.515,0.003
6.516,0.009
6.517,0.016
6.518,0.019
6.519,0.025
6.520,0.028
6.521,0.031
6.522,0.030
6.523,0.031
6.524,0.034
6.525,0.044
6.526,0.051
6.527,0.062
6.528,0.067
6.529,0.069
6.530,0.070
6.531,0.072
6.532,0.073
6.533,0.072
6.534,0.067
6.535,0.066
6.536,0.064
6.537,0.062
6.538,0.056
6.539,0.053
6.540,0.049
6.541,0.044
6.542,0.036
6.543,0.031
6.544,0.025
6.545,0.019
6.546,0.020
6.547,0.016
6.548,0.012
6.549,0.006
6.550,0.001
6.551,-0.003
6.552,-0.009
6.553,-0.012
6.554,-0.022
6.555,-0.025
6.556,-0.025
6.557,-0.028
6.558,-0.032
6.559,-0.038
6.560,-0.041
6.561,-0.044
6.562,-0.044
6.563,-0.047
6.564,-0.047
6.565,-0.050
6.566,-0.054
6.567,-0.059
6.568,-0.061
6.569,-0.066
6.570,-0.064
6.571,-0.066
6.572,-0.068
6.573,-0.069
6.574,-0.071
6.575,-0.069
6.576,-0.072
6.577,-0.072
6.578,-0.073
6.579,-0.078
6.580,-0.081
6.581,-0.084
6.582,-0.086
6.583,-0.088
6.584,-0.084
6.585,-0.081
6.586,-0.078
6.587,-0.075
6.588,-0.074
6.589,-0.075
6.590,-0.076
6.591,-0.078
6.592,-0.078
6.593,-0.081
6.594,-0.080
6.595,-0.081
6.596,-0.084
6.597,-0.081
6.598,-0.082
6.599,-0.081
6.600,-0.081
6.601,-0.081
6.602,-0.084
6.603,-0.081
6.604,-0.078
6.605,-0.078
6.606,-0.075
6.607,-0.078
6.608,-0.075
6.609,-0.075
6.610,-0.079
6.611,-0.081
6.612,-0.081
6.613,-0.081
6.614,-0.082
6.615,-0.084
6.616,-0.086
6.617,-0.084
6.618,-0.086
6.619,-0.084
6.620,-0.088
6.621,-0.088
6.622,-0.091
6.623,-0.100
6.624,-0.111
6.625,-0.122
6.626,-0.132
6.627,-0.144
6.628,-0.145
6.629,-0.144
6.630,-0.134
6.631,-0.128
6.632,-0.117
6.633,-0.103
6.634,-0.094
6.635,-0.078
6.636,-0.053
6.637,-0.019
6.638,0.011
6.639,0.044
6.640,0.083
6.641,0.128
6.642,0.181
6.643,0.231
6.644,0.291
6.645,0.344
6.646,0.397
6.647,0.453
6.648,0.512
6.649,0.578
6.650,0.652
6.651,0.725
6.652,0.796
6.653,0.853
6.654,0.908
6.655,0.962
6.656,1.012
6.657,1.059
6.658,1.097
6.659,1.109
6.660,1.116
6.661,1.109
6.662,1.079
6.663,1.028
6.664,0.955
6.665,0.878
6.666,0.805
6.667,0.734
6.668,0.664
6.669,0.603
6.670,0.534
6.671,0.462
6.672,0.394
6.673,0.331
6.674,0.261
6.675,0.194
6.676,0.130
6.677,0.072
6.678,0.030
6.679,0.003
6.680,-0.016
6.681,-0.019
6.682,-0.020
6.683,-0.022
6.684,-0.019
6.685,-0.025
6.686,-0.038
6.687,-0.056
6.688,-0.075
6.689,-0.088
6.690,-0.097
6.691,-0.100
6.692,-0.103
6.693,-0.106
6.694,-0.112
6.695,-0.109
6.696,-0.104
6.697,-0.103
6.698,-0.100
6.699,-0.097
6.700,-0.092
6.701,-0.091
6.702,-0.089
6.703,-0.088
6.704,-0.081
6.705,-0.078
6.706,-0.069
6.707,-0.066
6.708,-0.066
6.709,-0.066
6.710,-0.066
6.711,-0.066
6.712,-0.062
6.713,-0.062
6.714,-0.066
6.715,-0.062
6.716,-0.064
6.717,-0.062
6.718,-0.069
6.719,-0.069
6.720,-0.070
6.721,-0.072
6.722,-0.072
6.723,-0.075
6.724,-0.075
6.725,-0.075
6.726,-0.073
6.727,-0.075
6.728,-0.074
6.729,-0.075
6.730,-0.075
6.731,-0.075
6.732,-0.079
6.733,-0.081
6.734,-0.082
6.735,-0.084
6.736,-0.080
6.737,-0.075
6.738,-0.075
6.739,-0.075
6.740,-0.075
6.741,-0.075
6.742,-0.076
6.743,-0.078
6.744,-0.078
6.745,-0.078
6.746,-0.074
6.747,-0.072
6.748,-0.075
6.749,-0.072
6.750,-0.072
6.751,-0.075
6.752,-0.074
6.753,-0.075
6.754,-0.075
6.755,-0.075
6.756,-0.073
6.757,-0.075
6.758,-0.075
6.759,-0.075
6.760,-0.075
6.761,-0.075
6.762,-0.076
6.763,-0.081
6.764,-0.078
6.765,-0.075
6.766,-0.074
6.767,-0.075
6.768,-0.073
6.769,-0.078
6.770,-0.079
6.771,-0.081
6.772,-0.081
6.773,-0.078
6.774,-0.075
6.775,-0.072
6.776,-0.072
6.777,-0.072
6.778,-0.072
6.779,-0.072
6.780,-0.073
6.781,-0.075
6.782,-0.071
6.783,-0.072
6.784,-0.071
6.785,-0.069
6.786,-0.066
6.787,-0.066
6.788,-0.064
6.789,-0.062
6.790,-0.069
6.791,-0.072
6.792,-0.073
6.793,-0.075
6.794,-0.074
6.795,-0.069
6.796,-0.068
6.797,-0.066
6.798,-0.061
6.799,-0.056
6.800,-0.059
6.801,-0.062
6.802,-0.062
6.803,-0.062
6.804,-0.061
6.805,-0.059
6.806,-0.059
6.807,-0.059
6.808,-0.059
6.809,-0.059
6.810,-0.061
6.811,-0.059
6.812,-0.059
6.813,-0.062
6.814,-0.061
6.815,-0.062
6.816,-0.062
6.817,-0.062
6.818,-0.062
6.819,-0.062
6.820,-0.061
6.821,-0.062
6.822,-0.061
6.823,-0.059
6.824,-0.062
6.825,-0.062
6.826,-0.061
6.827,-0.059
6.828,-0.058
6.829,-0.053
6.830,-0.058
6.831,-0.056
6.832,-0.056
6.833,-0.056
6.834,-0.058
6.835,-0.062
6.836,-0.066
6.837,-0.066
6.838,-0.066
6.839,-0.062
6.840,-0.064
6.841,-0.059
6.842,-0.059
6.843,-0.059
6.844,-0.056
6.845,-0.053
6.846,-0.052
6.847,-0.050
6.848,-0.053
6.849,-0.056
6.850,-0.053
6.851,-0.053
6.852,-0.053
6.853,-0.056
6.854,-0.053
6.855,-0.056
6.856,-0.055
6.857,-0.050
6.858,-0.050
6.859,-0.050
6.860,-0.048
6.861,-0.050
6.862,-0.050
6.863,-0.047
6.864,-0.050
6.865,-0.047
6.866,-0.051
6.867,-0.050
6.868,-0.050
6.869,-0.050
6.870,-0.050
6.871,-0.050
6.872,-0.050
6.873,-0.050
6.874,-0.051
6.875,-0.050
6.876,-0.050
6.877,-0.050
6.878,-0.050
6.879,-0.050
6.880,-0.049
6.881,-0.050
6.882,-0.050
6.883,-0.050
6.884,-0.051
6.885,-0.050
6.886,-0.050
6.887,-0.050
6.888,-0.046
6.889,-0.044
6.890,-0.042
6.891,-0.041
6.892,-0.041
6.893,-0.044
6.894,-0.045
6.895,-0.044
6.896,-0.047
6.897,-0.044
6.898,-0.044
6.899,-0.044
6.900,-0.047
6.901,-0.047
6.902,-0.048
6.903,-0.050
6.904,-0.042
6.905,-0.044
6.906,-0.047
6.907,-0.044
6.908,-0.047
6.909,-0.047
6.910,-0.047
6.911,-0.047
6.912,-0.047
6.913,-0.047
6.914,-0.047
6.915,-0.047
6.916,-0.050
6.917,-0.050
6.918,-0.050
6.919,-0.053
6.920,-0.053
6.921,-0.053
6.922,-0.053
6.923,-0.053
6.924,-0.052
6.925,-0.050
6.926,-0.051
6.927,-0.053
6.928,-0.054
6.929,-0.053
6.930,-0.053
6.931,-0.053
6.932,-0.050
6.933,-0.050
6.934,-0.049
6.935,-0.050
6.936,-0.050
6.937,-0.050
6.938,-0.048
6.939,-0.050
6.940,-0.047
6.941,-0.044
6.942,-0.041
6.943,-0.044
6.944,-0.044
6.945,-0.044
6.946,-0.042
6.947,-0.041
6.948,-0.042
6.949,-0.041
6.950,-0.039
6.951,-0.041
6.952,-0.042
6.953,-0.041
6.954,-0.041
6.955,-0.041
6.956,-0.039
6.957,-0.034
6.958,-0.036
6.959,-0.034
6.960,-0.034
6.961,-0.028
6.962,-0.024
6.963,-0.019
6.964,-0.022
6.965,-0.019
6.966,-0.017
6.967,-0.019
6.968,-0.018
6.969,-0.012
6.970,-0.009
6.971,-0.009
6.972,-0.005
6.973,-0.003
6.974,0.000
6.975,0.000
6.976,0.005
6.977,0.006
6.978,0.008
6.979,0.009
6.980,0.012
6.981,0.016
6.982,0.019
6.983,0.022
6.984,0.024
6.985,0.022
6.986,0.025
6.987,0.028
6.988,0.029
6.989,0.034
6.990,0.034
6.991,0.034
6.992,0.033
6.993,0.034
6.994,0.036
6.995,0.041
6.996,0.041
6.997,0.041
6.998,0.044
6.999,0.044
7.000,0.045
7.001,0.050
7.002,0.050
7.003,0.050
7.004,0.050
7.005,0.050
7.006,0.046
7.007,0.044
7.008,0.046
7.009,0.044
7.010,0.041
7.011,0.038
7.012,0.039
7.013,0.041
7.014,0.042
7.015,0.044
7.016,0.042
7.017,0.044
7.018,0.042
7.019,0.041
7.020,0.042
7.021,0.044
7.022,0.044
7.023,0.044
7.024,0.045
7.025,0.044
7.026,0.042
7.027,0.041
7.028,0.041
7.029,0.038
7.030,0.041
7.031,0.034
7.032,0.036
7.033,0.028
7.034,0.027
7.035,0.022
7.036,0.025
7.037,0.022
7.038,0.023
7.039,0.025
7.040,0.025
7.041,0.028
7.042,0.025
7.043,0.025
7.044,0.025
7.045,0.025
7.046,0.019
7.047,0.016
7.048,0.011
7.049,0.012
7.050,0.020
7.051,0.022
7.052,0.021
7.053,0.019
7.054,0.019
7.055,0.019
7.056,0.016
7.057,0.016
7.058,0.017
7.059,0.019
7.060,0.016
7.061,0.016
7.062,0.014
7.063,0.012
7.064,0.012
7.065,0.012
7.066,0.014
7.067,0.016
7.068,0.016
7.069,0.016
7.070,0.016
7.071,0.016
7.072,0.016
7.073,0.016
7.074,0.016
7.075,0.012
7.076,0.011
7.077,0.009
7.078,0.009
7.079,0.009
7.080,0.008
7.081,0.006
7.082,0.008
7.083,0.009
7.084,0.011
7.085,0.009
7.086,0.011
7.087,0.009
7.088,0.008
7.089,0.006
7.090,0.006
7.091,0.006
7.092,0.006
7.093,0.006
7.094,0.008
7.095,0.006
7.096,0.003
7.097,0.003
7.098,0.003
7.099,0.003
7.100,0.003
7.101,0.003
7.102,0.004
7.103,0.006
7.104,0.008
7.105,0.006
7.106,0.005
7.107,0.003
7.108,0.003
7.109,0.003
7.110,0.003
7.111,0.003
7.112,0.000
7.113,-0.003
7.114,-0.006
7.115,-0.006
7.116,-0.003
7.117,-0.003
7.118,-0.003
7.119,0.000
7.120,0.000
7.121,0.000
7.122,0.000
7.123,0.000
7.124,0.000
7.125,0.000
7.126,-0.006
7.127,-0.009
7.128,-0.008
7.129,-0.006
7.130,-0.005
7.131,-0.003
7.132,-0.004
7.133,-0.009
7.134,-0.009
7.135,-0.012
7.136,-0.012
7.137,-0.012
7.138,-0.009
7.139,-0.009
7.140,-0.008
7.141,-0.006
7.142,-0.009
7.143,-0.009
7.144,-0.006
7.145,-0.009
7.146,-0.011
7.147,-0.012
7.148,-0.011
7.149,-0.009
7.150,-0.016
7.151,-0.019
7.152,-0.019
7.153,-0.022
7.154,-0.022
7.155,-0.022
7.156,-0.024
7.157,-0.019
7.158,-0.018
7.159,-0.019
7.160,-0.019
7.161,-0.019
7.162,-0.022
7.163,-0.025
7.164,-0.027
7.165,-0.022
7.166,-0.022
7.167,-0.025
7.168,-0.025
7.169,-0.025
7.170,-0.024
7.171,-0.025
7.172,-0.024
7.173,-0.022
7.174,-0.025
7.175,-0.022
7.176,-0.025
7.177,-0.025
7.178,-0.026
7.179,-0.028
7.180,-0.029
7.181,-0.031
7.182,-0.030
7.183,-0.028
7.184,-0.030
7.185,-0.028
7.186,-0.028
7.187,-0.028
7.188,-0.027
7.189,-0.028
7.190,-0.026
7.191,-0.028
7.192,-0.027
7.193,-0.028
7.194,-0.028
7.195,-0.028
7.196,-0.027
7.197,-0.028
7.198,-0.029
7.199,-0.031
7.200,-0.031
7.201,-0.031
7.202,-0.031
7.203,-0.031
7.204,-0.031
7.205,-0.031
7.206,-0.032
7.207,-0.038
7.208,-0.036
7.209,-0.038
7.210,-0.036
7.211,-0.034
7.212,-0.036
7.213,-0.034
7.214,-0.033
7.215,-0.034
7.216,-0.031
7.217,-0.031
7.218,-0.036
7.219,-0.034
7.220,-0.038
7.221,-0.038
7.222,-0.038
7.223,-0.038
7.224,-0.038
7.225,-0.038
7.226,-0.038
7.227,-0.038
7.228,-0.038
7.229,-0.038
7.230,-0.038
7.231,-0.038
7.232,-0.038
7.233,-0.038
7.234,-0.036
7.235,-0.034
7.236,-0.033
7.237,-0.034
7.238,-0.034
7.239,-0.034
7.240,-0.034
7.241,-0.034
7.242,-0.038
7.243,-0.038
7.244,-0.036
7.245,-0.038
7.246,-0.038
7.247,-0.038
7.248,-0.038
7.249,-0.038
7.250,-0.036
7.251,-0.034
7.252,-0.041
7.253,-0.044
7.254,-0.044
7.255,-0.041
7.256,-0.042
7.257,-0.041
7.258,-0.042
7.259,-0.044
7.260,-0.044
7.261,-0.041
7.262,-0.044
7.263,-0.041
7.264,-0.042
7.265,-0.044
7.266,-0.045
7.267,-0.044
7.268,-0.046
7.269,-0.044
7.270,-0.042
7.271,-0.041
7.272,-0.039
7.273,-0.038
7.274,-0.041
7.275,-0.041
7.276,-0.041
7.277,-0.041
7.278,-0.041
7.279,-0.041
7.280,-0.041
7.281,-0.041
7.282,-0.036
7.283,-0.038
7.284,-0.036
7.285,-0.041
7.286,-0.039
7.287,-0.038
7.288,-0.041
7.289,-0.044
7.290,-0.045
7.291,-0.047
7.292,-0.047
7.293,-0.044
7.294,-0.047
7.295,-0.047
7.296,-0.046
7.297,-0.044
7.298,-0.044
7.299,-0.047
7.300,-0.050
7.301,-0.050
7.302,-0.046
7.303,-0.047
7.304,-0.042
7.305,-0.038
7.306,-0.034
7.307,-0.031
7.308,-0.033
7.309,-0.031
7.310,-0.038
7.311,-0.041
7.312,-0.044
7.313,-0.047
7.314,-0.047
7.315,-0.047
7.316,-0.047
7.317,-0.047
7.318,-0.048
7.319,-0.050
7.320,-0.051
7.321,-0.053
7.322,-0.056
7.323,-0.053
7.324,-0.050
7.325,-0.047
7.326,-0.047
7.327,-0.047
7.328,-0.051
7.329,-0.053
7.330,-0.054
7.331,-0.053
7.332,-0.053
7.333,-0.053
7.334,-0.053
7.335,-0.053
7.336,-0.052
7.337,-0.050
7.338,-0.050
7.339,-0.050
7.340,-0.051
7.341,-0.050
7.342,-0.050
7.343,-0.050
7.344,-0.049
7.345,-0.047
7.346,-0.042
7.347,-0.044
7.348,-0.042
7.349,-0.044
7.350,-0.044
7.351,-0.044
7.352,-0.047
7.353,-0.047
7.354,-0.041
7.355,-0.034
7.356,-0.025
7.357,-0.019
7.358,-0.008
7.359,0.000
7.360,0.002
7.361,0.003
7.362,0.006
7.363,0.009
7.364,0.014
7.365,0.019
7.366,0.022
7.367,0.022
7.368,0.025
7.369,0.025
7.370,0.025
7.371,0.025
7.372,0.026
7.373,0.025
7.374,0.024
7.375,0.025
7.376,0.026
7.377,0.025
7.378,0.027
7.379,0.025
7.380,0.022
7.381,0.025
7.382,0.031
7.383,0.038
7.384,0.041
7.385,0.047
7.386,0.047
7.387,0.047
7.388,0.047
7.389,0.050
7.390,0.052
7.391,0.059
7.392,0.067
7.393,0.078
7.394,0.081
7.395,0.081
7.396,0.081
7.397,0.081
7.398,0.078
7.399,0.072
7.400,0.067
7.401,0.066
7.402,0.058
7.403,0.050
7.404,0.047
7.405,0.047
7.406,0.045
7.407,0.044
7.408,0.034
7.409,0.028
7.410,0.022
7.411,0.016
7.412,0.017
7.413,0.012
7.414,0.005
7.415,-0.006
7.416,-0.012
7.417,-0.019
7.418,-0.024
7.419,-0.025
7.420,-0.032
7.421,-0.034
7.422,-0.034
7.423,-0.038
7.424,-0.036
7.425,-0.034
7.426,-0.036
7.427,-0.038
7.428,-0.042
7.429,-0.050
7.430,-0.051
7.431,-0.056
7.432,-0.056
7.433,-0.056
7.434,-0.055
7.435,-0.056
7.436,-0.058
7.437,-0.062
7.438,-0.064
7.439,-0.066
7.440,-0.068
7.441,-0.066
7.442,-0.073
7.443,-0.078
7.444,-0.077
7.445,-0.078
7.446,-0.079
7.447,-0.081
7.448,-0.082
7.449,-0.084
7.450,-0.084
7.451,-0.084
7.452,-0.084
7.453,-0.084
7.454,-0.081
7.455,-0.081
7.456,-0.081
7.457,-0.081
7.458,-0.082
7.459,-0.088
7.460,-0.086
7.461,-0.088
7.462,-0.092
7.463,-0.091
7.464,-0.088
7.465,-0.081
7.466,-0.081
7.467,-0.081
7.468,-0.088
7.469,-0.088
7.470,-0.088
7.471,-0.091
7.472,-0.086
7.473,-0.088
7.474,-0.084
7.475,-0.084
7.476,-0.089
7.477,-0.091
7.478,-0.091
7.479,-0.091
7.480,-0.089
7.481,-0.088
7.482,-0.089
7.483,-0.088
7.484,-0.089
7.485,-0.088
7.486,-0.092
7.487,-0.094
7.488,-0.096
7.489,-0.103
7.490,-0.111
7.491,-0.119
7.492,-0.129
7.493,-0.141
7.494,-0.141
7.495,-0.138
7.496,-0.130
7.497,-0.125
7.498,-0.114
7.499,-0.100
7.500,-0.084
7.501,-0.062
7.502,-0.042
7.503,-0.012
7.504,0.022
7.505,0.059
7.506,0.104
7.507,0.156
7.508,0.211
7.509,0.262
7.510,0.320
7.511,0.372
7.512,0.416
7.513,0.462
7.514,0.523
7.515,0.591
7.516,0.664
7.517,0.738
7.518,0.809
7.519,0.869
7.520,0.928
7.521,0.988
7.522,1.036
7.523,1.081
7.524,1.112
7.525,1.119
7.526,1.119
7.527,1.106
7.528,1.068
7.529,1.006
7.530,0.938
7.531,0.866
7.532,0.789
7.533,0.716
7.534,0.642
7.535,0.578
7.536,0.519
7.537,0.456
7.538,0.383
7.539,0.316
7.540,0.248
7.541,0.184
7.542,0.122
7.543,0.066
7.544,0.029
7.545,0.009
7.546,-0.008
7.547,-0.009
7.548,-0.009
7.549,-0.009
7.550,-0.012
7.551,-0.025
7.552,-0.038
7.553,-0.056
7.554,-0.075
7.555,-0.088
7.556,-0.096
7.557,-0.097
7.558,-0.100
7.559,-0.103
7.560,-0.109
7.561,-0.106
7.562,-0.100
7.563,-0.097
7.564,-0.095
7.565,-0.094
7.566,-0.089
7.567,-0.088
7.568,-0.086
7.569,-0.084
7.570,-0.081
7.571,-0.081
7.572,-0.075
7.573,-0.075
7.574,-0.075
7.575,-0.075
7.576,-0.075
7.577,-0.075
7.578,-0.072
7.579,-0.072
7.580,-0.075
7.581,-0.072
7.582,-0.079
7.583,-0.084
7.584,-0.091
7.585,-0.091
7.586,-0.091
7.587,-0.091
7.588,-0.089
7.589,-0.091
7.590,-0.088
7.591,-0.084
7.592,-0.080
7.593,-0.078
7.594,-0.078
7.595,-0.081
7.596,-0.082
7.597,-0.084
7.598,-0.088
7.599,-0.088
7.600,-0.092
7.601,-0.097
7.602,-0.097
7.603,-0.097
7.604,-0.094
7.605,-0.091
7.606,-0.091
7.607,-0.091
7.608,-0.091
7.609,-0.091
7.610,-0.092
7.611,-0.094
7.612,-0.089
7.613,-0.088
7.614,-0.088
7.615,-0.081
7.616,-0.081
7.617,-0.084
7.618,-0.084
7.619,-0.088
7.620,-0.088
7.621,-0.088
7.622,-0.086
7.623,-0.088
7.624,-0.088
7.625,-0.088
7.626,-0.089
7.627,-0.091
7.628,-0.089
7.629,-0.091
7.630,-0.091
7.631,-0.091
7.632,-0.089
7.633,-0.091
7.634,-0.088
7.635,-0.091
7.636,-0.091
7.637,-0.091
7.638,-0.094
7.639,-0.094
7.640,-0.092
7.641,-0.091
7.642,-0.091
7.643,-0.091
7.644,-0.091
7.645,-0.091
7.646,-0.089
7.647,-0.088
7.648,-0.083
7.649,-0.084
7.650,-0.084
7.651,-0.084
7.652,-0.081
7.653,-0.081
7.654,-0.081
7.655,-0.081
7.656,-0.084
7.657,-0.084
7.658,-0.084
7.659,-0.084
7.660,-0.086
7.661,-0.084
7.662,-0.086
7.663,-0.088
7.664,-0.089
7.665,-0.091
7.666,-0.088
7.667,-0.084
7.668,-0.086
7.669,-0.088
7.670,-0.088
7.671,-0.088
7.672,-0.088
7.673,-0.088
7.674,-0.088
7.675,-0.088
7.676,-0.088
7.677,-0.084
7.678,-0.084
7.679,-0.088
7.680,-0.086
7.681,-0.088
7.682,-0.086
7.683,-0.084
7.684,-0.083
7.685,-0.081
7.686,-0.078
7.687,-0.078
7.688,-0.077
7.689,-0.075
7.690,-0.079
7.691,-0.081
7.692,-0.081
7.693,-0.081
7.694,-0.084
7.695,-0.084
7.696,-0.084
7.697,-0.078
7.698,-0.077
7.699,-0.075
7.700,-0.072
7.701,-0.072
7.702,-0.076
7.703,-0.078
7.704,-0.077
7.705,-0.072
7.706,-0.076
7.707,-0.075
7.708,-0.075
7.709,-0.075
7.710,-0.075
7.711,-0.075
7.712,-0.075
7.713,-0.075
7.714,-0.072
7.715,-0.069
7.716,-0.067
7.717,-0.069
7.718,-0.069
7.719,-0.072
7.720,-0.068
7.721,-0.069
7.722,-0.070
7.723,-0.069
7.724,-0.070
7.725,-0.072
7.726,-0.070
7.727,-0.072
7.728,-0.072
7.729,-0.069
7.730,-0.072
7.731,-0.069
7.732,-0.072
7.733,-0.069
7.734,-0.070
7.735,-0.072
7.736,-0.069
7.737,-0.066
7.738,-0.062
7.739,-0.059
7.740,-0.062
7.741,-0.062
7.742,-0.059
7.743,-0.056
7.744,-0.056
7.745,-0.056
7.746,-0.055
7.747,-0.056
7.748,-0.058
7.749,-0.059
7.750,-0.064
7.751,-0.066
7.752,-0.067
7.753,-0.069
7.754,-0.068
7.755,-0.069
7.756,-0.069
7.757,-0.069
7.758,-0.064
7.759,-0.062
7.760,-0.062
7.761,-0.059
7.762,-0.064
7.763,-0.062
7.764,-0.064
7.765,-0.066
7.766,-0.068
7.767,-0.066
7.768,-0.061
7.769,-0.056
7.770,-0.050
7.771,-0.053
7.772,-0.058
7.773,-0.056
7.774,-0.061
7.775,-0.062
7.776,-0.062
7.777,-0.062
7.778,-0.062
7.779,-0.062
7.780,-0.062
7.781,-0.062
7.782,-0.064
7.783,-0.062
7.784,-0.061
7.785,-0.062
7.786,-0.062
7.787,-0.062
7.788,-0.061
7.789,-0.059
7.790,-0.059
7.791,-0.059
7.792,-0.061
7.793,-0.062
7.794,-0.062
7.795,-0.059
7.796,-0.059
7.797,-0.059
7.798,-0.059
7.799,-0.062
7.800,-0.061
7.801,-0.062
7.802,-0.062
7.803,-0.062
7.804,-0.061
7.805,-0.062
7.806,-0.062
7.807,-0.062
7.808,-0.056
7.809,-0.056
7.810,-0.056
7.811,-0.056
7.812,-0.056
7.813,-0.056
7.814,-0.056
7.815,-0.053
7.816,-0.049
7.817,-0.047
7.818,-0.046
7.819,-0.041
7.820,-0.041
7.821,-0.041
7.822,-0.039
7.823,-0.034
7.824,-0.036
7.825,-0.034
7.826,-0.034
7.827,-0.028
7.828,-0.028
7.829,-0.028
7.830,-0.028
7.831,-0.022
7.832,-0.019
7.833,-0.019
7.834,-0.020
7.835,-0.019
7.836,-0.016
7.837,-0.016
7.838,-0.008
7.839,-0.003
7.840,0.000
7.841,0.000
7.842,0.003
7.843,0.003
7.844,0.005
7.845,0.006
7.846,0.008
7.847,0.009
7.848,0.011
7.849,0.012
7.850,0.017
7.851,0.019
7.852,0.021
7.853,0.022
7.854,0.022
7.855,0.025
7.856,0.025
7.857,0.025
7.858,0.026
7.859,0.031
7.860,0.034
7.861,0.041
7.862,0.041
7.863,0.041
7.864,0.041
7.865,0.038
7.866,0.038
7.867,0.041
7.868,0.041
7.869,0.041
7.870,0.041
7.871,0.041
7.872,0.038
7.873,0.038
7.874,0.039
7.875,0.038
7.876,0.038
7.877,0.038
7.878,0.039
7.879,0.041
7.880,0.041
7.881,0.041
7.882,0.038
7.883,0.038
7.884,0.034
7.885,0.031
7.886,0.030
7.887,0.028
7.888,0.029
7.889,0.031
7.890,0.031
7.891,0.028
7.892,0.026
7.893,0.025
7.894,0.025
7.895,0.022
7.896,0.026
7.897,0.022
7.898,0.028
7.899,0.025
7.900,0.025
7.901,0.022
7.902,0.025
7.903,0.022
7.904,0.023
7.905,0.025
7.906,0.022
7.907,0.022
7.908,0.019
7.909,0.019
7.910,0.018
7.911,0.016
7.912,0.012
7.913,0.012
7.914,0.008
7.915,0.009
7.916,0.012
7.917,0.009
7.918,0.006
7.919,0.003
7.920,0.003
7.921,0.003
7.922,0.001
7.923,0.003
7.924,0.004
7.925,0.006
7.926,0.004
7.927,0.006
7.928,0.006
7.929,0.006
7.930,0.005
7.931,0.003
7.932,0.003
7.933,0.003
7.934,0.003
7.935,0.003
7.936,0.000
7.937,-0.003
7.938,-0.002
7.939,0.000
7.940,0.003
7.941,0.003
7.942,0.003
7.943,0.003
7.944,0.002
7.945,0.000
7.946,0.000
7.947,0.000
7.948,-0.001
7.949,-0.003
7.950,-0.001
7.951,-0.003
7.952,-0.003
7.953,-0.006
7.954,-0.006
7.955,-0.006
7.956,-0.006
7.957,-0.006
7.958,-0.003
7.959,0.000
7.960,0.004
7.961,0.006
7.962,0.003
7.963,0.003
7.964,0.003
7.965,0.003
7.966,0.003
7.967,0.003
7.968,0.003
7.969,0.003
7.970,0.004
7.971,0.003
7.972,0.002
7.973,0.000
7.974,0.000
7.975,0.000
7.976,0.000
7.977,0.000
7.978,0.001
7.979,0.003
7.980,0.000
7.981,0.000
7.982,0.003
7.983,0.003
7.984,-0.003
7.985,-0.006
7.986,-0.006
7.987,-0.006
7.988,-0.006
7.989,-0.006
7.990,-0.006
7.991,-0.006
7.992,-0.009
7.993,-0.009
7.994,-0.009
7.995,-0.009
7.996,-0.009
7.997,-0.009
7.998,-0.009
7.999,-0.012
8.000,-0.012
8.001,-0.016
8.002,-0.016
8.003,-0.016
8.004,-0.012
8.005,-0.012
8.006,-0.012
8.007,-0.012
8.008,-0.016
8.009,-0.016
8.010,-0.011
8.011,-0.012
8.012,-0.012
8.013,-0.012
8.014,-0.012
8.015,-0.012
8.016,-0.014
8.017,-0.012
8.018,-0.011
8.019,-0.012
8.020,-0.016
8.021,-0.019
8.022,-0.022
8.023,-0.019
8.024,-0.018
8.025,-0.019
8.026,-0.019
8.027,-0.019
8.028,-0.022
8.029,-0.025
8.030,-0.029
8.031,-0.028
8.032,-0.027
8.033,-0.028
8.034,-0.028
8.035,-0.028
8.036,-0.027
8.037,-0.028
8.038,-0.028
8.039,-0.028
8.040,-0.031
8.041,-0.028
8.042,-0.031
8.043,-0.031
8.044,-0.032
8.045,-0.034
8.046,-0.034
8.047,-0.034
8.048,-0.034
8.049,-0.034
8.050,-0.036
8.051,-0.034
8.052,-0.034
8.053,-0.034
8.054,-0.033
8.055,-0.034
8.056,-0.032
8.057,-0.034
8.058,-0.033
8.059,-0.034
8.060,-0.034
8.061,-0.034
8.062,-0.033
8.063,-0.034
8.064,-0.038
8.065,-0.041
8.066,-0.042
8.067,-0.044
8.068,-0.044
8.069,-0.044
8.070,-0.042
8.071,-0.041
8.072,-0.041
8.073,-0.044
8.074,-0.042
8.075,-0.044
8.076,-0.045
8.077,-0.047
8.078,-0.050
8.079,-0.050
8.080,-0.050
8.081,-0.053
8.082,-0.049
8.083,-0.047
8.084,-0.050
8.085,-0.047
8.086,-0.050
8.087,-0.050
8.088,-0.050
8.089,-0.050
8.090,-0.049
8.091,-0.047
8.092,-0.047
8.093,-0.047
8.094,-0.047
8.095,-0.047
8.096,-0.047
8.097,-0.047
8.098,-0.047
8.099,-0.047
8.100,-0.048
8.101,-0.050
8.102,-0.049
8.103,-0.050
8.104,-0.050
8.105,-0.050
8.106,-0.050
8.107,-0.050
8.108,-0.053
8.109,-0.053
8.110,-0.051
8.111,-0.053
8.112,-0.053
8.113,-0.053
8.114,-0.053
8.115,-0.053
8.116,-0.053
8.117,-0.053
8.118,-0.053
8.119,-0.050
8.120,-0.051
8.121,-0.050
8.122,-0.053
8.123,-0.053
8.124,-0.054
8.125,-0.056
8.126,-0.053
8.127,-0.047
8.128,-0.051
8.129,-0.050
8.130,-0.050
8.131,-0.050
8.132,-0.050
8.133,-0.047
8.134,-0.050
8.135,-0.050
8.136,-0.050
8.137,-0.050
8.138,-0.049
8.139,-0.047
8.140,-0.050
8.141,-0.050
8.142,-0.050
8.143,-0.050
8.144,-0.051
8.145,-0.053
8.146,-0.053
8.147,-0.053
8.148,-0.050
8.149,-0.053
8.150,-0.050
8.151,-0.053
8.152,-0.054
8.153,-0.056
8.154,-0.059
8.155,-0.059
8.156,-0.056
8.157,-0.059
8.158,-0.062
8.159,-0.062
8.160,-0.061
8.161,-0.062
8.162,-0.059
8.163,-0.059
8.164,-0.056
8.165,-0.053
8.166,-0.056
8.167,-0.056
8.168,-0.056
8.169,-0.056
8.170,-0.058
8.171,-0.056
8.172,-0.057
8.173,-0.053
8.174,-0.053
8.175,-0.053
8.176,-0.054
8.177,-0.056
8.178,-0.058
8.179,-0.056
8.180,-0.061
8.181,-0.062
8.182,-0.062
8.183,-0.062
8.184,-0.062
8.185,-0.066
8.186,-0.069
8.187,-0.069
8.188,-0.058
8.189,-0.053
8.190,-0.054
8.191,-0.056
8.192,-0.054
8.193,-0.053
8.194,-0.055
8.195,-0.053
8.196,-0.056
8.197,-0.056
8.198,-0.058
8.199,-0.059
8.200,-0.061
8.201,-0.062
8.202,-0.061
8.203,-0.059
8.204,-0.058
8.205,-0.056
8.206,-0.056
8.207,-0.056
8.208,-0.061
8.209,-0.059
8.210,-0.058
8.211,-0.056
8.212,-0.059
8.213,-0.062
8.214,-0.066
8.215,-0.066
8.216,-0.061
8.217,-0.053
8.218,-0.054
8.219,-0.056
8.220,-0.056
8.221,-0.056
8.222,-0.056
8.223,-0.056
8.224,-0.058
8.225,-0.059
8.226,-0.059
8.227,-0.056
8.228,-0.058
8.229,-0.059
8.230,-0.058
8.231,-0.056
8.232,-0.052
8.233,-0.053
8.234,-0.053
8.235,-0.056
8.236,-0.056
8.237,-0.056
8.238,-0.053
8.239,-0.047
8.240,-0.041
8.241,-0.034
8.242,-0.025
8.243,-0.019
8.244,-0.011
8.245,-0.006
8.246,-0.004
8.247,-0.003
8.248,-0.001
8.249,0.000
8.250,0.002
8.251,0.003
8.252,0.014
8.253,0.022
8.254,0.026
8.255,0.028
8.256,0.027
8.257,0.025
8.258,0.026
8.259,0.025
8.260,0.024
8.261,0.025
8.262,0.026
8.263,0.025
8.264,0.027
8.265,0.025
8.266,0.022
8.267,0.025
8.268,0.034
8.269,0.044
8.270,0.048
8.271,0.056
8.272,0.059
8.273,0.062
8.274,0.058
8.275,0.056
8.276,0.056
8.277,0.062
8.278,0.067
8.279,0.075
8.280,0.081
8.281,0.084
8.282,0.084
8.283,0.084
8.284,0.082
8.285,0.078
8.286,0.072
8.287,0.069
8.288,0.064
8.289,0.059
8.290,0.049
8.291,0.041
8.292,0.038
8.293,0.034
8.294,0.031
8.295,0.031
8.296,0.031
8.297,0.031
8.298,0.025
8.299,0.012
8.300,0.011
8.301,0.006
8.302,0.001
8.303,-0.003
8.304,-0.016
8.305,-0.025
8.306,-0.032
8.307,-0.034
8.308,-0.033
8.309,-0.034
8.310,-0.033
8.311,-0.031
8.312,-0.033
8.313,-0.034
8.314,-0.038
8.315,-0.044
8.316,-0.042
8.317,-0.044
8.318,-0.047
8.319,-0.050
8.320,-0.053
8.321,-0.059
8.322,-0.058
8.323,-0.059
8.324,-0.062
8.325,-0.066
8.326,-0.068
8.327,-0.066
8.328,-0.069
8.329,-0.069
8.330,-0.072
8.331,-0.078
8.332,-0.078
8.333,-0.078
8.334,-0.078
8.335,-0.078
8.336,-0.078
8.337,-0.078
8.338,-0.078
8.339,-0.078
8.340,-0.078
8.341,-0.081
8.342,-0.081
8.343,-0.081
8.344,-0.078
8.345,-0.078
8.346,-0.075
8.347,-0.075
8.348,-0.079
8.349,-0.078
8.350,-0.079
8.351,-0.078
8.352,-0.077
8.353,-0.075
8.354,-0.079
8.355,-0.078
8.356,-0.077
8.357,-0.078
8.358,-0.074
8.359,-0.075
8.360,-0.072
8.361,-0.072
8.362,-0.075
8.363,-0.075
8.364,-0.075
8.365,-0.075
8.366,-0.074
8.367,-0.072
8.368,-0.078
8.369,-0.081
8.370,-0.083
8.371,-0.081
8.372,-0.083
8.373,-0.081
8.374,-0.084
8.375,-0.094
8.376,-0.103
8.377,-0.112
8.378,-0.122
8.379,-0.131
8.380,-0.138
8.381,-0.141
8.382,-0.133
8.383,-0.128
8.384,-0.120
8.385,-0.109
8.386,-0.095
8.387,-0.075
8.388,-0.056
8.389,-0.028
8.390,0.002
8.391,0.034
8.392,0.075
8.393,0.122
8.394,0.175
8.395,0.225
8.396,0.282
8.397,0.334
8.398,0.380
8.399,0.428
8.400,0.480
8.401,0.538
8.402,0.612
8.403,0.688
8.404,0.761
8.405,0.822
8.406,0.881
8.407,0.941
8.408,0.998
8.409,1.053
8.410,1.101
8.411,1.125
8.412,1.139
8.413,1.141
8.414,1.123
8.415,1.084
8.416,1.019
8.417,0.950
8.418,0.874
8.419,0.800
8.420,0.724
8.421,0.656
8.422,0.598
8.423,0.538
8.424,0.473
8.425,0.416
8.426,0.347
8.427,0.281
8.428,0.211
8.429,0.147
8.430,0.094
8.431,0.056
8.432,0.033
8.433,0.025
8.434,0.025
8.435,0.025
8.436,0.026
8.437,0.019
8.438,0.003
8.439,-0.019
8.440,-0.038
8.441,-0.050
8.442,-0.061
8.443,-0.066
8.444,-0.072
8.445,-0.078
8.446,-0.086
8.447,-0.084
8.448,-0.078
8.449,-0.075
8.450,-0.073
8.451,-0.072
8.452,-0.068
8.453,-0.066
8.454,-0.067
8.455,-0.069
8.456,-0.062
8.457,-0.059
8.458,-0.049
8.459,-0.044
8.460,-0.044
8.461,-0.044
8.462,-0.045
8.463,-0.047
8.464,-0.044
8.465,-0.044
8.466,-0.047
8.467,-0.044
8.468,-0.050
8.469,-0.053
8.470,-0.058
8.471,-0.056
8.472,-0.058
8.473,-0.059
8.474,-0.059
8.475,-0.062
8.476,-0.059
8.477,-0.056
8.478,-0.053
8.479,-0.053
8.480,-0.054
8.481,-0.059
8.482,-0.059
8.483,-0.059
8.484,-0.062
8.485,-0.062
8.486,-0.062
8.487,-0.062
8.488,-0.064
8.489,-0.066
8.490,-0.067
8.491,-0.069
8.492,-0.069
8.493,-0.069
8.494,-0.069
8.495,-0.069
8.496,-0.070
8.497,-0.072
8.498,-0.069
8.499,-0.069
8.500,-0.073
8.501,-0.072
8.502,-0.071
8.503,-0.072
8.504,-0.071
8.505,-0.072
8.506,-0.073
8.507,-0.075
8.508,-0.069
8.509,-0.066
8.510,-0.066
8.511,-0.066
8.512,-0.067
8.513,-0.069
8.514,-0.066
8.515,-0.066
8.516,-0.066
8.517,-0.066
8.518,-0.061
8.519,-0.059
8.520,-0.056
8.521,-0.059
8.522,-0.059
8.523,-0.059
8.524,-0.061
8.525,-0.059
8.526,-0.059
8.527,-0.059
8.528,-0.061
8.529,-0.062
8.530,-0.061
8.531,-0.059
8.532,-0.059
8.533,-0.059
8.534,-0.058
8.535,-0.062
8.536,-0.062
8.537,-0.062
8.538,-0.061
8.539,-0.062
8.540,-0.061
8.541,-0.059
8.542,-0.062
8.543,-0.062
8.544,-0.062
8.545,-0.062
8.546,-0.064
8.547,-0.062
8.548,-0.062
8.549,-0.062
8.550,-0.062
8.551,-0.062
8.552,-0.059
8.553,-0.056
8.554,-0.058
8.555,-0.059
8.556,-0.058
8.557,-0.056
8.558,-0.056
8.559,-0.056
8.560,-0.055
8.561,-0.053
8.562,-0.054
8.563,-0.053
8.564,-0.053
8.565,-0.056
8.566,-0.053
8.567,-0.053
8.568,-0.053
8.569,-0.053
8.570,-0.053
8.571,-0.053
8.572,-0.050
8.573,-0.050
8.574,-0.050
8.575,-0.050
8.576,-0.053
8.577,-0.053
8.578,-0.053
8.579,-0.053
8.580,-0.053
8.581,-0.050
8.582,-0.053
8.583,-0.050
8.584,-0.050
8.585,-0.050
8.586,-0.047
8.587,-0.047
8.588,-0.049
8.589,-0.047
8.590,-0.046
8.591,-0.041
8.592,-0.044
8.593,-0.041
8.594,-0.041
8.595,-0.041
8.596,-0.039
8.597,-0.038
8.598,-0.038
8.599,-0.038
8.600,-0.039
8.601,-0.041
8.602,-0.039
8.603,-0.041
8.604,-0.039
8.605,-0.041
8.606,-0.038
8.607,-0.041
8.608,-0.042
8.609,-0.041
8.610,-0.041
8.611,-0.041
8.612,-0.039
8.613,-0.041
8.614,-0.041
8.615,-0.038
8.616,-0.041
8.617,-0.038
8.618,-0.039
8.619,-0.034
8.620,-0.034
8.621,-0.034
8.622,-0.034
8.623,-0.034
8.624,-0.031
8.625,-0.028
8.626,-0.029
8.627,-0.028
8.628,-0.029
8.629,-0.031
8.630,-0.031
8.631,-0.031
8.632,-0.030
8.633,-0.031
8.634,-0.031
8.635,-0.031
8.636,-0.032
8.637,-0.031
8.638,-0.031
8.639,-0.031
8.640,-0.030
8.641,-0.031
8.642,-0.031
8.643,-0.031
8.644,-0.029
8.645,-0.031
8.646,-0.031
8.647,-0.028
8.648,-0.034
8.649,-0.034
8.650,-0.034
8.651,-0.034
8.652,-0.038
8.653,-0.038
8.654,-0.038
8.655,-0.038
8.656,-0.031
8.657,-0.034
8.658,-0.039
8.659,-0.038
8.660,-0.041
8.661,-0.041
8.662,-0.036
8.663,-0.031
8.664,-0.032
8.665,-0.034
8.666,-0.031
8.667,-0.028
8.668,-0.029
8.669,-0.028
8.670,-0.028
8.671,-0.031
8.672,-0.032
8.673,-0.034
8.674,-0.034
8.675,-0.034
8.676,-0.034
8.677,-0.034
8.678,-0.034
8.679,-0.034
8.680,-0.036
8.681,-0.034
8.682,-0.033
8.683,-0.031
8.684,-0.029
8.685,-0.031
8.686,-0.030
8.687,-0.031
8.688,-0.031
8.689,-0.031
8.690,-0.028
8.691,-0.028
8.692,-0.028
8.693,-0.028
8.694,-0.028
8.695,-0.034
8.696,-0.033
8.697,-0.031
8.698,-0.031
8.699,-0.031
8.700,-0.032
8.701,-0.031
8.702,-0.029
8.703,-0.031
8.704,-0.030
8.705,-0.025
8.706,-0.024
8.707,-0.022
8.708,-0.022
8.709,-0.019
8.710,-0.020
8.711,-0.019
8.712,-0.018
8.713,-0.009
8.714,-0.008
8.715,-0.006
8.716,-0.006
8.717,0.000
8.718,0.002
8.719,0.000
8.720,0.000
8.721,0.003
8.722,0.006
8.723,0.006
8.724,0.009
8.725,0.009
8.726,0.016
8.727,0.019
8.728,0.021
8.729,0.019
8.730,0.022
8.731,0.025
8.732,0.028
8.733,0.031
8.734,0.031
8.735,0.031
8.736,0.036
8.737,0.038
8.738,0.039
8.739,0.041
8.740,0.039
8.741,0.041
8.742,0.041
8.743,0.041
8.744,0.042
8.745,0.047
8.746,0.047
8.747,0.050
8.748,0.053
8.749,0.056
8.750,0.061
8.751,0.062
8.752,0.061
8.753,0.062
8.754,0.066
8.755,0.069
8.756,0.069
8.757,0.069
8.758,0.066
8.759,0.066
8.760,0.069
8.761,0.069
8.762,0.069
8.763,0.069
8.764,0.069
8.765,0.069
8.766,0.068
8.767,0.066
8.768,0.062
8.769,0.062
8.770,0.061
8.771,0.059
8.772,0.059
8.773,0.059
8.774,0.056
8.775,0.053
8.776,0.053
8.777,0.050
8.778,0.047
8.779,0.044
8.780,0.046
8.781,0.044
8.782,0.048
8.783,0.044
8.784,0.048
8.785,0.044
8.786,0.045
8.787,0.044
8.788,0.047
8.789,0.044
8.790,0.044
8.791,0.044
8.792,0.038
8.793,0.034
8.794,0.031
8.795,0.031
8.796,0.031
8.797,0.031
8.798,0.029
8.799,0.031
8.800,0.027
8.801,0.028
8.802,0.031
8.803,0.028
8.804,0.029
8.805,0.031
8.806,0.030
8.807,0.028
8.808,0.025
8.809,0.025
8.810,0.025
8.811,0.025
8.812,0.022
8.813,0.022
8.814,0.022
8.815,0.022
8.816,0.023
8.817,0.025
8.818,0.024
8.819,0.022
8.820,0.022
8.821,0.022
8.822,0.023
8.823,0.025
8.824,0.024
8.825,0.022
8.826,0.022
8.827,0.019
8.828,0.020
8.829,0.022
8.830,0.021
8.831,0.019
8.832,0.020
8.833,0.022
8.834,0.022
8.835,0.022
8.836,0.024
8.837,0.022
8.838,0.023
8.839,0.022
8.840,0.022
8.841,0.022
8.842,0.022
8.843,0.022
8.844,0.022
8.845,0.022
8.846,0.026
8.847,0.028
8.848,0.022
8.849,0.019
8.850,0.018
8.851,0.016
8.852,0.014
8.853,0.012
8.854,0.012
8.855,0.012
8.856,0.014
8.857,0.012
8.858,0.011
8.859,0.009
8.860,0.011
8.861,0.012
8.862,0.012
8.863,0.012
8.864,0.012
8.865,0.012
8.866,0.009
8.867,0.009
8.868,0.009
8.869,0.006
8.870,0.003
8.871,0.003
8.872,0.004
8.873,0.006
8.874,0.009
8.875,0.012
8.876,0.012
8.877,0.012
8.878,0.009
8.879,0.009
8.880,0.008
8.881,0.006
8.882,0.006
8.883,0.006
8.884,0.008
8.885,0.006
8.886,0.003
8.887,-0.003
8.888,-0.003
8.889,-0.003
8.890,0.000
8.891,0.000
8.892,0.001
8.893,0.003
8.894,0.000
8.895,0.000
8.896,0.004
8.897,0.003
8.898,0.003
8.899,0.003
8.900,0.003
8.901,0.003
8.902,-0.003
8.903,-0.006
8.904,-0.006
8.905,-0.009
8.906,-0.008
8.907,-0.006
8.908,-0.011
8.909,-0.009
8.910,-0.008
8.911,-0.009
8.912,-0.009
8.913,-0.009
8.914,-0.009
8.915,-0.009
8.916,-0.014
8.917,-0.012
8.918,-0.016
8.919,-0.022
8.920,-0.023
8.921,-0.025
8.922,-0.024
8.923,-0.025
8.924,-0.024
8.925,-0.022
8.926,-0.025
8.927,-0.022
8.928,-0.025
8.929,-0.025
8.930,-0.025
8.931,-0.025
8.932,-0.025
8.933,-0.025
8.934,-0.024
8.935,-0.022
8.936,-0.025
8.937,-0.025
8.938,-0.026
8.939,-0.028
8.940,-0.025
8.941,-0.025
8.942,-0.022
8.943,-0.022
8.944,-0.023
8.945,-0.028
8.946,-0.029
8.947,-0.031
8.948,-0.030
8.949,-0.031
8.950,-0.031
8.951,-0.031
8.952,-0.031
8.953,-0.031
8.954,-0.031
8.955,-0.031
8.956,-0.031
8.957,-0.031
8.958,-0.030
8.959,-0.031
8.960,-0.029
8.961,-0.031
8.962,-0.030
8.963,-0.028
8.964,-0.031
8.965,-0.031
8.966,-0.030
8.967,-0.031
8.968,-0.028
8.969,-0.028
8.970,-0.031
8.971,-0.028
8.972,-0.031
8.973,-0.031
8.974,-0.032
8.975,-0.034
8.976,-0.036
8.977,-0.038
8.978,-0.038
8.979,-0.038
8.980,-0.038
8.981,-0.038
8.982,-0.038
8.983,-0.038
8.984,-0.039
8.985,-0.041
8.986,-0.042
8.987,-0.044
8.988,-0.042
8.989,-0.044
8.990,-0.041
8.991,-0.038
8.992,-0.038
8.993,-0.038
8.994,-0.041
8.995,-0.041
8.996,-0.039
8.997,-0.041
8.998,-0.041
8.999,-0.041
9.000,-0.041
9.001,-0.041
9.002,-0.042
9.003,-0.044
9.004,-0.047
9.005,-0.047
9.006,-0.044
9.007,-0.038
9.008,-0.039
9.009,-0.038
9.010,-0.038
9.011,-0.038
9.012,-0.039
9.013,-0.038
9.014,-0.042
9.015,-0.041
9.016,-0.041
9.017,-0.041
9.018,-0.041
9.019,-0.038
9.020,-0.042
9.021,-0.044
9.022,-0.045
9.023,-0.047
9.024,-0.046
9.025,-0.044
9.026,-0.047
9.027,-0.047
9.028,-0.047
9.029,-0.047
9.030,-0.048
9.031,-0.050
9.032,-0.050
9.033,-0.050
9.034,-0.047
9.035,-0.050
9.036,-0.044
9.037,-0.044
9.038,-0.044
9.039,-0.044
9.040,-0.047
9.041,-0.047
9.042,-0.044
9.043,-0.047
9.044,-0.048
9.045,-0.047
9.046,-0.047
9.047,-0.050
9.048,-0.048
9.049,-0.050
9.050,-0.049
9.051,-0.047
9.052,-0.050
9.053,-0.050
9.054,-0.050
9.055,-0.050
9.056,-0.051
9.057,-0.050
9.058,-0.053
9.059,-0.053
9.060,-0.047
9.061,-0.047
9.062,-0.047
9.063,-0.050
9.064,-0.051
9.065,-0.053
9.066,-0.050
9.067,-0.047
9.068,-0.047
9.069,-0.047
9.070,-0.051
9.071,-0.053
9.072,-0.053
9.073,-0.053
9.074,-0.049
9.075,-0.050
9.076,-0.051
9.077,-0.053
9.078,-0.053
9.079,-0.050
9.080,-0.049
9.081,-0.050
9.082,-0.051
9.083,-0.050
9.084,-0.053
9.085,-0.053
9.086,-0.056
9.087,-0.056
9.088,-0.054
9.089,-0.059
9.090,-0.056
9.091,-0.056
9.092,-0.056
9.093,-0.056
9.094,-0.056
9.095,-0.056
9.096,-0.056
9.097,-0.056
9.098,-0.055
9.099,-0.053
9.100,-0.053
9.101,-0.053
9.102,-0.053
9.103,-0.056
9.104,-0.054
9.105,-0.056
9.106,-0.056
9.107,-0.056
9.108,-0.055
9.109,-0.056
9.110,-0.056
9.111,-0.056
9.112,-0.054
9.113,-0.056
9.114,-0.056
9.115,-0.056
9.116,-0.056
9.117,-0.056
9.118,-0.058
9.119,-0.059
9.120,-0.059
9.121,-0.059
9.122,-0.055
9.123,-0.053
9.124,-0.053
9.125,-0.053
9.126,-0.054
9.127,-0.053
9.128,-0.058
9.129,-0.056
9.130,-0.055
9.131,-0.050
9.132,-0.042
9.133,-0.038
9.134,-0.033
9.135,-0.025
9.136,-0.019
9.137,-0.009
9.138,-0.004
9.139,0.000
9.140,0.003
9.141,0.006
9.142,0.008
9.143,0.009
9.144,0.011
9.145,0.012
9.146,0.016
9.147,0.022
9.148,0.024
9.149,0.025
9.150,0.025
9.151,0.025
9.152,0.026
9.153,0.028
9.154,0.024
9.155,0.022
9.156,0.021
9.157,0.016
9.158,0.016
9.159,0.022
9.160,0.026
9.161,0.031
9.162,0.041
9.163,0.050
9.164,0.055
9.165,0.056
9.166,0.064
9.167,0.066
9.168,0.066
9.169,0.066
9.170,0.070
9.171,0.075
9.172,0.084
9.173,0.088
9.174,0.089
9.175,0.088
9.176,0.084
9.177,0.081
9.178,0.080
9.179,0.075
9.180,0.073
9.181,0.072
9.182,0.068
9.183,0.059
9.184,0.053
9.185,0.047
9.186,0.044
9.187,0.041
9.188,0.033
9.189,0.022
9.190,0.022
9.191,0.022
9.192,0.019
9.193,0.016
9.194,0.008
9.195,0.006
9.196,0.000
9.197,-0.006
9.198,-0.012
9.199,-0.019
9.200,-0.022
9.201,-0.028
9.202,-0.027
9.203,-0.025
9.204,-0.028
9.205,-0.028
9.206,-0.027
9.207,-0.028
9.208,-0.032
9.209,-0.038
9.210,-0.044
9.211,-0.044
9.212,-0.046
9.213,-0.047
9.214,-0.050
9.215,-0.050
9.216,-0.054
9.217,-0.056
9.218,-0.058
9.219,-0.059
9.220,-0.062
9.221,-0.066
9.222,-0.066
9.223,-0.069
9.224,-0.070
9.225,-0.072
9.226,-0.075
9.227,-0.075
9.228,-0.075
9.229,-0.075
9.230,-0.074
9.231,-0.072
9.232,-0.072
9.233,-0.072
9.234,-0.072
9.235,-0.072
9.236,-0.075
9.237,-0.075
9.238,-0.079
9.239,-0.081
9.240,-0.081
9.241,-0.081
9.242,-0.081
9.243,-0.081
9.244,-0.077
9.245,-0.075
9.246,-0.072
9.247,-0.072
9.248,-0.073
9.249,-0.078
9.250,-0.074
9.251,-0.072
9.252,-0.074
9.253,-0.069
9.254,-0.073
9.255,-0.072
9.256,-0.073
9.257,-0.078
9.258,-0.079
9.259,-0.081
9.260,-0.082
9.261,-0.084
9.262,-0.083
9.263,-0.084
9.264,-0.086
9.265,-0.091
9.266,-0.094
9.267,-0.100
9.268,-0.099
9.269,-0.100
9.270,-0.106
9.271,-0.112
9.272,-0.122
9.273,-0.131
9.274,-0.141
9.275,-0.141
9.276,-0.139
9.277,-0.134
9.278,-0.130
9.279,-0.116
9.280,-0.103
9.281,-0.091
9.282,-0.064
9.283,-0.038
9.284,-0.006
9.285,0.025
9.286,0.062
9.287,0.106
9.288,0.152
9.289,0.203
9.290,0.253
9.291,0.309
9.292,0.356
9.293,0.403
9.294,0.456
9.295,0.516
9.296,0.586
9.297,0.666
9.298,0.739
9.299,0.809
9.300,0.869
9.301,0.925
9.302,0.982
9.303,1.034
9.304,1.080
9.305,1.112
9.306,1.125
9.307,1.128
9.308,1.112
9.309,1.078
9.310,1.025
9.311,0.953
9.312,0.879
9.313,0.809
9.314,0.742
9.315,0.672
9.316,0.611
9.317,0.553
9.318,0.497
9.319,0.431
9.320,0.369
9.321,0.303
9.322,0.234
9.323,0.169
9.324,0.109
9.325,0.066
9.326,0.041
9.327,0.022
9.328,0.020
9.329,0.022
9.330,0.019
9.331,0.012
9.332,-0.003
9.333,-0.019
9.334,-0.038
9.335,-0.053
9.336,-0.062
9.337,-0.072
9.338,-0.076
9.339,-0.084
9.340,-0.069
9.341,-0.050
9.342,-0.027
9.343,-0.003
9.344,-0.003
9.345,-0.003
9.346,-0.003
9.347,-0.003
9.348,-0.017
9.349,-0.031
9.350,-0.047
9.351,-0.056
9.352,-0.058
9.353,-0.056
9.354,-0.055
9.355,-0.053
9.356,-0.054
9.357,-0.056
9.358,-0.059
9.359,-0.062
9.360,-0.062
9.361,-0.066
9.362,-0.069
9.363,-0.075
9.364,-0.076
9.365,-0.084
9.366,-0.083
9.367,-0.081
9.368,-0.081
9.369,-0.081
9.370,-0.084
9.371,-0.081
9.372,-0.079
9.373,-0.078
9.374,-0.077
9.375,-0.075
9.376,-0.079
9.377,-0.081
9.378,-0.084
9.379,-0.091
9.380,-0.091
9.381,-0.091
9.382,-0.089
9.383,-0.088
9.384,-0.088
9.385,-0.088
9.386,-0.089
9.387,-0.091
9.388,-0.089
9.389,-0.088
9.390,-0.086
9.391,-0.084
9.392,-0.088
9.393,-0.088
9.394,-0.088
9.395,-0.091
9.396,-0.086
9.397,-0.084
9.398,-0.086
9.399,-0.084
9.400,-0.088
9.401,-0.088
9.402,-0.088
9.403,-0.084
9.404,-0.084
9.405,-0.084
9.406,-0.084
9.407,-0.084
9.408,-0.088
9.409,-0.088
9.410,-0.084
9.411,-0.081
9.412,-0.082
9.413,-0.084
9.414,-0.089
9.415,-0.088
9.416,-0.088
9.417,-0.084
9.418,-0.084
9.419,-0.084
9.420,-0.080
9.421,-0.078
9.422,-0.078
9.423,-0.078
9.424,-0.078
9.425,-0.078
9.426,-0.079
9.427,-0.081
9.428,-0.080
9.429,-0.075
9.430,-0.077
9.431,-0.075
9.432,-0.076
9.433,-0.075
9.434,-0.075
9.435,-0.075
9.436,-0.075
9.437,-0.078
9.438,-0.079
9.439,-0.081
9.440,-0.077
9.441,-0.072
9.442,-0.070
