'Elapsed time','II'
'seconds','mV'
0,-0.091
0.001,-0.091
0.002,-0.091
0.003,-0.091
0.004,-0.086
0.005,-0.081
0.006,-0.075
0.007,-0.069
0.008,-0.069
0.009,-0.069
0.01,-0.07
0.011,-0.072
0.012,-0.073
0.013,-0.075
0.014,-0.075
0.015,-0.075
0.016,-0.076
0.017,-0.078
0.018,-0.079
0.019,-0.081
0.02,-0.082
0.021,-0.084
0.022,-0.086
0.023,-0.087
0.024,-0.087
0.025,-0.087
0.026,-0.089
0.027,-0.091
0.028,-0.087
0.029,-0.084
0.03,-0.083
0.031,-0.081
0.032,-0.077
0.033,-0.072
0.034,-0.069
0.035,-0.066
0.036,-0.066
0.037,-0.066
0.038,-0.067
0.039,-0.069
0.04,-0.073
0.041,-0.078
0.042,-0.082
0.043,-0.087
0.044,-0.089
0.045,-0.091
0.046,-0.091
0.047,-0.091
0.048,-0.094
0.049,-0.097
0.05,-0.094
0.051,-0.091
0.052,-0.084
0.053,-0.078
0.054,-0.077
0.055,-0.075
0.056,-0.076
0.057,-0.078
0.058,-0.078
0.059,-0.078
0.06,-0.075
0.061,-0.072
0.062,-0.072
0.063,-0.072
0.064,-0.075
0.065,-0.078
0.066,-0.086
0.067,-0.094
0.068,-0.095
0.069,-0.097
0.07,-0.1
0.071,-0.103
0.072,-0.099
0.073,-0.094
0.074,-0.087
0.075,-0.081
0.076,-0.08
0.077,-0.078
0.078,-0.075
0.079,-0.072
0.08,-0.071
0.081,-0.069
0.082,-0.07
0.083,-0.072
0.084,-0.072
0.085,-0.072
0.086,-0.072
0.087,-0.072
0.088,-0.078
0.089,-0.084
0.09,-0.087
0.091,-0.091
0.092,-0.091
0.093,-0.091
0.094,-0.091
0.095,-0.091
0.096,-0.087
0.097,-0.084
0.098,-0.086
0.099,-0.087
0.1,-0.087
0.101,-0.087
0.102,-0.084
0.103,-0.081
0.104,-0.081
0.105,-0.081
0.106,-0.081
0.107,-0.081
0.108,-0.08
0.109,-0.078
0.11,-0.079
0.111,-0.081
0.112,-0.078
0.113,-0.075
0.114,-0.079
0.115,-0.084
0.116,-0.084
0.117,-0.084
0.118,-0.084
0.119,-0.084
0.12,-0.086
0.121,-0.087
0.122,-0.087
0.123,-0.087
0.124,-0.087
0.125,-0.087
0.126,-0.084
0.127,-0.081
0.128,-0.081
0.129,-0.081
0.13,-0.081
0.131,-0.081
0.132,-0.078
0.133,-0.075
0.134,-0.076
0.135,-0.078
0.136,-0.079
0.137,-0.081
0.138,-0.084
0.139,-0.087
0.14,-0.092
0.141,-0.097
0.142,-0.097
0.143,-0.097
0.144,-0.094
0.145,-0.091
0.146,-0.087
0.147,-0.084
0.148,-0.086
0.149,-0.087
0.15,-0.084
0.151,-0.081
0.152,-0.077
0.153,-0.072
0.154,-0.072
0.155,-0.072
0.156,-0.071
0.157,-0.069
0.158,-0.066
0.159,-0.062
0.16,-0.062
0.161,-0.062
0.162,-0.067
0.163,-0.072
0.164,-0.076
0.165,-0.081
0.166,-0.082
0.167,-0.084
0.168,-0.086
0.169,-0.087
0.17,-0.087
0.171,-0.087
0.172,-0.087
0.173,-0.087
0.174,-0.084
0.175,-0.081
0.176,-0.077
0.177,-0.072
0.178,-0.075
0.179,-0.078
0.18,-0.081
0.181,-0.084
0.182,-0.084
0.183,-0.084
0.184,-0.084
0.185,-0.084
0.186,-0.084
0.187,-0.084
0.188,-0.086
0.189,-0.087
0.19,-0.089
0.191,-0.091
0.192,-0.091
0.193,-0.091
0.194,-0.086
0.195,-0.081
0.196,-0.08
0.197,-0.078
0.198,-0.079
0.199,-0.084
0.2,-0.081
0.201,-0.081
0.202,-0.077
0.203,-0.075
0.204,-0.075
0.205,-0.075
0.206,-0.067
0.207,-0.062
0.208,-0.062
0.209,-0.062
0.21,-0.067
0.211,-0.072
0.212,-0.075
0.213,-0.078
0.214,-0.078
0.215,-0.075
0.216,-0.081
0.217,-0.084
0.218,-0.082
0.219,-0.084
0.22,-0.086
0.221,-0.087
0.222,-0.078
0.223,-0.072
0.224,-0.072
0.225,-0.072
0.226,-0.078
0.227,-0.084
0.228,-0.078
0.229,-0.075
0.23,-0.079
0.231,-0.081
0.232,-0.082
0.233,-0.084
0.234,-0.075
0.235,-0.069
0.236,-0.069
0.237,-0.069
0.238,-0.073
0.239,-0.075
0.24,-0.072
0.241,-0.072
0.242,-0.073
0.243,-0.072
0.244,-0.067
0.245,-0.062
0.246,-0.059
0.247,-0.059
0.248,-0.053
0.249,-0.047
0.25,-0.042
0.251,-0.041
0.252,-0.039
0.253,-0.037
0.254,-0.039
0.255,-0.041
0.256,-0.034
0.257,-0.031
0.258,-0.027
0.259,-0.022
0.26,-0.021
0.261,-0.016
0.262,-0.014
0.263,-0.016
0.264,-0.014
0.265,-0.013
0.266,-0.014
0.267,-0.009
0.268,-0.007
0.269,-0.009
0.27,-0.003
0.271,0
0.272,0.004
0.273,0.013
0.274,0.014
0.275,0.019
0.276,0.023
0.277,0.022
0.278,0.023
0.279,0.028
0.28,0.028
0.281,0.028
0.282,0.029
0.283,0.034
0.284,0.027
0.285,0.025
0.286,0.025
0.287,0.025
0.288,0.026
0.289,0.028
0.29,0.028
0.291,0.028
0.292,0.024
0.293,0.022
0.294,0.022
0.295,0.019
0.296,0.025
0.297,0.028
0.298,0.031
0.299,0.031
0.3,0.033
0.301,0.031
0.302,0.033
0.303,0.034
0.304,0.028
0.305,0.028
0.306,0.031
0.307,0.031
0.308,0.029
0.309,0.031
0.31,0.021
0.311,0.009
0.312,0.005
0.313,0.006
0.314,0.009
0.315,0.009
0.316,0.011
0.317,0.013
0.318,0.011
0.319,0.016
0.32,0.019
0.321,0.019
0.322,0.02
0.323,0.025
0.324,0.022
0.325,0.022
0.326,0.023
0.327,0.025
0.328,0.023
0.329,0.025
0.33,0.027
0.331,0.025
0.332,0.021
0.333,0.016
0.334,0.008
0.335,0.006
0.336,0
0.337,0
0.338,0.001
0.339,0.003
0.34,-0.001
0.341,-0.003
0.342,0.001
0.343,0.003
0.344,0.002
0.345,0
0.346,0.009
0.347,0.019
0.348,0.02
0.349,0.022
0.35,0.022
0.351,0.022
0.352,0.022
0.353,0.019
0.354,0.016
0.355,0.016
0.356,0.019
0.357,0.019
0.358,0.016
0.359,0.013
0.36,0.013
0.361,0.013
0.362,0.011
0.363,0.009
0.364,0.009
0.365,0.009
0.366,0.009
0.367,0.009
0.368,0.013
0.369,0.013
0.37,0.017
0.371,0.025
0.372,0.026
0.373,0.025
0.374,0.022
0.375,0.019
0.376,0.019
0.377,0.019
0.378,0.016
0.379,0.016
0.38,0.019
0.381,0.022
0.382,0.018
0.383,0.016
0.384,0.011
0.385,0.009
0.386,0.009
0.387,0.009
0.388,0.006
0.389,0.006
0.39,0.009
0.391,0.006
0.392,0.002
0.393,0.003
0.394,0.004
0.395,0.009
0.396,0.011
0.397,0.009
0.398,0.011
0.399,0.009
0.4,0.009
0.401,0.009
0.402,0.006
0.403,0.006
0.404,0.008
0.405,0.006
0.406,0.003
0.407,0
0.408,-0.006
0.409,-0.009
0.41,-0.008
0.411,-0.006
0.412,-0.009
0.413,-0.009
0.414,-0.005
0.415,0
0.416,0.001
0.417,0.003
0.418,0.003
0.419,0.003
0.42,0.006
0.421,0.003
0.422,0.006
0.423,0.003
0.424,0.004
0.425,0.003
0.426,0.006
0.427,0.006
0.428,0.006
0.429,0.006
0.43,0.003
0.431,-0.003
0.432,-0.006
0.433,-0.009
0.434,-0.013
0.435,-0.016
0.436,-0.014
0.437,-0.013
0.438,-0.014
0.439,-0.013
0.44,-0.011
0.441,-0.013
0.442,-0.013
0.443,-0.013
0.444,-0.011
0.445,-0.009
0.446,-0.006
0.447,-0.006
0.448,-0.009
0.449,-0.013
0.45,-0.011
0.451,-0.013
0.452,-0.009
0.453,-0.009
0.454,-0.013
0.455,-0.013
0.456,-0.013
0.457,-0.013
0.458,-0.016
0.459,-0.016
0.46,-0.014
0.461,-0.016
0.462,-0.019
0.463,-0.022
0.464,-0.023
0.465,-0.025
0.466,-0.026
0.467,-0.028
0.468,-0.021
0.469,-0.022
0.47,-0.022
0.471,-0.019
0.472,-0.023
0.473,-0.022
0.474,-0.023
0.475,-0.025
0.476,-0.022
0.477,-0.019
0.478,-0.019
0.479,-0.022
0.48,-0.025
0.481,-0.028
0.482,-0.031
0.483,-0.034
0.484,-0.034
0.485,-0.034
0.486,-0.031
0.487,-0.031
0.488,-0.031
0.489,-0.031
0.49,-0.032
0.491,-0.034
0.492,-0.034
0.493,-0.031
0.494,-0.027
0.495,-0.028
0.496,-0.028
0.497,-0.028
0.498,-0.025
0.499,-0.028
0.5,-0.025
0.501,-0.025
0.502,-0.024
0.503,-0.019
0.504,-0.028
0.505,-0.031
0.506,-0.034
0.507,-0.034
0.508,-0.041
0.509,-0.047
0.51,-0.042
0.511,-0.044
0.512,-0.044
0.513,-0.041
0.514,-0.042
0.515,-0.037
0.516,-0.039
0.517,-0.037
0.518,-0.039
0.519,-0.031
0.52,-0.025
0.521,-0.022
0.522,-0.022
0.523,-0.025
0.524,-0.024
0.525,-0.022
0.526,-0.021
0.527,-0.019
0.528,-0.023
0.529,-0.028
0.53,-0.028
0.531,-0.031
0.532,-0.028
0.533,-0.025
0.534,-0.019
0.535,-0.016
0.536,-0.017
0.537,-0.016
0.538,-0.014
0.539,-0.013
0.54,-0.006
0.541,0
0.542,0.014
0.543,0.028
0.544,0.034
0.545,0.041
0.546,0.046
0.547,0.044
0.548,0.045
0.549,0.044
0.55,0.041
0.551,0.034
0.552,0.039
0.553,0.038
0.554,0.039
0.555,0.041
0.556,0.039
0.557,0.041
0.558,0.041
0.559,0.041
0.56,0.046
0.561,0.047
0.562,0.049
0.563,0.05
0.564,0.056
0.565,0.059
0.566,0.067
0.567,0.075
0.568,0.078
0.569,0.084
0.57,0.094
0.571,0.097
0.572,0.102
0.573,0.103
0.574,0.106
0.575,0.109
0.576,0.109
0.577,0.106
0.578,0.103
0.579,0.103
0.58,0.102
0.581,0.097
0.582,0.086
0.583,0.078
0.584,0.076
0.585,0.075
0.586,0.071
0.587,0.066
0.588,0.064
0.589,0.063
0.59,0.067
0.591,0.063
0.592,0.061
0.593,0.05
0.594,0.045
0.595,0.038
0.596,0.036
0.597,0.031
0.598,0.025
0.599,0.022
0.6,0.016
0.601,0.009
0.602,0
0.603,-0.006
0.604,-0.009
0.605,-0.009
0.606,-0.009
0.607,-0.013
0.608,-0.011
0.609,-0.009
0.61,-0.011
0.611,-0.016
0.612,-0.019
0.613,-0.025
0.614,-0.022
0.615,-0.019
0.616,-0.019
0.617,-0.022
0.618,-0.026
0.619,-0.031
0.62,-0.033
0.621,-0.034
0.622,-0.041
0.623,-0.047
0.624,-0.049
0.625,-0.05
0.626,-0.054
0.627,-0.059
0.628,-0.061
0.629,-0.062
0.63,-0.059
0.631,-0.056
0.632,-0.056
0.633,-0.056
0.634,-0.057
0.635,-0.056
0.636,-0.056
0.637,-0.056
0.638,-0.055
0.639,-0.053
0.64,-0.053
0.641,-0.053
0.642,-0.055
0.643,-0.053
0.644,-0.053
0.645,-0.05
0.646,-0.053
0.647,-0.053
0.648,-0.05
0.649,-0.05
0.65,-0.053
0.651,-0.053
0.652,-0.057
0.653,-0.062
0.654,-0.069
0.655,-0.075
0.656,-0.081
0.657,-0.087
0.658,-0.096
0.659,-0.1
0.66,-0.106
0.661,-0.109
0.662,-0.114
0.663,-0.116
0.664,-0.1
0.665,-0.084
0.666,-0.075
0.667,-0.062
0.668,-0.042
0.669,-0.022
0.67,0.003
0.671,0.031
0.672,0.063
0.673,0.097
0.674,0.133
0.675,0.169
0.676,0.214
0.677,0.259
0.678,0.312
0.679,0.363
0.68,0.403
0.681,0.441
0.682,0.483
0.683,0.531
0.684,0.594
0.685,0.663
0.686,0.725
0.687,0.781
0.688,0.833
0.689,0.881
0.69,0.928
0.691,0.978
0.692,1.013
0.693,1.041
0.694,1.049
0.695,1.041
0.696,1.014
0.697,0.978
0.698,0.927
0.699,0.856
0.7,0.786
0.701,0.719
0.702,0.65
0.703,0.581
0.704,0.519
0.705,0.459
0.706,0.403
0.707,0.341
0.708,0.278
0.709,0.216
0.71,0.152
0.711,0.084
0.712,0.034
0.713,-0.009
0.714,-0.042
0.715,-0.069
0.716,-0.083
0.717,-0.087
0.718,-0.086
0.719,-0.084
0.72,-0.078
0.721,-0.081
0.722,-0.089
0.723,-0.103
0.724,-0.12
0.725,-0.134
0.726,-0.142
0.727,-0.144
0.728,-0.147
0.729,-0.15
0.73,-0.156
0.731,-0.159
0.732,-0.159
0.733,-0.159
0.734,-0.149
0.735,-0.141
0.736,-0.128
0.737,-0.116
0.738,-0.108
0.739,-0.103
0.74,-0.096
0.741,-0.087
0.742,-0.078
0.743,-0.075
0.744,-0.074
0.745,-0.069
0.746,-0.066
0.747,-0.066
0.748,-0.066
0.749,-0.069
0.75,-0.073
0.751,-0.081
0.752,-0.083
0.753,-0.084
0.754,-0.08
0.755,-0.081
0.756,-0.08
0.757,-0.078
0.758,-0.076
0.759,-0.078
0.76,-0.074
0.761,-0.069
0.762,-0.066
0.763,-0.066
0.764,-0.066
0.765,-0.066
0.766,-0.066
0.767,-0.066
0.768,-0.067
0.769,-0.069
0.77,-0.071
0.771,-0.072
0.772,-0.076
0.773,-0.075
0.774,-0.079
0.775,-0.081
0.776,-0.08
0.777,-0.078
0.778,-0.075
0.779,-0.072
0.78,-0.072
0.781,-0.072
0.782,-0.073
0.783,-0.072
0.784,-0.073
0.785,-0.072
0.786,-0.064
0.787,-0.066
0.788,-0.066
0.789,-0.066
0.79,-0.067
0.791,-0.069
0.792,-0.067
0.793,-0.066
0.794,-0.067
0.795,-0.066
0.796,-0.069
0.797,-0.069
0.798,-0.069
0.799,-0.072
0.8,-0.074
0.801,-0.072
0.802,-0.071
0.803,-0.069
0.804,-0.073
0.805,-0.072
0.806,-0.072
0.807,-0.072
0.808,-0.071
0.809,-0.066
0.81,-0.067
0.811,-0.066
0.812,-0.061
0.813,-0.056
0.814,-0.057
0.815,-0.059
0.816,-0.066
0.817,-0.069
0.818,-0.069
0.819,-0.069
0.82,-0.069
0.821,-0.069
0.822,-0.072
0.823,-0.075
0.824,-0.075
0.825,-0.072
0.826,-0.071
0.827,-0.069
0.828,-0.072
0.829,-0.072
0.83,-0.07
0.831,-0.072
0.832,-0.072
0.833,-0.069
0.834,-0.061
0.835,-0.056
0.836,-0.056
0.837,-0.059
0.838,-0.056
0.839,-0.059
0.84,-0.056
0.841,-0.056
0.842,-0.056
0.843,-0.056
0.844,-0.055
0.845,-0.056
0.846,-0.057
0.847,-0.062
0.848,-0.069
0.849,-0.072
0.85,-0.073
0.851,-0.075
0.852,-0.078
0.853,-0.078
0.854,-0.081
0.855,-0.081
0.856,-0.081
0.857,-0.078
0.858,-0.072
0.859,-0.069
0.86,-0.064
0.861,-0.062
0.862,-0.055
0.863,-0.05
0.864,-0.053
0.865,-0.056
0.866,-0.056
0.867,-0.059
0.868,-0.062
0.869,-0.059
0.87,-0.064
0.871,-0.066
0.872,-0.067
0.873,-0.069
0.874,-0.069
0.875,-0.069
0.876,-0.071
0.877,-0.069
0.878,-0.07
0.879,-0.072
0.88,-0.076
0.881,-0.075
0.882,-0.066
0.883,-0.059
0.884,-0.058
0.885,-0.056
0.886,-0.055
0.887,-0.053
0.888,-0.05
0.889,-0.05
0.89,-0.049
0.891,-0.05
0.892,-0.051
0.893,-0.053
0.894,-0.052
0.895,-0.05
0.896,-0.053
0.897,-0.053
0.898,-0.054
0.899,-0.056
0.9,-0.059
0.901,-0.062
0.902,-0.061
0.903,-0.062
0.904,-0.056
0.905,-0.053
0.906,-0.052
0.907,-0.053
0.908,-0.047
0.909,-0.044
0.91,-0.041
0.911,-0.044
0.912,-0.044
0.913,-0.041
0.914,-0.042
0.915,-0.037
0.916,-0.042
0.917,-0.047
0.918,-0.048
0.919,-0.05
0.92,-0.056
0.921,-0.059
0.922,-0.059
0.923,-0.056
0.924,-0.057
0.925,-0.059
0.926,-0.061
0.927,-0.059
0.928,-0.062
0.929,-0.062
0.93,-0.062
0.931,-0.059
0.932,-0.057
0.933,-0.059
0.934,-0.056
0.935,-0.053
0.936,-0.056
0.937,-0.056
0.938,-0.056
0.939,-0.056
0.94,-0.055
0.941,-0.056
0.942,-0.055
0.943,-0.056
0.944,-0.062
0.945,-0.062
0.946,-0.064
0.947,-0.062
0.948,-0.064
0.949,-0.069
0.95,-0.066
0.951,-0.066
0.952,-0.069
0.953,-0.072
0.954,-0.072
0.955,-0.072
0.956,-0.071
0.957,-0.066
0.958,-0.066
0.959,-0.066
0.96,-0.069
0.961,-0.069
0.962,-0.07
0.963,-0.072
0.964,-0.067
0.965,-0.062
0.966,-0.062
0.967,-0.066
0.968,-0.067
0.969,-0.069
0.97,-0.075
0.971,-0.075
0.972,-0.074
0.973,-0.072
0.974,-0.075
0.975,-0.075
0.976,-0.069
0.977,-0.069
0.978,-0.069
0.979,-0.069
0.98,-0.067
0.981,-0.066
0.982,-0.066
0.983,-0.066
0.984,-0.062
0.985,-0.062
0.986,-0.064
0.987,-0.062
0.988,-0.061
0.989,-0.059
0.99,-0.059
0.991,-0.059
0.992,-0.061
0.993,-0.062
0.994,-0.066
0.995,-0.069
0.996,-0.067
0.997,-0.062
0.998,-0.062
0.999,-0.059
1,-0.057
1.001,-0.059
1.002,-0.056
1.003,-0.053
1.004,-0.05
1.005,-0.05
1.006,-0.046
1.007,-0.041
1.008,-0.039
1.009,-0.034
1.01,-0.033
1.011,-0.031
1.012,-0.026
1.013,-0.028
1.014,-0.021
1.015,-0.016
1.016,-0.019
1.017,-0.025
1.018,-0.023
1.019,-0.025
1.02,-0.022
1.021,-0.016
1.022,-0.017
1.023,-0.016
1.024,-0.016
1.025,-0.016
1.026,-0.011
1.027,-0.009
1.028,-0.003
1.029,0.003
1.03,0.014
1.031,0.025
1.032,0.021
1.033,0.019
1.034,0.022
1.035,0.022
1.036,0.023
1.037,0.025
1.038,0.024
1.039,0.025
1.04,0.023
1.041,0.022
1.042,0.021
1.043,0.016
1.044,0.014
1.045,0.016
1.046,0.019
1.047,0.022
1.048,0.022
1.049,0.028
1.05,0.027
1.051,0.028
1.052,0.029
1.053,0.031
1.054,0.031
1.055,0.031
1.056,0.033
1.057,0.034
1.058,0.036
1.059,0.034
1.06,0.034
1.061,0.034
1.062,0.039
1.063,0.041
1.064,0.038
1.065,0.034
1.066,0.028
1.067,0.025
1.068,0.022
1.069,0.019
1.07,0.016
1.071,0.013
1.072,0.013
1.073,0.009
1.074,0.011
1.075,0.013
1.076,0.016
1.077,0.016
1.078,0.02
1.079,0.025
1.08,0.023
1.081,0.025
1.082,0.025
1.083,0.022
1.084,0.018
1.085,0.013
1.086,0.013
1.087,0.013
1.088,0.013
1.089,0.013
1.09,0.002
1.091,-0.003
1.092,-0.006
1.093,-0.009
1.094,-0.008
1.095,-0.006
1.096,-0.003
1.097,0
1.098,0.002
1.099,0
1.1,0.004
1.101,0.003
1.102,0.003
1.103,0.003
1.104,0.008
1.105,0.009
1.106,0.013
1.107,0.016
1.108,0.014
1.109,0.013
1.11,0.011
1.111,0.013
1.112,0.014
1.113,0.013
1.114,0.013
1.115,0.009
1.116,0.011
1.117,0.006
1.118,0.008
1.119,0.006
1.12,0.005
1.121,0.003
1.122,0.003
1.123,0.003
1.124,0.002
1.125,0
1.126,0.006
1.127,0.013
1.128,0.017
1.129,0.022
1.13,0.023
1.131,0.025
1.132,0.023
1.133,0.025
1.134,0.019
1.135,0.016
1.136,0.016
1.137,0.016
1.138,0.006
1.139,0
1.14,0
1.141,-0.003
1.142,-0.001
1.143,-0.003
1.144,-0.003
1.145,-0.003
1.146,-0.004
1.147,-0.006
1.148,-0.006
1.149,-0.006
1.15,-0.002
1.151,0.003
1.152,0.003
1.153,0.003
1.154,0.005
1.155,0.003
1.156,0.003
1.157,0.003
1.158,0.004
1.159,0.009
1.16,0.008
1.161,0.009
1.162,0.002
1.163,-0.003
1.164,-0.004
1.165,-0.009
1.166,-0.009
1.167,-0.009
1.168,-0.011
1.169,-0.009
1.17,-0.011
1.171,-0.013
1.172,-0.011
1.173,-0.013
1.174,-0.013
1.175,-0.009
1.176,-0.006
1.177,-0.003
1.178,-0.005
1.179,-0.003
1.18,0
1.181,0.003
1.182,0.004
1.183,0.003
1.184,0.003
1.185,0
1.186,0
1.187,-0.006
1.188,-0.007
1.189,-0.009
1.19,-0.009
1.191,-0.009
1.192,-0.011
1.193,-0.013
1.194,-0.013
1.195,-0.016
1.196,-0.019
1.197,-0.022
1.198,-0.019
1.199,-0.019
1.2,-0.019
1.201,-0.019
1.202,-0.017
1.203,-0.019
1.204,-0.014
1.205,-0.013
1.206,-0.016
1.207,-0.016
1.208,-0.014
1.209,-0.016
1.21,-0.013
1.211,-0.016
1.212,-0.016
1.213,-0.016
1.214,-0.02
1.215,-0.028
1.216,-0.026
1.217,-0.031
1.218,-0.028
1.219,-0.031
1.22,-0.031
1.221,-0.031
1.222,-0.029
1.223,-0.031
1.224,-0.03
1.225,-0.025
1.226,-0.021
1.227,-0.022
1.228,-0.024
1.229,-0.025
1.23,-0.021
1.231,-0.016
1.232,-0.016
1.233,-0.019
1.234,-0.025
1.235,-0.028
1.236,-0.034
1.237,-0.034
1.238,-0.033
1.239,-0.034
1.24,-0.033
1.241,-0.031
1.242,-0.033
1.243,-0.031
1.244,-0.034
1.245,-0.034
1.246,-0.032
1.247,-0.034
1.248,-0.034
1.249,-0.028
1.25,-0.028
1.251,-0.028
1.252,-0.028
1.253,-0.031
1.254,-0.029
1.255,-0.031
1.256,-0.028
1.257,-0.025
1.258,-0.022
1.259,-0.022
1.26,-0.034
1.261,-0.041
1.262,-0.041
1.263,-0.041
1.264,-0.041
1.265,-0.041
1.266,-0.042
1.267,-0.044
1.268,-0.047
1.269,-0.044
1.27,-0.037
1.271,-0.034
1.272,-0.033
1.273,-0.034
1.274,-0.036
1.275,-0.034
1.276,-0.036
1.277,-0.034
1.278,-0.036
1.279,-0.034
1.28,-0.036
1.281,-0.034
1.282,-0.037
1.283,-0.037
1.284,-0.039
1.285,-0.05
1.286,-0.05
1.287,-0.05
1.288,-0.042
1.289,-0.041
1.29,-0.042
1.291,-0.037
1.292,-0.042
1.293,-0.044
1.294,-0.042
1.295,-0.044
1.296,-0.034
1.297,-0.034
1.298,-0.034
1.299,-0.037
1.3,-0.032
1.301,-0.034
1.302,-0.039
1.303,-0.037
1.304,-0.037
1.305,-0.037
1.306,-0.036
1.307,-0.037
1.308,-0.044
1.309,-0.047
1.31,-0.047
1.311,-0.044
1.312,-0.044
1.313,-0.037
1.314,-0.034
1.315,-0.031
1.316,-0.025
1.317,-0.022
1.318,-0.019
1.319,-0.016
1.32,-0.009
1.321,0
1.322,0.009
1.323,0.019
1.324,0.025
1.325,0.031
1.326,0.036
1.327,0.041
1.328,0.038
1.329,0.034
1.33,0.031
1.331,0.031
1.332,0.028
1.333,0.031
1.334,0.027
1.335,0.025
1.336,0.024
1.337,0.022
1.338,0.024
1.339,0.025
1.34,0.028
1.341,0.034
1.342,0.039
1.343,0.044
1.344,0.043
1.345,0.044
1.346,0.051
1.347,0.059
1.348,0.064
1.349,0.063
1.35,0.063
1.351,0.072
1.352,0.078
1.353,0.088
1.354,0.092
1.355,0.097
1.356,0.101
1.357,0.103
1.358,0.096
1.359,0.088
1.36,0.086
1.361,0.084
1.362,0.08
1.363,0.072
1.364,0.07
1.365,0.069
1.366,0.069
1.367,0.069
1.368,0.067
1.369,0.066
1.37,0.061
1.371,0.059
1.372,0.053
1.373,0.056
1.374,0.047
1.375,0.041
1.376,0.031
1.377,0.028
1.378,0.021
1.379,0.013
1.38,0.011
1.381,0.006
1.382,0
1.383,-0.006
1.384,-0.013
1.385,-0.016
1.386,-0.013
1.387,-0.013
1.388,-0.014
1.389,-0.013
1.39,-0.013
1.391,-0.016
1.392,-0.023
1.393,-0.025
1.394,-0.028
1.395,-0.028
1.396,-0.027
1.397,-0.025
1.398,-0.027
1.399,-0.028
1.4,-0.031
1.401,-0.034
1.402,-0.036
1.403,-0.041
1.404,-0.047
1.405,-0.05
1.406,-0.056
1.407,-0.059
1.408,-0.059
1.409,-0.062
1.41,-0.067
1.411,-0.069
1.412,-0.07
1.413,-0.069
1.414,-0.067
1.415,-0.069
1.416,-0.067
1.417,-0.069
1.418,-0.067
1.419,-0.066
1.42,-0.059
1.421,-0.053
1.422,-0.052
1.423,-0.053
1.424,-0.054
1.425,-0.056
1.426,-0.053
1.427,-0.056
1.428,-0.055
1.429,-0.053
1.43,-0.055
1.431,-0.056
1.432,-0.057
1.433,-0.062
1.434,-0.066
1.435,-0.069
1.436,-0.071
1.437,-0.075
1.438,-0.081
1.439,-0.091
1.44,-0.097
1.441,-0.103
1.442,-0.109
1.443,-0.112
1.444,-0.111
1.445,-0.103
1.446,-0.094
1.447,-0.084
1.448,-0.075
1.449,-0.059
1.45,-0.044
1.451,-0.022
1.452,0.005
1.453,0.031
1.454,0.055
1.455,0.084
1.456,0.119
1.457,0.163
1.458,0.208
1.459,0.259
1.46,0.309
1.461,0.353
1.462,0.393
1.463,0.434
1.464,0.486
1.465,0.547
1.466,0.611
1.467,0.672
1.468,0.733
1.469,0.791
1.47,0.845
1.471,0.897
1.472,0.95
1.473,0.991
1.474,1.029
1.475,1.047
1.476,1.053
1.477,1.044
1.478,1.022
1.479,0.988
1.48,0.929
1.481,0.863
1.482,0.788
1.483,0.716
1.484,0.647
1.485,0.581
1.486,0.519
1.487,0.463
1.488,0.404
1.489,0.344
1.49,0.277
1.491,0.209
1.492,0.141
1.493,0.084
1.494,0.036
1.495,-0.003
1.496,-0.037
1.497,-0.056
1.498,-0.066
1.499,-0.066
1.5,-0.059
1.501,-0.056
1.502,-0.066
1.503,-0.075
1.504,-0.092
1.505,-0.106
1.506,-0.114
1.507,-0.119
1.508,-0.119
1.509,-0.125
1.51,-0.132
1.511,-0.141
1.512,-0.145
1.513,-0.144
1.514,-0.144
1.515,-0.137
1.516,-0.125
1.517,-0.112
1.518,-0.107
1.519,-0.103
1.52,-0.099
1.521,-0.091
1.522,-0.091
1.523,-0.087
1.524,-0.083
1.525,-0.081
1.526,-0.075
1.527,-0.072
1.528,-0.076
1.529,-0.078
1.53,-0.081
1.531,-0.081
1.532,-0.086
1.533,-0.091
1.534,-0.097
1.535,-0.097
1.536,-0.097
1.537,-0.094
1.538,-0.095
1.539,-0.094
1.54,-0.095
1.541,-0.094
1.542,-0.089
1.543,-0.084
1.544,-0.078
1.545,-0.072
1.546,-0.072
1.547,-0.072
1.548,-0.071
1.549,-0.072
1.55,-0.076
1.551,-0.081
1.552,-0.083
1.553,-0.084
1.554,-0.084
1.555,-0.087
1.556,-0.086
1.557,-0.087
1.558,-0.091
1.559,-0.091
1.56,-0.087
1.561,-0.087
1.562,-0.086
1.563,-0.084
1.564,-0.08
1.565,-0.078
1.566,-0.078
1.567,-0.078
1.568,-0.086
1.569,-0.084
1.57,-0.078
1.571,-0.078
1.572,-0.08
1.573,-0.078
1.574,-0.077
1.575,-0.078
1.576,-0.077
1.577,-0.078
1.578,-0.081
1.579,-0.081
1.58,-0.077
1.581,-0.075
1.582,-0.076
1.583,-0.078
1.584,-0.082
1.585,-0.087
1.586,-0.086
1.587,-0.091
1.588,-0.091
1.589,-0.091
1.59,-0.084
1.591,-0.081
1.592,-0.077
1.593,-0.075
1.594,-0.072
1.595,-0.069
1.596,-0.067
1.597,-0.069
1.598,-0.069
1.599,-0.072
1.6,-0.075
1.601,-0.075
1.602,-0.079
1.603,-0.084
1.604,-0.087
1.605,-0.091
1.606,-0.087
1.607,-0.087
1.608,-0.086
1.609,-0.087
1.61,-0.087
1.611,-0.084
1.612,-0.08
1.613,-0.075
1.614,-0.071
1.615,-0.066
1.616,-0.064
1.617,-0.062
1.618,-0.067
1.619,-0.066
1.62,-0.069
1.621,-0.066
1.622,-0.066
1.623,-0.066
1.624,-0.066
1.625,-0.066
1.626,-0.073
1.627,-0.078
1.628,-0.08
1.629,-0.081
1.63,-0.08
1.631,-0.078
1.632,-0.078
1.633,-0.078
1.634,-0.076
1.635,-0.081
1.636,-0.081
1.637,-0.081
1.638,-0.077
1.639,-0.069
1.64,-0.064
1.641,-0.062
1.642,-0.067
1.643,-0.066
1.644,-0.066
1.645,-0.066
1.646,-0.066
1.647,-0.066
1.648,-0.07
1.649,-0.075
1.65,-0.073
1.651,-0.078
1.652,-0.079
1.653,-0.081
1.654,-0.082
1.655,-0.081
1.656,-0.078
1.657,-0.081
1.658,-0.08
1.659,-0.078
1.66,-0.077
1.661,-0.078
1.662,-0.074
1.663,-0.069
1.664,-0.067
1.665,-0.066
1.666,-0.062
1.667,-0.059
1.668,-0.061
1.669,-0.059
1.67,-0.058
1.671,-0.056
1.672,-0.059
1.673,-0.059
1.674,-0.059
1.675,-0.059
1.676,-0.059
1.677,-0.062
1.678,-0.062
1.679,-0.062
1.68,-0.067
1.681,-0.069
1.682,-0.069
1.683,-0.069
1.684,-0.067
1.685,-0.062
1.686,-0.058
1.687,-0.053
1.688,-0.057
1.689,-0.056
1.69,-0.055
1.691,-0.05
1.692,-0.053
1.693,-0.053
1.694,-0.05
1.695,-0.053
1.696,-0.049
1.697,-0.05
1.698,-0.053
1.699,-0.053
1.7,-0.057
1.701,-0.066
1.702,-0.067
1.703,-0.069
1.704,-0.066
1.705,-0.066
1.706,-0.066
1.707,-0.066
1.708,-0.062
1.709,-0.066
1.71,-0.062
1.711,-0.059
1.712,-0.053
1.713,-0.047
1.714,-0.047
1.715,-0.047
1.716,-0.047
1.717,-0.05
1.718,-0.049
1.719,-0.047
1.72,-0.047
1.721,-0.047
1.722,-0.054
1.723,-0.059
1.724,-0.061
1.725,-0.062
1.726,-0.059
1.727,-0.059
1.728,-0.055
1.729,-0.053
1.73,-0.057
1.731,-0.056
1.732,-0.059
1.733,-0.062
1.734,-0.064
1.735,-0.066
1.736,-0.061
1.737,-0.056
1.738,-0.053
1.739,-0.053
1.74,-0.052
1.741,-0.053
1.742,-0.053
1.743,-0.053
1.744,-0.052
1.745,-0.05
1.746,-0.05
1.747,-0.05
1.748,-0.053
1.749,-0.053
1.75,-0.054
1.751,-0.059
1.752,-0.059
1.753,-0.062
1.754,-0.062
1.755,-0.066
1.756,-0.067
1.757,-0.066
1.758,-0.069
1.759,-0.069
1.76,-0.067
1.761,-0.062
1.762,-0.056
1.763,-0.053
1.764,-0.053
1.765,-0.05
1.766,-0.049
1.767,-0.05
1.768,-0.051
1.769,-0.053
1.77,-0.05
1.771,-0.047
1.772,-0.051
1.773,-0.056
1.774,-0.056
1.775,-0.056
1.776,-0.057
1.777,-0.059
1.778,-0.057
1.779,-0.059
1.78,-0.057
1.781,-0.056
1.782,-0.056
1.783,-0.053
1.784,-0.049
1.785,-0.044
1.786,-0.042
1.787,-0.037
1.788,-0.036
1.789,-0.037
1.79,-0.033
1.791,-0.031
1.792,-0.032
1.793,-0.028
1.794,-0.025
1.795,-0.019
1.796,-0.022
1.797,-0.022
1.798,-0.025
1.799,-0.025
1.8,-0.025
1.801,-0.022
1.802,-0.016
1.803,-0.016
1.804,-0.014
1.805,-0.016
1.806,-0.017
1.807,-0.013
1.808,-0.006
1.809,0
1.81,0.003
1.811,0.006
1.812,0.013
1.813,0.016
1.814,0.018
1.815,0.019
1.816,0.019
1.817,0.019
1.818,0.02
1.819,0.022
1.82,0.026
1.821,0.025
1.822,0.018
1.823,0.016
1.824,0.014
1.825,0.013
1.826,0.016
1.827,0.019
1.828,0.022
1.829,0.019
1.83,0.022
1.831,0.022
1.832,0.028
1.833,0.031
1.834,0.031
1.835,0.031
1.836,0.031
1.837,0.031
1.838,0.033
1.839,0.034
1.84,0.034
1.841,0.038
1.842,0.039
1.843,0.041
1.844,0.038
1.845,0.034
1.846,0.027
1.847,0.019
1.848,0.016
1.849,0.013
1.85,0.013
1.851,0.009
1.852,0.006
1.853,0.009
1.854,0.009
1.855,0.013
1.856,0.014
1.857,0.013
1.858,0.013
1.859,0.016
1.86,0.017
1.861,0.016
1.862,0.019
1.863,0.022
1.864,0.018
1.865,0.016
1.866,0.014
1.867,0.013
1.868,0.011
1.869,0.009
1.87,0.008
1.871,0
1.872,0
1.873,0
1.874,0
1.875,0
1.876,0
1.877,0
1.878,0
1.879,0.003
1.88,0.004
1.881,0.006
1.882,0.001
1.883,0.003
1.884,0.003
1.885,0.006
1.886,0.006
1.887,0.009
1.888,0.014
1.889,0.016
1.89,0.017
1.891,0.016
1.892,0.014
1.893,0.013
1.894,0.005
1.895,0
1.896,-0.003
1.897,0
1.898,-0.003
1.899,0
1.9,-0.001
1.901,-0.003
1.902,-0.002
1.903,0.003
1.904,0.006
1.905,0.006
1.906,0.006
1.907,0.006
1.908,0.009
1.909,0.013
1.91,0.013
1.911,0.013
1.912,0.014
1.913,0.013
1.914,0.014
1.915,0.013
1.916,0.011
1.917,0.009
1.918,0.008
1.919,0.003
1.92,0.003
1.921,0.003
1.922,-0.001
1.923,0
1.924,0
1.925,0
1.926,-0.003
1.927,-0.006
1.928,-0.007
1.929,-0.009
1.93,-0.008
1.931,-0.003
1.932,0.001
1.933,0
1.934,-0.002
1.935,0.003
1.936,0.002
1.937,0
1.938,0.001
1.939,0
1.94,0
1.941,-0.003
1.942,-0.002
1.943,-0.003
1.944,-0.004
1.945,-0.006
1.946,-0.009
1.947,-0.009
1.948,-0.009
1.949,-0.009
1.95,-0.007
1.951,-0.009
1.952,-0.013
1.953,-0.013
1.954,-0.009
1.955,-0.006
1.956,0
1.957,0.003
1.958,0.004
1.959,0.003
1.96,0.004
1.961,0.006
1.962,0.003
1.963,0
1.964,-0.002
1.965,-0.003
1.966,-0.011
1.967,-0.009
1.968,-0.017
1.969,-0.022
1.97,-0.026
1.971,-0.031
1.972,-0.031
1.973,-0.031
1.974,-0.025
1.975,-0.019
1.976,-0.022
1.977,-0.022
1.978,-0.025
1.979,-0.025
1.98,-0.025
1.981,-0.025
1.982,-0.024
1.983,-0.022
1.984,-0.022
1.985,-0.016
1.986,-0.016
1.987,-0.019
1.988,-0.02
1.989,-0.022
1.99,-0.028
1.991,-0.031
1.992,-0.036
1.993,-0.034
1.994,-0.033
1.995,-0.031
1.996,-0.034
1.997,-0.031
1.998,-0.037
1.999,-0.037
2,-0.042
2.001,-0.044
2.002,-0.042
2.003,-0.037
2.004,-0.034
2.005,-0.031
2.006,-0.025
2.007,-0.019
2.008,-0.019
2.009,-0.019
2.01,-0.025
2.011,-0.028
2.012,-0.029
2.013,-0.028
2.014,-0.027
2.015,-0.028
2.016,-0.028
2.017,-0.034
2.018,-0.039
2.019,-0.044
2.02,-0.047
2.021,-0.047
2.022,-0.044
2.023,-0.037
2.024,-0.034
2.025,-0.031
2.026,-0.031
2.027,-0.031
2.028,-0.034
2.029,-0.034
2.03,-0.033
2.031,-0.034
2.032,-0.034
2.033,-0.034
2.034,-0.034
2.035,-0.031
2.036,-0.032
2.037,-0.031
2.038,-0.031
2.039,-0.034
2.04,-0.044
2.041,-0.047
2.042,-0.049
2.043,-0.05
2.044,-0.049
2.045,-0.05
2.046,-0.048
2.047,-0.05
2.048,-0.05
2.049,-0.05
2.05,-0.049
2.051,-0.05
2.052,-0.049
2.053,-0.041
2.054,-0.039
2.055,-0.037
2.056,-0.039
2.057,-0.041
2.058,-0.042
2.059,-0.044
2.06,-0.047
2.061,-0.044
2.062,-0.042
2.063,-0.044
2.064,-0.045
2.065,-0.05
2.066,-0.051
2.067,-0.05
2.068,-0.053
2.069,-0.053
2.07,-0.054
2.071,-0.053
2.072,-0.055
2.073,-0.053
2.074,-0.055
2.075,-0.053
2.076,-0.047
2.077,-0.05
2.078,-0.05
2.079,-0.05
2.08,-0.047
2.081,-0.05
2.082,-0.054
2.083,-0.053
2.084,-0.055
2.085,-0.053
2.086,-0.051
2.087,-0.053
2.088,-0.05
2.089,-0.056
2.09,-0.059
2.091,-0.066
2.092,-0.059
2.093,-0.059
2.094,-0.064
2.095,-0.062
2.096,-0.062
2.097,-0.062
2.098,-0.061
2.099,-0.062
2.1,-0.059
2.101,-0.053
2.102,-0.05
2.103,-0.044
2.104,-0.042
2.105,-0.034
2.106,-0.031
2.107,-0.028
2.108,-0.026
2.109,-0.028
2.11,-0.022
2.111,-0.016
2.112,-0.011
2.113,-0.003
2.114,-0.001
2.115,0
2.116,0.006
2.117,0.013
2.118,0.019
2.119,0.025
2.12,0.022
2.121,0.019
2.122,0.014
2.123,0.013
2.124,0.009
2.125,0.013
2.126,0.013
2.127,0.016
2.128,0.017
2.129,0.019
2.13,0.021
2.131,0.022
2.132,0.026
2.133,0.034
2.134,0.038
2.135,0.041
2.136,0.041
2.137,0.044
2.138,0.046
2.139,0.047
2.14,0.049
2.141,0.044
2.142,0.038
2.143,0.041
2.144,0.048
2.145,0.059
2.146,0.066
2.147,0.072
2.148,0.076
2.149,0.078
2.15,0.079
2.151,0.081
2.152,0.081
2.153,0.081
2.154,0.081
2.155,0.078
2.156,0.074
2.157,0.069
2.158,0.063
2.159,0.056
2.16,0.052
2.161,0.047
2.162,0.039
2.163,0.034
2.164,0.025
2.165,0.025
2.166,0.016
2.167,0.009
2.168,0.001
2.169,0
2.17,-0.003
2.171,-0.006
2.172,-0.009
2.173,-0.016
2.174,-0.023
2.175,-0.031
2.176,-0.033
2.177,-0.031
2.178,-0.027
2.179,-0.025
2.18,-0.028
2.181,-0.028
2.182,-0.027
2.183,-0.028
2.184,-0.037
2.185,-0.041
2.186,-0.05
2.187,-0.056
2.188,-0.059
2.189,-0.062
2.19,-0.062
2.191,-0.062
2.192,-0.064
2.193,-0.066
2.194,-0.064
2.195,-0.066
2.196,-0.071
2.197,-0.072
2.198,-0.075
2.199,-0.075
2.2,-0.072
2.201,-0.072
2.202,-0.071
2.203,-0.066
2.204,-0.069
2.205,-0.069
2.206,-0.067
2.207,-0.069
2.208,-0.066
2.209,-0.066
2.21,-0.066
2.211,-0.066
2.212,-0.075
2.213,-0.084
2.214,-0.083
2.215,-0.084
2.216,-0.086
2.217,-0.087
2.218,-0.084
2.219,-0.087
2.22,-0.084
2.221,-0.081
2.222,-0.083
2.223,-0.084
2.224,-0.08
2.225,-0.078
2.226,-0.081
2.227,-0.084
2.228,-0.087
2.229,-0.094
2.23,-0.099
2.231,-0.106
2.232,-0.117
2.233,-0.128
2.234,-0.131
2.235,-0.131
2.236,-0.129
2.237,-0.122
2.238,-0.111
2.239,-0.1
2.24,-0.092
2.241,-0.078
2.242,-0.058
2.243,-0.031
2.244,0
2.245,0.031
2.246,0.064
2.247,0.103
2.248,0.147
2.249,0.2
2.25,0.248
2.251,0.303
2.252,0.349
2.253,0.388
2.254,0.428
2.255,0.472
2.256,0.523
2.257,0.584
2.258,0.646
2.259,0.703
2.26,0.756
2.261,0.806
2.262,0.859
2.263,0.909
2.264,0.961
2.265,1
2.266,1.028
2.267,1.034
2.268,1.029
2.269,1.009
2.27,0.978
2.271,0.934
2.272,0.878
2.273,0.813
2.274,0.743
2.275,0.675
2.276,0.609
2.277,0.547
2.278,0.486
2.279,0.431
2.28,0.375
2.281,0.316
2.282,0.25
2.283,0.184
2.284,0.119
2.285,0.066
2.286,0.02
2.287,-0.016
2.288,-0.042
2.289,-0.053
2.29,-0.061
2.291,-0.059
2.292,-0.059
2.293,-0.062
2.294,-0.073
2.295,-0.084
2.296,-0.097
2.297,-0.106
2.298,-0.114
2.299,-0.119
2.3,-0.12
2.301,-0.128
2.302,-0.134
2.303,-0.141
2.304,-0.142
2.305,-0.137
2.306,-0.133
2.307,-0.122
2.308,-0.123
2.309,-0.125
2.31,-0.123
2.311,-0.122
2.312,-0.123
2.313,-0.122
2.314,-0.114
2.315,-0.103
2.316,-0.099
2.317,-0.097
2.318,-0.094
2.319,-0.094
2.32,-0.098
2.321,-0.1
2.322,-0.102
2.323,-0.1
2.324,-0.097
2.325,-0.094
2.326,-0.1
2.327,-0.1
2.328,-0.1
2.329,-0.097
2.33,-0.096
2.331,-0.091
2.332,-0.095
2.333,-0.097
2.334,-0.098
2.335,-0.1
2.336,-0.097
2.337,-0.094
2.338,-0.094
2.339,-0.094
2.34,-0.094
2.341,-0.097
2.342,-0.1
2.343,-0.103
2.344,-0.102
2.345,-0.1
2.346,-0.094
2.347,-0.091
2.348,-0.087
2.349,-0.087
2.35,-0.091
2.351,-0.091
2.352,-0.089
2.353,-0.091
2.354,-0.091
2.355,-0.091
2.356,-0.092
2.357,-0.097
2.358,-0.098
2.359,-0.1
2.36,-0.107
2.361,-0.106
2.362,-0.102
2.363,-0.103
2.364,-0.107
2.365,-0.109
2.366,-0.102
2.367,-0.097
2.368,-0.094
2.369,-0.094
2.37,-0.091
2.371,-0.084
2.372,-0.084
2.373,-0.087
2.374,-0.087
2.375,-0.087
2.376,-0.089
2.377,-0.091
2.378,-0.087
2.379,-0.091
2.38,-0.091
2.381,-0.091
2.382,-0.089
2.383,-0.091
2.384,-0.089
2.385,-0.091
2.386,-0.089
2.387,-0.087
2.388,-0.087
2.389,-0.091
2.39,-0.091
2.391,-0.094
2.392,-0.098
2.393,-0.1
2.394,-0.094
2.395,-0.087
2.396,-0.086
2.397,-0.084
2.398,-0.081
2.399,-0.081
2.4,-0.078
2.401,-0.078
2.402,-0.081
2.403,-0.081
2.404,-0.081
2.405,-0.081
2.406,-0.082
2.407,-0.084
2.408,-0.084
2.409,-0.084
2.41,-0.087
2.411,-0.084
2.412,-0.089
2.413,-0.087
2.414,-0.087
2.415,-0.087
2.416,-0.086
2.417,-0.084
2.418,-0.086
2.419,-0.084
2.42,-0.084
2.421,-0.084
2.422,-0.084
2.423,-0.084
2.424,-0.086
2.425,-0.087
2.426,-0.084
2.427,-0.087
2.428,-0.089
2.429,-0.091
2.43,-0.091
2.431,-0.087
2.432,-0.087
2.433,-0.091
2.434,-0.094
2.435,-0.091
2.436,-0.091
2.437,-0.091
2.438,-0.089
2.439,-0.087
2.44,-0.087
2.441,-0.087
2.442,-0.078
2.443,-0.075
2.444,-0.075
2.445,-0.075
2.446,-0.075
2.447,-0.072
2.448,-0.067
2.449,-0.069
2.45,-0.072
2.451,-0.075
2.452,-0.074
2.453,-0.075
2.454,-0.078
2.455,-0.081
2.456,-0.082
2.457,-0.084
2.458,-0.086
2.459,-0.087
2.46,-0.089
2.461,-0.087
2.462,-0.086
2.463,-0.084
2.464,-0.087
2.465,-0.087
2.466,-0.086
2.467,-0.084
2.468,-0.081
2.469,-0.081
2.47,-0.077
2.471,-0.072
2.472,-0.069
2.473,-0.062
2.474,-0.062
2.475,-0.062
2.476,-0.066
2.477,-0.066
2.478,-0.072
2.479,-0.078
2.48,-0.082
2.481,-0.081
2.482,-0.08
2.483,-0.075
2.484,-0.078
2.485,-0.078
2.486,-0.076
2.487,-0.081
2.488,-0.078
2.489,-0.081
2.49,-0.083
2.491,-0.081
2.492,-0.074
2.493,-0.069
2.494,-0.069
2.495,-0.069
2.496,-0.067
2.497,-0.069
2.498,-0.069
2.499,-0.069
2.5,-0.066
2.501,-0.069
2.502,-0.069
2.503,-0.069
2.504,-0.073
2.505,-0.078
2.506,-0.077
2.507,-0.075
2.508,-0.074
2.509,-0.075
2.51,-0.075
2.511,-0.075
2.512,-0.072
2.513,-0.069
2.514,-0.069
2.515,-0.066
2.516,-0.067
2.517,-0.069
2.518,-0.067
2.519,-0.069
2.52,-0.062
2.521,-0.059
2.522,-0.064
2.523,-0.062
2.524,-0.059
2.525,-0.056
2.526,-0.061
2.527,-0.066
2.528,-0.067
2.529,-0.069
2.53,-0.069
2.531,-0.072
2.532,-0.072
2.533,-0.075
2.534,-0.074
2.535,-0.072
2.536,-0.072
2.537,-0.072
2.538,-0.071
2.539,-0.069
2.54,-0.069
2.541,-0.066
2.542,-0.064
2.543,-0.066
2.544,-0.064
2.545,-0.066
2.546,-0.066
2.547,-0.069
2.548,-0.07
2.549,-0.069
2.55,-0.072
2.551,-0.072
2.552,-0.076
2.553,-0.078
2.554,-0.075
2.555,-0.075
2.556,-0.076
2.557,-0.075
2.558,-0.071
2.559,-0.069
2.56,-0.069
2.561,-0.069
2.562,-0.067
2.563,-0.066
2.564,-0.059
2.565,-0.053
2.566,-0.052
2.567,-0.05
2.568,-0.051
2.569,-0.053
2.57,-0.05
2.571,-0.05
2.572,-0.048
2.573,-0.047
2.574,-0.044
2.575,-0.037
2.576,-0.039
2.577,-0.041
2.578,-0.044
2.579,-0.044
2.58,-0.039
2.581,-0.037
2.582,-0.036
2.583,-0.037
2.584,-0.042
2.585,-0.041
2.586,-0.041
2.587,-0.037
2.588,-0.036
2.589,-0.031
2.59,-0.027
2.591,-0.019
2.592,-0.019
2.593,-0.016
2.594,-0.011
2.595,-0.013
2.596,-0.008
2.597,-0.006
2.598,-0.002
2.599,0.009
2.6,0.009
2.601,0.009
2.602,0.008
2.603,0.006
2.604,0.006
2.605,0.003
2.606,0.006
2.607,0.009
2.608,0.013
2.609,0.016
2.61,0.014
2.611,0.013
2.612,0.017
2.613,0.016
2.614,0.016
2.615,0.022
2.616,0.023
2.617,0.025
2.618,0.025
2.619,0.025
2.62,0.029
2.621,0.028
2.622,0.03
2.623,0.028
2.624,0.031
2.625,0.031
2.626,0.03
2.627,0.028
2.628,0.024
2.629,0.019
2.63,0.02
2.631,0.022
2.632,0.019
2.633,0.019
2.634,0.018
2.635,0.016
2.636,0.016
2.637,0.016
2.638,0.02
2.639,0.025
2.64,0.028
2.641,0.031
2.642,0.036
2.643,0.038
2.644,0.036
2.645,0.041
2.646,0.034
2.647,0.031
2.648,0.031
2.649,0.028
2.65,0.021
2.651,0.016
2.652,0.014
2.653,0.009
2.654,0.011
2.655,0.013
2.656,0.009
2.657,0.009
2.658,0.013
2.659,0.016
2.66,0.016
2.661,0.016
2.662,0.019
2.663,0.016
2.664,0.016
2.665,0.016
2.666,0.016
2.667,0.016
2.668,0.016
2.669,0.016
2.67,0.016
2.671,0.019
2.672,0.018
2.673,0.016
2.674,0.008
2.675,0.006
2.676,0.002
2.677,0
2.678,-0.001
2.679,0
2.68,0.003
2.681,0.003
2.682,0.004
2.683,0.003
2.684,0.004
2.685,0.006
2.686,0.009
2.687,0.016
2.688,0.013
2.689,0.016
2.69,0.009
2.691,0.009
2.692,0.009
2.693,0.009
2.694,0.008
2.695,0.009
2.696,0.014
2.697,0.016
2.698,0.013
2.699,0.009
2.7,0.006
2.701,0.003
2.702,0.002
2.703,0
2.704,-0.001
2.705,-0.006
2.706,-0.005
2.707,-0.006
2.708,-0.005
2.709,-0.003
2.71,0
2.711,0
2.712,0.003
2.713,0.006
2.714,0.003
2.715,0.006
2.716,0.008
2.717,0.009
2.718,0.009
2.719,0.009
2.72,0.011
2.721,0.013
2.722,0.011
2.723,0.013
2.724,0.016
2.725,0.013
2.726,0.005
2.727,0.003
2.728,-0.001
2.729,-0.006
2.73,-0.005
2.731,-0.006
2.732,-0.003
2.733,-0.003
2.734,0.001
2.735,0.003
2.736,0.003
2.737,0.003
2.738,0.001
2.739,0.003
2.74,0.003
2.741,0.003
2.742,0.005
2.743,0.003
2.744,0.002
2.745,0.003
2.746,-0.001
2.747,-0.006
2.748,-0.006
2.749,-0.009
2.75,-0.008
2.751,-0.009
2.752,-0.009
2.753,-0.009
2.754,-0.006
2.755,-0.003
2.756,-0.005
2.757,-0.006
2.758,-0.013
2.759,-0.009
2.76,-0.006
2.761,0
2.762,0
2.763,0
2.764,-0.001
2.765,-0.003
2.766,-0.004
2.767,-0.006
2.768,-0.009
2.769,-0.009
2.77,-0.011
2.771,-0.009
2.772,-0.011
2.773,-0.013
2.774,-0.013
2.775,-0.013
2.776,-0.02
2.777,-0.022
2.778,-0.022
2.779,-0.025
2.78,-0.024
2.781,-0.022
2.782,-0.025
2.783,-0.025
2.784,-0.028
2.785,-0.025
2.786,-0.022
2.787,-0.019
2.788,-0.021
2.789,-0.016
2.79,-0.017
2.791,-0.013
2.792,-0.014
2.793,-0.013
2.794,-0.014
2.795,-0.013
2.796,-0.023
2.797,-0.034
2.798,-0.032
2.799,-0.031
2.8,-0.031
2.801,-0.031
2.802,-0.034
2.803,-0.034
2.804,-0.034
2.805,-0.031
2.806,-0.03
2.807,-0.031
2.808,-0.028
2.809,-0.031
2.81,-0.031
2.811,-0.031
2.812,-0.032
2.813,-0.031
2.814,-0.032
2.815,-0.031
2.816,-0.032
2.817,-0.034
2.818,-0.033
2.819,-0.031
2.82,-0.034
2.821,-0.031
2.822,-0.032
2.823,-0.034
2.824,-0.039
2.825,-0.041
2.826,-0.037
2.827,-0.037
2.828,-0.037
2.829,-0.037
2.83,-0.034
2.831,-0.034
2.832,-0.033
2.833,-0.034
2.834,-0.034
2.835,-0.034
2.836,-0.036
2.837,-0.034
2.838,-0.036
2.839,-0.034
2.84,-0.031
2.841,-0.031
2.842,-0.032
2.843,-0.028
2.844,-0.031
2.845,-0.034
2.846,-0.034
2.847,-0.037
2.848,-0.036
2.849,-0.037
2.85,-0.039
2.851,-0.041
2.852,-0.042
2.853,-0.047
2.854,-0.052
2.855,-0.05
2.856,-0.047
2.857,-0.044
2.858,-0.037
2.859,-0.031
2.86,-0.03
2.861,-0.028
2.862,-0.032
2.863,-0.031
2.864,-0.031
2.865,-0.034
2.866,-0.034
2.867,-0.037
2.868,-0.042
2.869,-0.044
2.87,-0.048
2.871,-0.05
2.872,-0.054
2.873,-0.056
2.874,-0.058
2.875,-0.056
2.876,-0.056
2.877,-0.053
2.878,-0.047
2.879,-0.05
2.88,-0.044
2.881,-0.037
2.882,-0.03
2.883,-0.028
2.884,-0.032
2.885,-0.031
2.886,-0.039
2.887,-0.044
2.888,-0.044
2.889,-0.047
2.89,-0.034
2.891,-0.031
2.892,-0.031
2.893,-0.034
2.894,-0.034
2.895,-0.041
2.896,-0.045
2.897,-0.044
2.898,-0.045
2.899,-0.047
2.9,-0.037
2.901,-0.031
2.902,-0.027
2.903,-0.019
2.904,-0.013
2.905,-0.003
2.906,0.003
2.907,0.016
2.908,0.023
2.909,0.031
2.91,0.036
2.911,0.038
2.912,0.038
2.913,0.038
2.914,0.036
2.915,0.038
2.916,0.038
2.917,0.038
2.918,0.038
2.919,0.038
2.92,0.038
2.921,0.038
2.922,0.038
2.923,0.038
2.924,0.039
2.925,0.044
2.926,0.042
2.927,0.047
2.928,0.044
2.929,0.044
2.93,0.05
2.931,0.056
2.932,0.059
2.933,0.063
2.934,0.066
2.935,0.072
2.936,0.075
2.937,0.078
2.938,0.08
2.939,0.084
2.94,0.088
2.941,0.091
2.942,0.094
2.943,0.091
2.944,0.086
2.945,0.091
2.946,0.088
2.947,0.088
2.948,0.086
2.949,0.084
2.95,0.086
2.951,0.084
2.952,0.083
2.953,0.081
2.954,0.084
2.955,0.088
2.956,0.089
2.957,0.088
2.958,0.081
2.959,0.075
2.96,0.071
2.961,0.066
2.962,0.066
2.963,0.066
2.964,0.059
2.965,0.056
2.966,0.041
2.967,0.034
2.968,0.025
2.969,0.019
2.97,0.008
2.971,0.003
2.972,-0.002
2.973,-0.006
2.974,-0.008
2.975,-0.013
2.976,-0.014
2.977,-0.016
2.978,-0.019
2.979,-0.019
2.98,-0.016
2.981,-0.016
2.982,-0.02
2.983,-0.022
2.984,-0.023
2.985,-0.028
2.986,-0.031
2.987,-0.028
2.988,-0.03
2.989,-0.028
2.99,-0.032
2.991,-0.037
2.992,-0.048
2.993,-0.059
2.994,-0.062
2.995,-0.066
2.996,-0.064
2.997,-0.066
2.998,-0.071
2.999,-0.072
3,-0.075
3.001,-0.075
3.002,-0.072
3.003,-0.072
3.004,-0.072
3.005,-0.069
3.006,-0.072
3.007,-0.072
3.008,-0.07
3.009,-0.072
3.01,-0.069
3.011,-0.069
3.012,-0.069
3.013,-0.069
3.014,-0.07
3.015,-0.072
3.016,-0.071
3.017,-0.072
3.018,-0.073
3.019,-0.075
3.02,-0.072
3.021,-0.075
3.022,-0.075
3.023,-0.075
3.024,-0.078
3.025,-0.081
3.026,-0.08
3.027,-0.081
3.028,-0.08
3.029,-0.078
3.03,-0.08
3.031,-0.084
3.032,-0.092
3.033,-0.103
3.034,-0.111
3.035,-0.119
3.036,-0.125
3.037,-0.128
3.038,-0.129
3.039,-0.125
3.04,-0.119
3.041,-0.112
3.042,-0.097
3.043,-0.075
3.044,-0.056
3.045,-0.031
3.046,-0.003
3.047,0.025
3.048,0.059
3.049,0.1
3.05,0.141
3.051,0.191
3.052,0.238
3.053,0.291
3.054,0.345
3.055,0.394
3.056,0.439
3.057,0.488
3.058,0.539
3.059,0.6
3.06,0.659
3.061,0.716
3.062,0.771
3.063,0.822
3.064,0.872
3.065,0.919
3.066,0.968
3.067,1.003
3.068,1.028
3.069,1.031
3.07,1.029
3.071,1.013
3.072,0.978
3.073,0.931
3.074,0.873
3.075,0.806
3.076,0.742
3.077,0.681
3.078,0.623
3.079,0.569
3.08,0.508
3.081,0.453
3.082,0.391
3.083,0.325
3.084,0.259
3.085,0.194
3.086,0.129
3.087,0.078
3.088,0.028
3.089,-0.013
3.09,-0.041
3.091,-0.053
3.092,-0.061
3.093,-0.059
3.094,-0.057
3.095,-0.059
3.096,-0.069
3.097,-0.078
3.098,-0.092
3.099,-0.103
3.1,-0.108
3.101,-0.109
3.102,-0.109
3.103,-0.116
3.104,-0.125
3.105,-0.134
3.106,-0.137
3.107,-0.134
3.108,-0.131
3.109,-0.122
3.11,-0.119
3.111,-0.116
3.112,-0.111
3.113,-0.106
3.114,-0.107
3.115,-0.106
3.116,-0.103
3.117,-0.097
3.118,-0.094
3.119,-0.094
3.12,-0.091
3.121,-0.091
3.122,-0.091
3.123,-0.087
3.124,-0.091
3.125,-0.091
3.126,-0.086
3.127,-0.081
3.128,-0.086
3.129,-0.084
3.13,-0.086
3.131,-0.084
3.132,-0.087
3.133,-0.087
3.134,-0.087
3.135,-0.084
3.136,-0.081
3.137,-0.078
3.138,-0.084
3.139,-0.091
3.14,-0.091
3.141,-0.091
3.142,-0.089
3.143,-0.091
3.144,-0.095
3.145,-0.1
3.146,-0.102
3.147,-0.103
3.148,-0.103
3.149,-0.106
3.15,-0.099
3.151,-0.094
3.152,-0.095
3.153,-0.094
3.154,-0.089
3.155,-0.087
3.156,-0.087
3.157,-0.087
3.158,-0.086
3.159,-0.087
3.16,-0.086
3.161,-0.084
3.162,-0.095
3.163,-0.097
3.164,-0.094
3.165,-0.097
3.166,-0.1
3.167,-0.1
3.168,-0.1
3.169,-0.103
3.17,-0.102
3.171,-0.103
3.172,-0.103
3.173,-0.1
3.174,-0.094
3.175,-0.091
3.176,-0.086
3.177,-0.081
3.178,-0.081
3.179,-0.081
3.18,-0.076
3.181,-0.078
3.182,-0.078
3.183,-0.078
3.184,-0.079
3.185,-0.084
3.186,-0.084
3.187,-0.087
3.188,-0.092
3.189,-0.097
3.19,-0.094
3.191,-0.094
3.192,-0.091
3.193,-0.091
3.194,-0.095
3.195,-0.097
3.196,-0.096
3.197,-0.094
3.198,-0.092
3.199,-0.091
3.2,-0.087
3.201,-0.087
3.202,-0.086
3.203,-0.087
3.204,-0.089
3.205,-0.087
3.206,-0.087
3.207,-0.087
3.208,-0.087
3.209,-0.087
3.21,-0.087
3.211,-0.087
3.212,-0.091
3.213,-0.087
3.214,-0.092
3.215,-0.091
3.216,-0.091
3.217,-0.091
3.218,-0.089
3.219,-0.087
3.22,-0.089
3.221,-0.087
3.222,-0.089
3.223,-0.091
3.224,-0.091
3.225,-0.091
3.226,-0.091
3.227,-0.091
3.228,-0.086
3.229,-0.087
3.23,-0.089
3.231,-0.091
3.232,-0.092
3.233,-0.091
3.234,-0.087
3.235,-0.087
3.236,-0.094
3.237,-0.094
3.238,-0.094
3.239,-0.094
3.24,-0.092
3.241,-0.091
3.242,-0.092
3.243,-0.094
3.244,-0.089
3.245,-0.091
3.246,-0.089
3.247,-0.087
3.248,-0.086
3.249,-0.081
3.25,-0.074
3.251,-0.072
3.252,-0.073
3.253,-0.075
3.254,-0.076
3.255,-0.081
3.256,-0.082
3.257,-0.084
3.258,-0.084
3.259,-0.084
3.26,-0.084
3.261,-0.084
3.262,-0.084
3.263,-0.081
3.264,-0.082
3.265,-0.084
3.266,-0.087
3.267,-0.087
3.268,-0.089
3.269,-0.091
3.27,-0.087
3.271,-0.087
3.272,-0.08
3.273,-0.072
3.274,-0.072
3.275,-0.069
3.276,-0.069
3.277,-0.069
3.278,-0.069
3.279,-0.066
3.28,-0.064
3.281,-0.062
3.282,-0.072
3.283,-0.075
3.284,-0.078
3.285,-0.078
3.286,-0.081
3.287,-0.081
3.288,-0.074
3.289,-0.072
3.29,-0.069
3.291,-0.072
3.292,-0.076
3.293,-0.078
3.294,-0.078
3.295,-0.081
3.296,-0.077
3.297,-0.072
3.298,-0.067
3.299,-0.066
3.3,-0.064
3.301,-0.062
3.302,-0.059
3.303,-0.062
3.304,-0.064
3.305,-0.066
3.306,-0.066
3.307,-0.066
3.308,-0.069
3.309,-0.072
3.31,-0.072
3.311,-0.075
3.312,-0.078
3.313,-0.081
3.314,-0.081
3.315,-0.081
3.316,-0.081
3.317,-0.078
3.318,-0.082
3.319,-0.087
3.32,-0.083
3.321,-0.081
3.322,-0.075
3.323,-0.072
3.324,-0.075
3.325,-0.072
3.326,-0.072
3.327,-0.072
3.328,-0.072
3.329,-0.072
3.33,-0.071
3.331,-0.069
3.332,-0.067
3.333,-0.069
3.334,-0.073
3.335,-0.081
3.336,-0.081
3.337,-0.081
3.338,-0.081
3.339,-0.081
3.34,-0.081
3.341,-0.081
3.342,-0.084
3.343,-0.084
3.344,-0.077
3.345,-0.072
3.346,-0.069
3.347,-0.069
3.348,-0.067
3.349,-0.069
3.35,-0.07
3.351,-0.069
3.352,-0.073
3.353,-0.075
3.354,-0.076
3.355,-0.075
3.356,-0.073
3.357,-0.075
3.358,-0.079
3.359,-0.081
3.36,-0.081
3.361,-0.084
3.362,-0.08
3.363,-0.075
3.364,-0.076
3.365,-0.078
3.366,-0.078
3.367,-0.078
3.368,-0.075
3.369,-0.072
3.37,-0.067
3.371,-0.062
3.372,-0.061
3.373,-0.062
3.374,-0.062
3.375,-0.062
3.376,-0.062
3.377,-0.059
3.378,-0.055
3.379,-0.05
3.38,-0.053
3.381,-0.053
3.382,-0.051
3.383,-0.053
3.384,-0.053
3.385,-0.056
3.386,-0.057
3.387,-0.053
3.388,-0.049
3.389,-0.041
3.39,-0.039
3.391,-0.034
3.392,-0.033
3.393,-0.028
3.394,-0.022
3.395,-0.013
3.396,-0.005
3.397,-0.003
3.398,-0.001
3.399,-0.003
3.4,-0.007
3.401,-0.006
3.402,-0.003
3.403,0
3.404,0.003
3.405,0.006
3.406,0.009
3.407,0.009
3.408,0.009
3.409,0.009
3.41,0.008
3.411,0.006
3.412,0.006
3.413,0.006
3.414,0.011
3.415,0.009
3.416,0.009
3.417,0.016
3.418,0.019
3.419,0.022
3.42,0.024
3.421,0.025
3.422,0.029
3.423,0.028
3.424,0.03
3.425,0.028
3.426,0.031
3.427,0.031
3.428,0.03
3.429,0.028
3.43,0.028
3.431,0.028
3.432,0.027
3.433,0.025
3.434,0.022
3.435,0.022
3.436,0.021
3.437,0.019
3.438,0.017
3.439,0.016
3.44,0.013
3.441,0.009
3.442,0.014
3.443,0.019
3.444,0.023
3.445,0.025
3.446,0.022
3.447,0.025
3.448,0.018
3.449,0.013
3.45,0.016
3.451,0.016
3.452,0.009
3.453,0.006
3.454,0.003
3.455,-0.003
3.456,-0.004
3.457,-0.006
3.458,-0.008
3.459,-0.006
3.46,-0.006
3.461,-0.006
3.462,-0.006
3.463,-0.006
3.464,-0.003
3.465,-0.006
3.466,-0.006
3.467,-0.006
3.468,-0.002
3.469,0.003
3.47,0.002
3.471,0
3.472,0
3.473,0.003
3.474,0.002
3.475,0
3.476,-0.007
3.477,-0.009
3.478,-0.009
3.479,-0.006
3.48,-0.006
3.481,-0.003
3.482,0
3.483,0
3.484,0
3.485,-0.003
3.486,-0.003
3.487,-0.003
3.488,-0.003
3.489,0
3.49,-0.002
3.491,0.003
3.492,0.003
3.493,0.009
3.494,0.009
3.495,0.009
3.496,0.006
3.497,0.006
3.498,0.009
3.499,0.009
3.5,0.009
3.501,0.009
3.502,0.008
3.503,0.006
3.504,0.003
3.505,0
3.506,-0.001
3.507,-0.006
3.508,-0.006
3.509,-0.009
3.51,-0.008
3.511,-0.006
3.512,-0.003
3.513,-0.003
3.514,0
3.515,0.003
3.516,0.001
3.517,0.006
3.518,0.006
3.519,0.006
3.52,0.005
3.521,0.003
3.522,0.002
3.523,0
3.524,-0.001
3.525,0
3.526,0.002
3.527,-0.003
3.528,-0.009
3.529,-0.009
3.53,-0.009
3.531,-0.009
3.532,-0.009
3.533,-0.013
3.534,-0.013
3.535,-0.016
3.536,-0.014
3.537,-0.016
3.538,-0.014
3.539,-0.013
3.54,-0.014
3.541,-0.013
3.542,-0.009
3.543,-0.006
3.544,0
3.545,0.003
3.546,0.002
3.547,0.003
3.548,0.002
3.549,0
3.55,-0.001
3.551,-0.006
3.552,-0.006
3.553,-0.009
3.554,-0.011
3.555,-0.013
3.556,-0.013
3.557,-0.013
3.558,-0.019
3.559,-0.025
3.56,-0.031
3.561,-0.028
3.562,-0.031
3.563,-0.031
3.564,-0.027
3.565,-0.022
3.566,-0.021
3.567,-0.019
3.568,-0.017
3.569,-0.016
3.57,-0.014
3.571,-0.009
3.572,-0.013
3.573,-0.013
3.574,-0.014
3.575,-0.016
3.576,-0.017
3.577,-0.019
3.578,-0.025
3.579,-0.025
3.58,-0.025
3.581,-0.028
3.582,-0.028
3.583,-0.028
3.584,-0.03
3.585,-0.028
3.586,-0.033
3.587,-0.031
3.588,-0.027
3.589,-0.022
3.59,-0.021
3.591,-0.013
3.592,-0.017
3.593,-0.016
3.594,-0.023
3.595,-0.028
3.596,-0.031
3.597,-0.031
3.598,-0.032
3.599,-0.034
3.6,-0.037
3.601,-0.041
3.602,-0.045
3.603,-0.05
3.604,-0.052
3.605,-0.05
3.606,-0.049
3.607,-0.047
3.608,-0.05
3.609,-0.05
3.61,-0.049
3.611,-0.05
3.612,-0.042
3.613,-0.034
3.614,-0.031
3.615,-0.028
3.616,-0.025
3.617,-0.022
3.618,-0.019
3.619,-0.025
3.62,-0.029
3.621,-0.031
3.622,-0.036
3.623,-0.034
3.624,-0.037
3.625,-0.041
3.626,-0.045
3.627,-0.05
3.628,-0.05
3.629,-0.053
3.63,-0.052
3.631,-0.05
3.632,-0.05
3.633,-0.05
3.634,-0.049
3.635,-0.047
3.636,-0.042
3.637,-0.041
3.638,-0.036
3.639,-0.031
3.64,-0.031
3.641,-0.031
3.642,-0.036
3.643,-0.037
3.644,-0.037
3.645,-0.044
3.646,-0.042
3.647,-0.041
3.648,-0.041
3.649,-0.047
3.65,-0.054
3.651,-0.066
3.652,-0.067
3.653,-0.066
3.654,-0.062
3.655,-0.053
3.656,-0.054
3.657,-0.053
3.658,-0.053
3.659,-0.053
3.66,-0.046
3.661,-0.044
3.662,-0.041
3.663,-0.034
3.664,-0.034
3.665,-0.028
3.666,-0.034
3.667,-0.037
3.668,-0.044
3.669,-0.041
3.67,-0.042
3.671,-0.047
3.672,-0.045
3.673,-0.047
3.674,-0.05
3.675,-0.053
3.676,-0.053
3.677,-0.053
3.678,-0.053
3.679,-0.053
3.68,-0.049
3.681,-0.047
3.682,-0.041
3.683,-0.034
3.684,-0.029
3.685,-0.028
3.686,-0.021
3.687,-0.009
3.688,-0.003
3.689,0.003
3.69,0.005
3.691,0.006
3.692,0.013
3.693,0.019
3.694,0.024
3.695,0.028
3.696,0.033
3.697,0.031
3.698,0.03
3.699,0.025
3.7,0.025
3.701,0.022
3.702,0.026
3.703,0.025
3.704,0.025
3.705,0.025
3.706,0.022
3.707,0.022
3.708,0.025
3.709,0.028
3.71,0.041
3.711,0.05
3.712,0.053
3.713,0.056
3.714,0.058
3.715,0.056
3.716,0.055
3.717,0.053
3.718,0.047
3.719,0.044
3.72,0.061
3.721,0.072
3.722,0.079
3.723,0.084
3.724,0.084
3.725,0.084
3.726,0.088
3.727,0.088
3.728,0.086
3.729,0.088
3.73,0.083
3.731,0.075
3.732,0.069
3.733,0.066
3.734,0.064
3.735,0.063
3.736,0.058
3.737,0.053
3.738,0.05
3.739,0.047
3.74,0.048
3.741,0.041
3.742,0.042
3.743,0.034
3.744,0.025
3.745,0.013
3.746,0.006
3.747,-0.003
3.748,-0.013
3.749,-0.019
3.75,-0.021
3.751,-0.022
3.752,-0.025
3.753,-0.025
3.754,-0.026
3.755,-0.025
3.756,-0.026
3.757,-0.031
3.758,-0.031
3.759,-0.031
3.76,-0.031
3.761,-0.034
3.762,-0.033
3.763,-0.034
3.764,-0.036
3.765,-0.037
3.766,-0.042
3.767,-0.05
3.768,-0.052
3.769,-0.053
3.77,-0.059
3.771,-0.066
3.772,-0.073
3.773,-0.081
3.774,-0.081
3.775,-0.081
3.776,-0.077
3.777,-0.072
3.778,-0.072
3.779,-0.072
3.78,-0.073
3.781,-0.075
3.782,-0.072
3.783,-0.069
3.784,-0.069
3.785,-0.066
3.786,-0.066
3.787,-0.066
3.788,-0.066
3.789,-0.066
3.79,-0.067
3.791,-0.069
3.792,-0.076
3.793,-0.081
3.794,-0.08
3.795,-0.075
3.796,-0.084
3.797,-0.091
3.798,-0.092
3.799,-0.097
3.8,-0.1
3.801,-0.1
3.802,-0.1
3.803,-0.1
3.804,-0.102
3.805,-0.103
3.806,-0.103
3.807,-0.103
3.808,-0.106
3.809,-0.106
3.81,-0.111
3.811,-0.112
3.812,-0.117
3.813,-0.119
3.814,-0.117
3.815,-0.116
3.816,-0.105
3.817,-0.091
3.818,-0.073
3.819,-0.056
3.82,-0.034
3.821,-0.009
3.822,0.023
3.823,0.059
3.824,0.101
3.825,0.144
3.826,0.194
3.827,0.244
3.828,0.293
3.829,0.338
3.83,0.38
3.831,0.419
3.832,0.464
3.833,0.516
3.834,0.574
3.835,0.638
3.836,0.7
3.837,0.756
3.838,0.805
3.839,0.85
3.84,0.903
3.841,0.959
3.842,0.997
3.843,1.028
3.844,1.036
3.845,1.028
3.846,1.003
3.847,0.969
3.848,0.918
3.849,0.847
3.85,0.776
3.851,0.709
3.852,0.644
3.853,0.578
3.854,0.522
3.855,0.469
3.856,0.42
3.857,0.366
3.858,0.303
3.859,0.241
3.86,0.181
3.861,0.119
3.862,0.063
3.863,0.013
3.864,-0.024
3.865,-0.053
3.866,-0.075
3.867,-0.087
3.868,-0.087
3.869,-0.087
3.87,-0.086
3.871,-0.094
3.872,-0.102
3.873,-0.116
3.874,-0.125
3.875,-0.131
3.876,-0.134
3.877,-0.131
3.878,-0.137
3.879,-0.144
3.88,-0.153
3.881,-0.159
3.882,-0.159
3.883,-0.159
3.884,-0.156
3.885,-0.156
3.886,-0.149
3.887,-0.141
3.888,-0.134
3.889,-0.131
3.89,-0.122
3.891,-0.112
3.892,-0.104
3.893,-0.103
3.894,-0.1
3.895,-0.094
3.896,-0.089
3.897,-0.087
3.898,-0.086
3.899,-0.087
3.9,-0.092
3.901,-0.1
3.902,-0.103
3.903,-0.106
3.904,-0.103
3.905,-0.106
3.906,-0.103
3.907,-0.1
3.908,-0.094
3.909,-0.091
3.91,-0.089
3.911,-0.087
3.912,-0.084
3.913,-0.084
3.914,-0.08
3.915,-0.075
3.916,-0.078
3.917,-0.081
3.918,-0.087
3.919,-0.094
3.92,-0.098
3.921,-0.103
3.922,-0.106
3.923,-0.103
3.924,-0.102
3.925,-0.097
3.926,-0.097
3.927,-0.097
3.928,-0.095
3.929,-0.094
3.93,-0.089
3.931,-0.084
3.932,-0.081
3.933,-0.075
3.934,-0.078
3.935,-0.078
3.936,-0.075
3.937,-0.081
3.938,-0.081
3.939,-0.081
3.94,-0.084
3.941,-0.087
3.942,-0.087
3.943,-0.087
3.944,-0.087
3.945,-0.084
3.946,-0.087
3.947,-0.087
3.948,-0.086
3.949,-0.087
3.95,-0.095
3.951,-0.1
3.952,-0.1
3.953,-0.1
3.954,-0.097
3.955,-0.087
3.956,-0.081
3.957,-0.075
3.958,-0.078
3.959,-0.078
3.96,-0.081
3.961,-0.081
3.962,-0.08
3.963,-0.078
3.964,-0.078
3.965,-0.078
3.966,-0.089
3.967,-0.097
3.968,-0.101
3.969,-0.106
3.97,-0.103
3.971,-0.1
3.972,-0.096
3.973,-0.091
3.974,-0.091
3.975,-0.087
3.976,-0.091
3.977,-0.094
3.978,-0.097
3.979,-0.097
3.98,-0.091
3.981,-0.087
3.982,-0.086
3.983,-0.081
3.984,-0.082
3.985,-0.087
3.986,-0.087
3.987,-0.091
3.988,-0.084
3.989,-0.084
3.99,-0.082
3.991,-0.084
3.992,-0.089
3.993,-0.094
3.994,-0.091
3.995,-0.091
3.996,-0.086
3.997,-0.084
3.998,-0.087
3.999,-0.087
4,-0.087
4.001,-0.087
4.002,-0.086
4.003,-0.081
4.004,-0.083
4.005,-0.081
4.006,-0.081
4.007,-0.078
4.008,-0.075
4.009,-0.075
4.01,-0.075
4.011,-0.078
4.012,-0.076
4.013,-0.078
4.014,-0.078
4.015,-0.078
4.016,-0.079
4.017,-0.084
4.018,-0.087
4.019,-0.084
4.02,-0.086
4.021,-0.084
4.022,-0.081
4.023,-0.078
4.024,-0.076
4.025,-0.075
4.026,-0.079
4.027,-0.081
4.028,-0.078
4.029,-0.075
4.03,-0.075
4.031,-0.069
4.032,-0.067
4.033,-0.069
4.034,-0.069
4.035,-0.069
4.036,-0.069
4.037,-0.069
4.038,-0.067
4.039,-0.069
4.04,-0.069
4.041,-0.072
4.042,-0.071
4.043,-0.069
4.044,-0.069
4.045,-0.069
4.046,-0.075
4.047,-0.078
4.048,-0.079
4.049,-0.081
4.05,-0.075
4.051,-0.069
4.052,-0.059
4.053,-0.053
4.054,-0.051
4.055,-0.053
4.056,-0.053
4.057,-0.056
4.058,-0.054
4.059,-0.056
4.06,-0.054
4.061,-0.059
4.062,-0.064
4.063,-0.066
4.064,-0.07
4.065,-0.069
4.066,-0.069
4.067,-0.069
4.068,-0.07
4.069,-0.072
4.07,-0.074
4.071,-0.072
4.072,-0.073
4.073,-0.072
4.074,-0.072
4.075,-0.072
4.076,-0.071
4.077,-0.066
4.078,-0.067
4.079,-0.066
4.08,-0.062
4.081,-0.056
4.082,-0.052
4.083,-0.05
4.084,-0.05
4.085,-0.05
4.086,-0.056
4.087,-0.059
4.088,-0.062
4.089,-0.066
4.09,-0.067
4.091,-0.072
4.092,-0.075
4.093,-0.081
4.094,-0.084
4.095,-0.081
4.096,-0.082
4.097,-0.081
4.098,-0.08
4.099,-0.081
4.1,-0.075
4.101,-0.072
4.102,-0.072
4.103,-0.072
4.104,-0.069
4.105,-0.066
4.106,-0.067
4.107,-0.066
4.108,-0.064
4.109,-0.062
4.11,-0.062
4.111,-0.059
4.112,-0.061
4.113,-0.062
4.114,-0.062
4.115,-0.062
4.116,-0.064
4.117,-0.069
4.118,-0.07
4.119,-0.072
4.12,-0.076
4.121,-0.075
4.122,-0.074
4.123,-0.072
4.124,-0.075
4.125,-0.075
4.126,-0.071
4.127,-0.072
4.128,-0.072
4.129,-0.072
4.13,-0.07
4.131,-0.069
4.132,-0.066
4.133,-0.062
4.134,-0.061
4.135,-0.062
4.136,-0.066
4.137,-0.066
4.138,-0.067
4.139,-0.069
4.14,-0.069
4.141,-0.069
4.142,-0.07
4.143,-0.072
4.144,-0.072
4.145,-0.072
4.146,-0.072
4.147,-0.069
4.148,-0.064
4.149,-0.056
4.15,-0.049
4.151,-0.044
4.152,-0.045
4.153,-0.047
4.154,-0.044
4.155,-0.044
4.156,-0.042
4.157,-0.041
4.158,-0.042
4.159,-0.041
4.16,-0.039
4.161,-0.037
4.162,-0.034
4.163,-0.037
4.164,-0.036
4.165,-0.037
4.166,-0.033
4.167,-0.031
4.168,-0.022
4.169,-0.016
4.17,-0.014
4.171,-0.009
4.172,-0.011
4.173,-0.009
4.174,-0.002
4.175,0.006
4.176,0.011
4.177,0.013
4.178,0.016
4.179,0.019
4.18,0.019
4.181,0.019
4.182,0.019
4.183,0.022
4.184,0.025
4.185,0.025
4.186,0.022
4.187,0.019
4.188,0.018
4.189,0.019
4.19,0.02
4.191,0.022
4.192,0.022
4.193,0.019
4.194,0.02
4.195,0.025
4.196,0.028
4.197,0.031
4.198,0.034
4.199,0.044
4.2,0.043
4.201,0.044
4.202,0.043
4.203,0.041
4.204,0.042
4.205,0.044
4.206,0.044
4.207,0.044
4.208,0.043
4.209,0.038
4.21,0.03
4.211,0.022
4.212,0.026
4.213,0.028
4.214,0.026
4.215,0.025
4.216,0.023
4.217,0.025
4.218,0.021
4.219,0.016
4.22,0.016
4.221,0.016
4.222,0.019
4.223,0.019
4.224,0.019
4.225,0.019
4.226,0.02
4.227,0.019
4.228,0.02
4.229,0.022
4.23,0.019
4.231,0.019
4.232,0.02
4.233,0.019
4.234,0.014
4.235,0.009
4.236,0.009
4.237,0.009
4.238,0.013
4.239,0.016
4.24,0.011
4.241,0.013
4.242,0.013
4.243,0.013
4.244,0.013
4.245,0.013
4.246,0.014
4.247,0.016
4.248,0.023
4.249,0.028
4.25,0.028
4.251,0.022
4.252,0.021
4.253,0.019
4.254,0.018
4.255,0.013
4.256,0.014
4.257,0.016
4.258,0.014
4.259,0.013
4.26,0.008
4.261,0.006
4.262,0.009
4.263,0.009
4.264,0.011
4.265,0.009
4.266,0.013
4.267,0.009
4.268,0.013
4.269,0.013
4.27,0.011
4.271,0.009
4.272,0.016
4.273,0.022
4.274,0.023
4.275,0.025
4.276,0.025
4.277,0.025
4.278,0.024
4.279,0.022
4.28,0.021
4.281,0.019
4.282,0.017
4.283,0.019
4.284,0.011
4.285,0.006
4.286,0.006
4.287,0.006
4.288,0.003
4.289,0.003
4.29,0.004
4.291,0.003
4.292,0.006
4.293,0.006
4.294,0.008
4.295,0.009
4.296,0.013
4.297,0.016
4.298,0.014
4.299,0.013
4.3,0.013
4.301,0.013
4.302,0.011
4.303,0.009
4.304,0.019
4.305,0.025
4.306,0.026
4.307,0.028
4.308,0.022
4.309,0.019
4.31,0.013
4.311,0.009
4.312,0.006
4.313,0.006
4.314,0.006
4.315,0.003
4.316,0.003
4.317,0.003
4.318,0.006
4.319,0.013
4.32,0.014
4.321,0.016
4.322,0.022
4.323,0.025
4.324,0.024
4.325,0.025
4.326,0.022
4.327,0.019
4.328,0.014
4.329,0.013
4.33,0.013
4.331,0.013
4.332,0.014
4.333,0.013
4.334,0.011
4.335,0.006
4.336,0.008
4.337,0.003
4.338,-0.001
4.339,-0.006
4.34,-0.006
4.341,-0.006
4.342,-0.003
4.343,0
4.344,0.001
4.345,0
4.346,0
4.347,0
4.348,0.003
4.349,0.003
4.35,0.003
4.351,0.003
4.352,0.003
4.353,0
4.354,0.003
4.355,0.003
4.356,0
4.357,0
4.358,-0.001
4.359,-0.006
4.36,-0.003
4.361,-0.006
4.362,-0.007
4.363,-0.009
4.364,-0.009
4.365,-0.013
4.366,-0.013
4.367,-0.019
4.368,-0.011
4.369,-0.009
4.37,-0.006
4.371,-0.003
4.372,-0.001
4.373,-0.003
4.374,-0.003
4.375,-0.003
4.376,-0.003
4.377,-0.006
4.378,-0.006
4.379,-0.006
4.38,-0.014
4.381,-0.019
4.382,-0.019
4.383,-0.016
4.384,-0.009
4.385,-0.006
4.386,-0.009
4.387,-0.006
4.388,-0.008
4.389,-0.009
4.39,-0.008
4.391,-0.009
4.392,-0.006
4.393,-0.006
4.394,0
4.395,0.006
4.396,0.011
4.397,0.013
4.398,0.006
4.399,0.006
4.4,0.003
4.401,0
4.402,0
4.403,0
4.404,-0.004
4.405,-0.009
4.406,-0.016
4.407,-0.016
4.408,-0.016
4.409,-0.019
4.41,-0.019
4.411,-0.022
4.412,-0.026
4.413,-0.028
4.414,-0.03
4.415,-0.028
4.416,-0.025
4.417,-0.019
4.418,-0.017
4.419,-0.013
4.42,-0.017
4.421,-0.019
4.422,-0.014
4.423,-0.019
4.424,-0.017
4.425,-0.016
4.426,-0.013
4.427,-0.016
4.428,-0.023
4.429,-0.025
4.43,-0.029
4.431,-0.031
4.432,-0.031
4.433,-0.034
4.434,-0.032
4.435,-0.041
4.436,-0.036
4.437,-0.034
4.438,-0.029
4.439,-0.031
4.44,-0.031
4.441,-0.025
4.442,-0.019
4.443,-0.013
4.444,-0.009
4.445,-0.009
4.446,-0.014
4.447,-0.016
4.448,-0.017
4.449,-0.016
4.45,-0.016
4.451,-0.009
4.452,-0.004
4.453,0
4.454,0.002
4.455,0
4.456,0
4.457,0
4.458,-0.001
4.459,0
4.46,0.006
4.461,0.013
4.462,0.019
4.463,0.025
4.464,0.034
4.465,0.044
4.466,0.05
4.467,0.056
4.468,0.054
4.469,0.056
4.47,0.053
4.471,0.056
4.472,0.056
4.473,0.059
4.474,0.058
4.475,0.056
4.476,0.058
4.477,0.059
4.478,0.061
4.479,0.066
4.48,0.068
4.481,0.069
4.482,0.068
4.483,0.069
4.484,0.072
4.485,0.075
4.486,0.079
4.487,0.078
4.488,0.075
4.489,0.081
4.49,0.088
4.491,0.097
4.492,0.106
4.493,0.116
4.494,0.12
4.495,0.122
4.496,0.12
4.497,0.119
4.498,0.119
4.499,0.119
4.5,0.12
4.501,0.119
4.502,0.111
4.503,0.103
4.504,0.101
4.505,0.1
4.506,0.096
4.507,0.091
4.508,0.084
4.509,0.081
4.51,0.072
4.511,0.072
4.512,0.061
4.513,0.053
4.514,0.047
4.515,0.047
4.516,0.041
4.517,0.034
4.518,0.028
4.519,0.019
4.52,0.019
4.521,0.019
4.522,0.02
4.523,0.025
4.524,0.027
4.525,0.025
4.526,0.019
4.527,0.016
4.528,0.013
4.529,0.006
4.53,-0.003
4.531,-0.006
4.532,-0.011
4.533,-0.013
4.534,-0.013
4.535,-0.013
4.536,-0.019
4.537,-0.025
4.538,-0.025
4.539,-0.025
4.54,-0.021
4.541,-0.019
4.542,-0.025
4.543,-0.028
4.544,-0.032
4.545,-0.034
4.546,-0.037
4.547,-0.044
4.548,-0.046
4.549,-0.044
4.55,-0.047
4.551,-0.047
4.552,-0.047
4.553,-0.05
4.554,-0.048
4.555,-0.05
4.556,-0.05
4.557,-0.05
4.558,-0.047
4.559,-0.044
4.56,-0.042
4.561,-0.044
4.562,-0.041
4.563,-0.037
4.564,-0.031
4.565,-0.031
4.566,-0.03
4.567,-0.028
4.568,-0.03
4.569,-0.031
4.57,-0.031
4.571,-0.034
4.572,-0.037
4.573,-0.041
4.574,-0.048
4.575,-0.059
4.576,-0.066
4.577,-0.075
4.578,-0.081
4.579,-0.087
4.58,-0.094
4.581,-0.097
4.582,-0.098
4.583,-0.094
4.584,-0.084
4.585,-0.075
4.586,-0.064
4.587,-0.047
4.588,-0.022
4.589,0.009
4.59,0.038
4.591,0.066
4.592,0.103
4.593,0.147
4.594,0.189
4.595,0.241
4.596,0.289
4.597,0.344
4.598,0.395
4.599,0.441
4.6,0.475
4.601,0.513
4.602,0.556
4.603,0.609
4.604,0.674
4.605,0.734
4.606,0.792
4.607,0.847
4.608,0.893
4.609,0.934
4.61,0.986
4.611,1.025
4.612,1.058
4.613,1.069
4.614,1.067
4.615,1.05
4.616,1.014
4.617,0.966
4.618,0.903
4.619,0.831
4.62,0.758
4.621,0.688
4.622,0.621
4.623,0.556
4.624,0.493
4.625,0.434
4.626,0.371
4.627,0.303
4.628,0.238
4.629,0.172
4.63,0.106
4.631,0.053
4.632,0.008
4.633,-0.028
4.634,-0.061
4.635,-0.078
4.636,-0.081
4.637,-0.075
4.638,-0.066
4.639,-0.059
4.64,-0.066
4.641,-0.072
4.642,-0.091
4.643,-0.106
4.644,-0.114
4.645,-0.119
4.646,-0.116
4.647,-0.119
4.648,-0.125
4.649,-0.131
4.65,-0.141
4.651,-0.144
4.652,-0.147
4.653,-0.144
4.654,-0.133
4.655,-0.122
4.656,-0.116
4.657,-0.109
4.658,-0.106
4.659,-0.1
4.66,-0.087
4.661,-0.072
4.662,-0.061
4.663,-0.053
4.664,-0.049
4.665,-0.047
4.666,-0.05
4.667,-0.05
4.668,-0.052
4.669,-0.05
4.67,-0.05
4.671,-0.05
4.672,-0.057
4.673,-0.059
4.674,-0.067
4.675,-0.072
4.676,-0.075
4.677,-0.075
4.678,-0.072
4.679,-0.066
4.68,-0.061
4.681,-0.056
4.682,-0.057
4.683,-0.059
4.684,-0.061
4.685,-0.062
4.686,-0.058
4.687,-0.056
4.688,-0.056
4.689,-0.056
4.69,-0.061
4.691,-0.066
4.692,-0.062
4.693,-0.062
4.694,-0.058
4.695,-0.056
4.696,-0.056
4.697,-0.053
4.698,-0.051
4.699,-0.053
4.7,-0.056
4.701,-0.059
4.702,-0.057
4.703,-0.059
4.704,-0.057
4.705,-0.056
4.706,-0.062
4.707,-0.059
4.708,-0.057
4.709,-0.062
4.71,-0.061
4.711,-0.056
4.712,-0.052
4.713,-0.05
4.714,-0.05
4.715,-0.053
4.716,-0.053
4.717,-0.05
4.718,-0.05
4.719,-0.053
4.72,-0.054
4.721,-0.056
4.722,-0.059
4.723,-0.062
4.724,-0.061
4.725,-0.066
4.726,-0.067
4.727,-0.069
4.728,-0.064
4.729,-0.062
4.73,-0.058
4.731,-0.056
4.732,-0.056
4.733,-0.056
4.734,-0.05
4.735,-0.047
4.736,-0.046
4.737,-0.047
4.738,-0.05
4.739,-0.05
4.74,-0.05
4.741,-0.05
4.742,-0.05
4.743,-0.05
4.744,-0.048
4.745,-0.05
4.746,-0.054
4.747,-0.062
4.748,-0.064
4.749,-0.062
4.75,-0.064
4.751,-0.066
4.752,-0.066
4.753,-0.066
4.754,-0.066
4.755,-0.066
4.756,-0.07
4.757,-0.069
4.758,-0.071
4.759,-0.066
4.76,-0.066
4.761,-0.066
4.762,-0.062
4.763,-0.059
4.764,-0.058
4.765,-0.053
4.766,-0.052
4.767,-0.05
4.768,-0.051
4.769,-0.053
4.77,-0.056
4.771,-0.059
4.772,-0.059
4.773,-0.066
4.774,-0.067
4.775,-0.069
4.776,-0.07
4.777,-0.069
4.778,-0.066
4.779,-0.066
4.78,-0.064
4.781,-0.056
4.782,-0.056
4.783,-0.056
4.784,-0.055
4.785,-0.053
4.786,-0.053
4.787,-0.053
4.788,-0.046
4.789,-0.044
4.79,-0.044
4.791,-0.044
4.792,-0.047
4.793,-0.047
4.794,-0.045
4.795,-0.05
4.796,-0.054
4.797,-0.059
4.798,-0.064
4.799,-0.072
4.8,-0.072
4.801,-0.072
4.802,-0.073
4.803,-0.075
4.804,-0.075
4.805,-0.075
4.806,-0.074
4.807,-0.069
4.808,-0.066
4.809,-0.062
4.81,-0.061
4.811,-0.056
4.812,-0.056
4.813,-0.056
4.814,-0.056
4.815,-0.059
4.816,-0.056
4.817,-0.053
4.818,-0.056
4.819,-0.056
4.82,-0.057
4.821,-0.059
4.822,-0.064
4.823,-0.066
4.824,-0.066
4.825,-0.066
4.826,-0.069
4.827,-0.066
4.828,-0.067
4.829,-0.066
4.83,-0.066
4.831,-0.062
4.832,-0.056
4.833,-0.056
4.834,-0.053
4.835,-0.056
4.836,-0.058
4.837,-0.056
4.838,-0.056
4.839,-0.059
4.84,-0.058
4.841,-0.056
4.842,-0.054
4.843,-0.056
4.844,-0.057
4.845,-0.059
4.846,-0.057
4.847,-0.062
4.848,-0.061
4.849,-0.059
4.85,-0.056
4.851,-0.053
4.852,-0.054
4.853,-0.056
4.854,-0.057
4.855,-0.062
4.856,-0.059
4.857,-0.056
4.858,-0.055
4.859,-0.053
4.86,-0.056
4.861,-0.056
4.862,-0.058
4.863,-0.059
4.864,-0.055
4.865,-0.053
4.866,-0.05
4.867,-0.05
4.868,-0.056
4.869,-0.056
4.87,-0.061
4.871,-0.066
4.872,-0.067
4.873,-0.069
4.874,-0.069
4.875,-0.069
4.876,-0.067
4.877,-0.069
4.878,-0.069
4.879,-0.072
4.88,-0.072
4.881,-0.072
4.882,-0.069
4.883,-0.066
4.884,-0.064
4.885,-0.062
4.886,-0.066
4.887,-0.066
4.888,-0.064
4.889,-0.066
4.89,-0.064
4.891,-0.066
4.892,-0.067
4.893,-0.072
4.894,-0.072
4.895,-0.069
4.896,-0.072
4.897,-0.072
4.898,-0.075
4.899,-0.075
4.9,-0.073
4.901,-0.075
4.902,-0.075
4.903,-0.072
4.904,-0.071
4.905,-0.072
4.906,-0.073
4.907,-0.075
4.908,-0.074
4.909,-0.072
4.91,-0.069
4.911,-0.066
4.912,-0.061
4.913,-0.056
4.914,-0.055
4.915,-0.053
4.916,-0.051
4.917,-0.053
4.918,-0.056
4.919,-0.059
4.92,-0.061
4.921,-0.059
4.922,-0.056
4.923,-0.053
4.924,-0.056
4.925,-0.056
4.926,-0.053
4.927,-0.053
4.928,-0.05
4.929,-0.05
4.93,-0.047
4.931,-0.037
4.932,-0.036
4.933,-0.031
4.934,-0.031
4.935,-0.028
4.936,-0.029
4.937,-0.028
4.938,-0.024
4.939,-0.016
4.94,-0.009
4.941,-0.009
4.942,-0.009
4.943,-0.013
4.944,-0.016
4.945,-0.013
4.946,-0.011
4.947,-0.009
4.948,-0.005
4.949,0
4.95,0.003
4.951,0.003
4.952,0.006
4.953,0.009
4.954,0.017
4.955,0.025
4.956,0.025
4.957,0.025
4.958,0.029
4.959,0.028
4.96,0.025
4.961,0.028
4.962,0.028
4.963,0.028
4.964,0.028
4.965,0.028
4.966,0.028
4.967,0.022
4.968,0.024
4.969,0.022
4.97,0.021
4.971,0.016
4.972,0.013
4.973,0.009
4.974,0.013
4.975,0.016
4.976,0.016
4.977,0.016
4.978,0.017
4.979,0.022
4.98,0.023
4.981,0.025
4.982,0.023
4.983,0.022
4.984,0.022
4.985,0.022
4.986,0.022
4.987,0.022
4.988,0.021
4.989,0.016
4.99,0.009
4.991,0.009
4.992,0.006
4.993,0.006
4.994,0.011
4.995,0.013
4.996,0.008
4.997,0.006
4.998,0.008
4.999,0.006
5,0.008
5.001,0.009
5.002,0.011
5.003,0.016
5.004,0.017
5.005,0.019
5.006,0.019
5.007,0.019
5.008,0.022
5.009,0.019
5.01,0.019
5.011,0.019
5.012,0.019
5.013,0.019
5.014,0.016
5.015,0.013
5.016,0.003
5.017,-0.003
5.018,-0.006
5.019,-0.009
5.02,-0.016
5.021,-0.016
5.022,-0.017
5.023,-0.016
5.024,-0.016
5.025,-0.013
5.026,-0.003
5.027,0.003
5.028,0.008
5.029,0.009
5.03,0.009
5.031,0.009
5.032,0.008
5.033,0.009
5.034,0.006
5.035,0.009
5.036,0.008
5.037,0.013
5.038,0.013
5.039,0.013
5.04,0.008
5.041,0.006
5.042,0.008
5.043,0.006
5.044,0.002
5.045,-0.003
5.046,-0.002
5.047,0
5.048,0
5.049,0
5.05,0.001
5.051,0
5.052,0.006
5.053,0.009
5.054,0.006
5.055,0.003
5.056,0.004
5.057,0.003
5.058,0.003
5.059,0.003
5.06,-0.001
5.061,0
5.062,-0.001
5.063,-0.003
5.064,-0.004
5.065,-0.006
5.066,-0.006
5.067,-0.006
5.068,-0.007
5.069,-0.006
5.07,0
5.071,0
5.072,-0.004
5.073,-0.003
5.074,-0.003
5.075,-0.003
5.076,0
5.077,0
5.078,0.004
5.079,0.006
5.08,0.008
5.081,0.006
5.082,0.005
5.083,0.003
5.084,0.001
5.085,0.003
5.086,-0.001
5.087,-0.006
5.088,-0.007
5.089,-0.013
5.09,-0.014
5.091,-0.013
5.092,-0.014
5.093,-0.016
5.094,-0.011
5.095,-0.009
5.096,-0.008
5.097,-0.009
5.098,-0.009
5.099,-0.009
5.1,-0.006
5.101,-0.003
5.102,-0.002
5.103,0
5.104,-0.005
5.105,0
5.106,-0.003
5.107,-0.003
5.108,-0.002
5.109,0
5.11,0
5.111,0
5.112,-0.007
5.113,-0.016
5.114,-0.022
5.115,-0.025
5.116,-0.026
5.117,-0.025
5.118,-0.024
5.119,-0.022
5.12,-0.021
5.121,-0.019
5.122,-0.025
5.123,-0.025
5.124,-0.021
5.125,-0.019
5.126,-0.017
5.127,-0.016
5.128,-0.017
5.129,-0.016
5.13,-0.021
5.131,-0.019
5.132,-0.02
5.133,-0.022
5.134,-0.025
5.135,-0.022
5.136,-0.025
5.137,-0.022
5.138,-0.026
5.139,-0.028
5.14,-0.029
5.141,-0.028
5.142,-0.029
5.143,-0.031
5.144,-0.029
5.145,-0.028
5.146,-0.034
5.147,-0.041
5.148,-0.044
5.149,-0.044
5.15,-0.036
5.151,-0.025
5.152,-0.021
5.153,-0.019
5.154,-0.017
5.155,-0.022
5.156,-0.023
5.157,-0.025
5.158,-0.028
5.159,-0.028
5.16,-0.029
5.161,-0.028
5.162,-0.03
5.163,-0.031
5.164,-0.033
5.165,-0.031
5.166,-0.031
5.167,-0.034
5.168,-0.034
5.169,-0.034
5.17,-0.034
5.171,-0.034
5.172,-0.036
5.173,-0.037
5.174,-0.03
5.175,-0.031
5.176,-0.034
5.177,-0.034
5.178,-0.039
5.179,-0.037
5.18,-0.036
5.181,-0.034
5.182,-0.031
5.183,-0.028
5.184,-0.03
5.185,-0.034
5.186,-0.039
5.187,-0.044
5.188,-0.045
5.189,-0.047
5.19,-0.048
5.191,-0.05
5.192,-0.05
5.193,-0.053
5.194,-0.053
5.195,-0.053
5.196,-0.053
5.197,-0.053
5.198,-0.05
5.199,-0.044
5.2,-0.037
5.201,-0.037
5.202,-0.037
5.203,-0.037
5.204,-0.034
5.205,-0.037
5.206,-0.036
5.207,-0.037
5.208,-0.039
5.209,-0.037
5.21,-0.047
5.211,-0.05
5.212,-0.05
5.213,-0.047
5.214,-0.05
5.215,-0.053
5.216,-0.049
5.217,-0.05
5.218,-0.051
5.219,-0.05
5.22,-0.05
5.221,-0.044
5.222,-0.042
5.223,-0.037
5.224,-0.044
5.225,-0.041
5.226,-0.039
5.227,-0.041
5.228,-0.037
5.229,-0.037
5.23,-0.036
5.231,-0.034
5.232,-0.039
5.233,-0.044
5.234,-0.045
5.235,-0.047
5.236,-0.045
5.237,-0.047
5.238,-0.041
5.239,-0.034
5.24,-0.031
5.241,-0.031
5.242,-0.032
5.243,-0.031
5.244,-0.031
5.245,-0.031
5.246,-0.021
5.247,-0.009
5.248,-0.002
5.249,0.006
5.25,0.016
5.251,0.025
5.252,0.031
5.253,0.031
5.254,0.033
5.255,0.031
5.256,0.033
5.257,0.031
5.258,0.031
5.259,0.025
5.26,0.021
5.261,0.016
5.262,0.017
5.263,0.022
5.264,0.025
5.265,0.028
5.266,0.031
5.267,0.031
5.268,0.036
5.269,0.041
5.27,0.046
5.271,0.047
5.272,0.053
5.273,0.059
5.274,0.053
5.275,0.05
5.276,0.056
5.277,0.056
5.278,0.066
5.279,0.072
5.28,0.078
5.281,0.084
5.282,0.086
5.283,0.084
5.284,0.081
5.285,0.081
5.286,0.08
5.287,0.075
5.288,0.066
5.289,0.059
5.29,0.057
5.291,0.056
5.292,0.053
5.293,0.05
5.294,0.048
5.295,0.047
5.296,0.048
5.297,0.041
5.298,0.044
5.299,0.038
5.3,0.034
5.301,0.028
5.302,0.026
5.303,0.022
5.304,0.016
5.305,0.013
5.306,0.006
5.307,0
5.308,-0.009
5.309,-0.016
5.31,-0.02
5.311,-0.022
5.312,-0.022
5.313,-0.025
5.314,-0.025
5.315,-0.025
5.316,-0.027
5.317,-0.031
5.318,-0.034
5.319,-0.041
5.32,-0.039
5.321,-0.037
5.322,-0.031
5.323,-0.028
5.324,-0.028
5.325,-0.028
5.326,-0.036
5.327,-0.044
5.328,-0.05
5.329,-0.056
5.33,-0.061
5.331,-0.066
5.332,-0.069
5.333,-0.072
5.334,-0.074
5.335,-0.075
5.336,-0.075
5.337,-0.075
5.338,-0.075
5.339,-0.075
5.34,-0.076
5.341,-0.075
5.342,-0.076
5.343,-0.078
5.344,-0.074
5.345,-0.069
5.346,-0.062
5.347,-0.056
5.348,-0.058
5.349,-0.056
5.35,-0.061
5.351,-0.062
5.352,-0.067
5.353,-0.069
5.354,-0.066
5.355,-0.066
5.356,-0.067
5.357,-0.066
5.358,-0.07
5.359,-0.075
5.36,-0.079
5.361,-0.084
5.362,-0.091
5.363,-0.097
5.364,-0.109
5.365,-0.119
5.366,-0.122
5.367,-0.122
5.368,-0.116
5.369,-0.106
5.37,-0.094
5.371,-0.081
5.372,-0.071
5.373,-0.056
5.374,-0.037
5.375,-0.019
5.376,0.006
5.377,0.034
5.378,0.061
5.379,0.091
5.38,0.127
5.381,0.163
5.382,0.216
5.383,0.269
5.384,0.321
5.385,0.369
5.386,0.411
5.387,0.45
5.388,0.497
5.389,0.55
5.39,0.609
5.391,0.675
5.392,0.741
5.393,0.8
5.394,0.858
5.395,0.913
5.396,0.958
5.397,1.006
5.398,1.034
5.399,1.056
5.4,1.061
5.401,1.05
5.402,1.025
5.403,0.991
5.404,0.938
5.405,0.866
5.406,0.789
5.407,0.716
5.408,0.649
5.409,0.581
5.41,0.519
5.411,0.459
5.412,0.406
5.413,0.347
5.414,0.28
5.415,0.213
5.416,0.156
5.417,0.097
5.418,0.05
5.419,0.009
5.42,-0.019
5.421,-0.041
5.422,-0.052
5.423,-0.053
5.424,-0.051
5.425,-0.05
5.426,-0.056
5.427,-0.072
5.428,-0.081
5.429,-0.097
5.43,-0.106
5.431,-0.112
5.432,-0.122
5.433,-0.125
5.434,-0.128
5.435,-0.131
5.436,-0.136
5.437,-0.137
5.438,-0.134
5.439,-0.131
5.44,-0.119
5.441,-0.109
5.442,-0.103
5.443,-0.097
5.444,-0.092
5.445,-0.091
5.446,-0.084
5.447,-0.078
5.448,-0.07
5.449,-0.069
5.45,-0.07
5.451,-0.069
5.452,-0.072
5.453,-0.078
5.454,-0.079
5.455,-0.084
5.456,-0.087
5.457,-0.094
5.458,-0.096
5.459,-0.097
5.46,-0.092
5.461,-0.094
5.462,-0.094
5.463,-0.094
5.464,-0.089
5.465,-0.087
5.466,-0.081
5.467,-0.075
5.468,-0.072
5.469,-0.072
5.47,-0.072
5.471,-0.072
5.472,-0.071
5.473,-0.069
5.474,-0.071
5.475,-0.072
5.476,-0.072
5.477,-0.072
5.478,-0.078
5.479,-0.078
5.48,-0.082
5.481,-0.084
5.482,-0.086
5.483,-0.087
5.484,-0.084
5.485,-0.081
5.486,-0.081
5.487,-0.081
5.488,-0.082
5.489,-0.081
5.49,-0.078
5.491,-0.072
5.492,-0.067
5.493,-0.072
5.494,-0.069
5.495,-0.066
5.496,-0.066
5.497,-0.066
5.498,-0.066
5.499,-0.066
5.5,-0.067
5.501,-0.066
5.502,-0.072
5.503,-0.075
5.504,-0.078
5.505,-0.084
5.506,-0.086
5.507,-0.084
5.508,-0.081
5.509,-0.078
5.51,-0.081
5.511,-0.078
5.512,-0.079
5.513,-0.081
5.514,-0.078
5.515,-0.072
5.516,-0.071
5.517,-0.066
5.518,-0.066
5.519,-0.066
5.52,-0.066
5.521,-0.066
5.522,-0.069
5.523,-0.069
5.524,-0.069
5.525,-0.069
5.526,-0.07
5.527,-0.072
5.528,-0.075
5.529,-0.078
5.53,-0.079
5.531,-0.078
5.532,-0.077
5.533,-0.075
5.534,-0.077
5.535,-0.075
5.536,-0.075
5.537,-0.078
5.538,-0.078
5.539,-0.075
5.54,-0.067
5.541,-0.062
5.542,-0.059
5.543,-0.059
5.544,-0.059
5.545,-0.066
5.546,-0.061
5.547,-0.059
5.548,-0.061
5.549,-0.062
5.55,-0.066
5.551,-0.072
5.552,-0.073
5.553,-0.078
5.554,-0.081
5.555,-0.081
5.556,-0.08
5.557,-0.078
5.558,-0.074
5.559,-0.066
5.56,-0.067
5.561,-0.066
5.562,-0.064
5.563,-0.059
5.564,-0.056
5.565,-0.056
5.566,-0.056
5.567,-0.059
5.568,-0.057
5.569,-0.059
5.57,-0.059
5.571,-0.059
5.572,-0.058
5.573,-0.059
5.574,-0.064
5.575,-0.062
5.576,-0.069
5.577,-0.072
5.578,-0.072
5.579,-0.072
5.58,-0.067
5.581,-0.062
5.582,-0.066
5.583,-0.066
5.584,-0.066
5.585,-0.066
5.586,-0.067
5.587,-0.062
5.588,-0.058
5.589,-0.056
5.59,-0.055
5.591,-0.053
5.592,-0.053
5.593,-0.053
5.594,-0.05
5.595,-0.05
5.596,-0.049
5.597,-0.05
5.598,-0.05
5.599,-0.05
5.6,-0.051
5.601,-0.053
5.602,-0.057
5.603,-0.059
5.604,-0.061
5.605,-0.062
5.606,-0.061
5.607,-0.059
5.608,-0.057
5.609,-0.059
5.61,-0.061
5.611,-0.066
5.612,-0.059
5.613,-0.056
5.614,-0.053
5.615,-0.053
5.616,-0.049
5.617,-0.05
5.618,-0.051
5.619,-0.05
5.62,-0.052
5.621,-0.047
5.622,-0.044
5.623,-0.041
5.624,-0.042
5.625,-0.044
5.626,-0.048
5.627,-0.05
5.628,-0.051
5.629,-0.05
5.63,-0.05
5.631,-0.05
5.632,-0.051
5.633,-0.05
5.634,-0.053
5.635,-0.053
5.636,-0.053
5.637,-0.05
5.638,-0.047
5.639,-0.047
5.64,-0.047
5.641,-0.047
5.642,-0.049
5.643,-0.047
5.644,-0.047
5.645,-0.047
5.646,-0.044
5.647,-0.044
5.648,-0.042
5.649,-0.044
5.65,-0.05
5.651,-0.05
5.652,-0.049
5.653,-0.044
5.654,-0.045
5.655,-0.05
5.656,-0.048
5.657,-0.05
5.658,-0.047
5.659,-0.044
5.66,-0.044
5.661,-0.044
5.662,-0.045
5.663,-0.044
5.664,-0.041
5.665,-0.037
5.666,-0.037
5.667,-0.034
5.668,-0.034
5.669,-0.034
5.67,-0.034
5.671,-0.034
5.672,-0.036
5.673,-0.041
5.674,-0.045
5.675,-0.05
5.676,-0.053
5.677,-0.05
5.678,-0.049
5.679,-0.047
5.68,-0.05
5.681,-0.05
5.682,-0.047
5.683,-0.05
5.684,-0.05
5.685,-0.05
5.686,-0.048
5.687,-0.047
5.688,-0.044
5.689,-0.041
5.69,-0.037
5.691,-0.037
5.692,-0.041
5.693,-0.041
5.694,-0.041
5.695,-0.041
5.696,-0.039
5.697,-0.037
5.698,-0.039
5.699,-0.041
5.7,-0.044
5.701,-0.047
5.702,-0.048
5.703,-0.047
5.704,-0.046
5.705,-0.041
5.706,-0.039
5.707,-0.041
5.708,-0.041
5.709,-0.041
5.71,-0.031
5.711,-0.025
5.712,-0.022
5.713,-0.019
5.714,-0.019
5.715,-0.016
5.716,-0.013
5.717,-0.009
5.718,-0.002
5.719,0
5.72,0.002
5.721,0
5.722,0.002
5.723,0
5.724,0.002
5.725,0
5.726,0
5.727,0.003
5.728,0.002
5.729,0.003
5.73,0.009
5.731,0.016
5.732,0.016
5.733,0.013
5.734,0.017
5.735,0.022
5.736,0.025
5.737,0.028
5.738,0.028
5.739,0.031
5.74,0.033
5.741,0.031
5.742,0.034
5.743,0.038
5.744,0.039
5.745,0.044
5.746,0.038
5.747,0.031
5.748,0.033
5.749,0.031
5.75,0.028
5.751,0.028
5.752,0.033
5.753,0.038
5.754,0.033
5.755,0.034
5.756,0.036
5.757,0.041
5.758,0.048
5.759,0.056
5.76,0.056
5.761,0.056
5.762,0.056
5.763,0.056
5.764,0.056
5.765,0.053
5.766,0.05
5.767,0.047
5.768,0.048
5.769,0.047
5.77,0.043
5.771,0.038
5.772,0.033
5.773,0.031
5.774,0.031
5.775,0.031
5.776,0.028
5.777,0.025
5.778,0.027
5.779,0.025
5.78,0.027
5.781,0.028
5.782,0.036
5.783,0.041
5.784,0.041
5.785,0.041
5.786,0.038
5.787,0.038
5.788,0.041
5.789,0.041
5.79,0.039
5.791,0.038
5.792,0.036
5.793,0.034
5.794,0.03
5.795,0.025
5.796,0.02
5.797,0.022
5.798,0.019
5.799,0.016
5.8,0.016
5.801,0.016
5.802,0.013
5.803,0.009
5.804,0.011
5.805,0.009
5.806,0.016
5.807,0.016
5.808,0.017
5.809,0.019
5.81,0.021
5.811,0.019
5.812,0.022
5.813,0.025
5.814,0.026
5.815,0.028
5.816,0.025
5.817,0.025
5.818,0.026
5.819,0.025
5.82,0.021
5.821,0.013
5.822,0.016
5.823,0.013
5.824,0.016
5.825,0.016
5.826,0.019
5.827,0.022
5.828,0.022
5.829,0.022
5.83,0.025
5.831,0.028
5.832,0.028
5.833,0.028
5.834,0.027
5.835,0.025
5.836,0.025
5.837,0.025
5.838,0.025
5.839,0.028
5.84,0.025
5.841,0.025
5.842,0.024
5.843,0.022
5.844,0.014
5.845,0.009
5.846,0.009
5.847,0.006
5.848,0.009
5.849,0.009
5.85,0.009
5.851,0.009
5.852,0.009
5.853,0.009
5.854,0.009
5.855,0.009
5.856,0.013
5.857,0.016
5.858,0.019
5.859,0.022
5.86,0.025
5.861,0.025
5.862,0.025
5.863,0.025
5.864,0.019
5.865,0.016
5.866,0.014
5.867,0.016
5.868,0.011
5.869,0.009
5.87,0.009
5.871,0.006
5.872,0.006
5.873,0.006
5.874,0.005
5.875,0.006
5.876,0.006
5.877,0.006
5.878,0.008
5.879,0.006
5.88,0.006
5.881,0.009
5.882,0.013
5.883,0.016
5.884,0.013
5.885,0.013
5.886,0.013
5.887,0.013
5.888,0.014
5.889,0.013
5.89,0.011
5.891,0.006
5.892,0.008
5.893,0.003
5.894,-0.001
5.895,-0.006
5.896,-0.003
5.897,0
5.898,0
5.899,0
5.9,0
5.901,-0.003
5.902,-0.003
5.903,-0.003
5.904,0.001
5.905,0.003
5.906,0.003
5.907,0.003
5.908,0.006
5.909,0.006
5.91,0.009
5.911,0.009
5.912,0.006
5.913,0.006
5.914,0.005
5.915,0
5.916,0
5.917,-0.006
5.918,-0.007
5.919,-0.009
5.92,-0.014
5.921,-0.022
5.922,-0.019
5.923,-0.022
5.924,-0.02
5.925,-0.025
5.926,-0.026
5.927,-0.028
5.928,-0.024
5.929,-0.022
5.93,-0.016
5.931,-0.006
5.932,0
5.933,0
5.934,-0.002
5.935,-0.003
5.936,-0.003
5.937,-0.003
5.938,0
5.939,0
5.94,-0.002
5.941,0
5.942,-0.009
5.943,-0.013
5.944,-0.014
5.945,-0.016
5.946,-0.013
5.947,-0.013
5.948,-0.011
5.949,-0.013
5.95,-0.014
5.951,-0.016
5.952,-0.023
5.953,-0.028
5.954,-0.031
5.955,-0.031
5.956,-0.027
5.957,-0.025
5.958,-0.024
5.959,-0.016
5.96,-0.017
5.961,-0.019
5.962,-0.016
5.963,-0.016
5.964,-0.014
5.965,-0.016
5.966,-0.017
5.967,-0.019
5.968,-0.02
5.969,-0.025
5.97,-0.03
5.971,-0.028
5.972,-0.029
5.973,-0.031
5.974,-0.031
5.975,-0.031
5.976,-0.03
5.977,-0.028
5.978,-0.028
5.979,-0.022
5.98,-0.013
5.981,-0.006
5.982,-0.007
5.983,-0.013
5.984,-0.017
5.985,-0.019
5.986,-0.023
5.987,-0.025
5.988,-0.026
5.989,-0.025
5.99,-0.029
5.991,-0.031
5.992,-0.036
5.993,-0.037
5.994,-0.033
5.995,-0.037
5.996,-0.037
5.997,-0.037
5.998,-0.033
5.999,-0.034
6,-0.037
6.001,-0.034
6.002,-0.037
6.003,-0.037
6.004,-0.034
6.005,-0.034
6.006,-0.028
6.007,-0.031
6.008,-0.031
6.009,-0.034
6.01,-0.028
6.011,-0.028
6.012,-0.03
6.013,-0.025
6.014,-0.028
6.015,-0.031
6.016,-0.03
6.017,-0.031
6.018,-0.034
6.019,-0.034
6.02,-0.039
6.021,-0.041
6.022,-0.041
6.023,-0.034
6.024,-0.025
6.025,-0.016
6.026,-0.009
6.027,-0.006
6.028,-0.003
6.029,0
6.03,0.004
6.031,0.013
6.032,0.018
6.033,0.022
6.034,0.028
6.035,0.034
6.036,0.041
6.037,0.047
6.038,0.043
6.039,0.038
6.04,0.033
6.041,0.031
6.042,0.028
6.043,0.031
6.044,0.034
6.045,0.041
6.046,0.039
6.047,0.038
6.048,0.041
6.049,0.044
6.05,0.051
6.051,0.063
6.052,0.069
6.053,0.075
6.054,0.074
6.055,0.075
6.056,0.075
6.057,0.075
6.058,0.077
6.059,0.072
6.06,0.069
6.061,0.075
6.062,0.077
6.063,0.081
6.064,0.086
6.065,0.091
6.066,0.097
6.067,0.1
6.068,0.098
6.069,0.097
6.07,0.094
6.071,0.091
6.072,0.089
6.073,0.084
6.074,0.084
6.075,0.084
6.076,0.081
6.077,0.078
6.078,0.075
6.079,0.072
6.08,0.069
6.081,0.069
6.082,0.064
6.083,0.069
6.084,0.058
6.085,0.05
6.086,0.034
6.087,0.025
6.088,0.018
6.089,0.009
6.09,0.009
6.091,0.006
6.092,0
6.093,-0.006
6.094,-0.009
6.095,-0.009
6.096,-0.007
6.097,-0.009
6.098,-0.011
6.099,-0.009
6.1,-0.003
6.101,0
6.102,-0.007
6.103,-0.009
6.104,-0.013
6.105,-0.013
6.106,-0.013
6.107,-0.013
6.108,-0.016
6.109,-0.019
6.11,-0.025
6.111,-0.031
6.112,-0.039
6.113,-0.05
6.114,-0.053
6.115,-0.053
6.116,-0.061
6.117,-0.066
6.118,-0.064
6.119,-0.066
6.12,-0.07
6.121,-0.072
6.122,-0.073
6.123,-0.072
6.124,-0.062
6.125,-0.056
6.126,-0.054
6.127,-0.056
6.128,-0.056
6.129,-0.056
6.13,-0.059
6.131,-0.062
6.132,-0.059
6.133,-0.059
6.134,-0.058
6.135,-0.056
6.136,-0.057
6.137,-0.066
6.138,-0.066
6.139,-0.066
6.14,-0.066
6.141,-0.066
6.142,-0.064
6.143,-0.066
6.144,-0.072
6.145,-0.078
6.146,-0.082
6.147,-0.091
6.148,-0.092
6.149,-0.097
6.15,-0.102
6.151,-0.106
6.152,-0.111
6.153,-0.112
6.154,-0.111
6.155,-0.103
6.156,-0.091
6.157,-0.078
6.158,-0.067
6.159,-0.05
6.16,-0.032
6.161,-0.009
6.162,0.016
6.163,0.041
6.164,0.071
6.165,0.106
6.166,0.148
6.167,0.2
6.168,0.247
6.169,0.3
6.17,0.349
6.171,0.391
6.172,0.433
6.173,0.478
6.174,0.533
6.175,0.597
6.176,0.664
6.177,0.728
6.178,0.783
6.179,0.834
6.18,0.886
6.181,0.934
6.182,0.986
6.183,1.025
6.184,1.049
6.185,1.05
6.186,1.044
6.187,1.022
6.188,0.991
6.189,0.947
6.19,0.894
6.191,0.831
6.192,0.759
6.193,0.691
6.194,0.626
6.195,0.566
6.196,0.505
6.197,0.45
6.198,0.394
6.199,0.334
6.2,0.273
6.201,0.213
6.202,0.144
6.203,0.088
6.204,0.042
6.205,0.006
6.206,-0.021
6.207,-0.031
6.208,-0.039
6.209,-0.037
6.21,-0.041
6.211,-0.047
6.212,-0.059
6.213,-0.072
6.214,-0.084
6.215,-0.094
6.216,-0.103
6.217,-0.109
6.218,-0.109
6.219,-0.116
6.22,-0.121
6.221,-0.125
6.222,-0.125
6.223,-0.119
6.224,-0.119
6.225,-0.112
6.226,-0.106
6.227,-0.1
6.228,-0.095
6.229,-0.091
6.23,-0.091
6.231,-0.087
6.232,-0.084
6.233,-0.078
6.234,-0.076
6.235,-0.078
6.236,-0.079
6.237,-0.084
6.238,-0.086
6.239,-0.084
6.24,-0.086
6.241,-0.084
6.242,-0.089
6.243,-0.094
6.244,-0.094
6.245,-0.087
6.246,-0.087
6.247,-0.084
6.248,-0.087
6.249,-0.087
6.25,-0.086
6.251,-0.081
6.252,-0.079
6.253,-0.078
6.254,-0.077
6.255,-0.075
6.256,-0.076
6.257,-0.078
6.258,-0.081
6.259,-0.087
6.26,-0.094
6.261,-0.1
6.262,-0.102
6.263,-0.103
6.264,-0.103
6.265,-0.106
6.266,-0.103
6.267,-0.103
6.268,-0.102
6.269,-0.097
6.27,-0.091
6.271,-0.087
6.272,-0.087
6.273,-0.087
6.274,-0.081
6.275,-0.078
6.276,-0.076
6.277,-0.075
6.278,-0.08
6.279,-0.075
6.28,-0.072
6.281,-0.075
6.282,-0.079
6.283,-0.081
6.284,-0.086
6.285,-0.094
6.286,-0.097
6.287,-0.103
6.288,-0.1
6.289,-0.094
6.29,-0.089
6.291,-0.087
6.292,-0.089
6.293,-0.091
6.294,-0.087
6.295,-0.084
6.296,-0.077
6.297,-0.075
6.298,-0.072
6.299,-0.069
6.3,-0.069
6.301,-0.072
6.302,-0.073
6.303,-0.078
6.304,-0.078
6.305,-0.078
6.306,-0.078
6.307,-0.081
6.308,-0.082
6.309,-0.087
6.31,-0.091
6.311,-0.091
6.312,-0.091
6.313,-0.091
6.314,-0.091
6.315,-0.091
6.316,-0.087
6.317,-0.087
6.318,-0.086
6.319,-0.087
6.32,-0.087
6.321,-0.084
6.322,-0.086
6.323,-0.087
6.324,-0.087
6.325,-0.087
6.326,-0.087
6.327,-0.087
6.328,-0.086
6.329,-0.078
6.33,-0.082
6.331,-0.081
6.332,-0.084
6.333,-0.087
6.334,-0.091
6.335,-0.094
6.336,-0.096
6.337,-0.094
6.338,-0.096
6.339,-0.097
6.34,-0.098
6.341,-0.1
6.342,-0.096
6.343,-0.091
6.344,-0.08
6.345,-0.075
6.346,-0.069
6.347,-0.062
6.348,-0.066
6.349,-0.066
6.35,-0.067
6.351,-0.072
6.352,-0.076
6.353,-0.075
6.354,-0.075
6.355,-0.075
6.356,-0.075
6.357,-0.075
6.358,-0.078
6.359,-0.081
6.36,-0.081
6.361,-0.087
6.362,-0.087
6.363,-0.087
6.364,-0.086
6.365,-0.081
6.366,-0.075
6.367,-0.075
6.368,-0.072
6.369,-0.069
6.37,-0.069
6.371,-0.072
6.372,-0.072
6.373,-0.072
6.374,-0.072
6.375,-0.072
6.376,-0.072
6.377,-0.072
6.378,-0.073
6.379,-0.072
6.38,-0.078
6.381,-0.084
6.382,-0.087
6.383,-0.087
6.384,-0.089
6.385,-0.091
6.386,-0.091
6.387,-0.094
6.388,-0.091
6.389,-0.087
6.39,-0.086
6.391,-0.081
6.392,-0.072
6.393,-0.062
6.394,-0.061
6.395,-0.056
6.396,-0.056
6.397,-0.056
6.398,-0.059
6.399,-0.056
6.4,-0.056
6.401,-0.053
6.402,-0.056
6.403,-0.056
6.404,-0.061
6.405,-0.072
6.406,-0.067
6.407,-0.069
6.408,-0.072
6.409,-0.072
6.41,-0.071
6.411,-0.072
6.412,-0.072
6.413,-0.072
6.414,-0.067
6.415,-0.066
6.416,-0.062
6.417,-0.059
6.418,-0.053
6.419,-0.053
6.42,-0.056
6.421,-0.059
6.422,-0.061
6.423,-0.062
6.424,-0.061
6.425,-0.059
6.426,-0.056
6.427,-0.056
6.428,-0.057
6.429,-0.059
6.43,-0.062
6.431,-0.066
6.432,-0.067
6.433,-0.066
6.434,-0.067
6.435,-0.069
6.436,-0.069
6.437,-0.072
6.438,-0.067
6.439,-0.066
6.44,-0.062
6.441,-0.053
6.442,-0.053
6.443,-0.053
6.444,-0.056
6.445,-0.059
6.446,-0.059
6.447,-0.059
6.448,-0.056
6.449,-0.056
6.45,-0.056
6.451,-0.059
6.452,-0.066
6.453,-0.072
6.454,-0.073
6.455,-0.075
6.456,-0.074
6.457,-0.072
6.458,-0.074
6.459,-0.072
6.46,-0.069
6.461,-0.069
6.462,-0.067
6.463,-0.069
6.464,-0.066
6.465,-0.066
6.466,-0.062
6.467,-0.056
6.468,-0.056
6.469,-0.053
6.47,-0.054
6.471,-0.053
6.472,-0.051
6.473,-0.053
6.474,-0.054
6.475,-0.053
6.476,-0.052
6.477,-0.053
6.478,-0.056
6.479,-0.059
6.48,-0.059
6.481,-0.059
6.482,-0.061
6.483,-0.062
6.484,-0.064
6.485,-0.066
6.486,-0.066
6.487,-0.066
6.488,-0.061
6.489,-0.059
6.49,-0.052
6.491,-0.044
6.492,-0.044
6.493,-0.041
6.494,-0.041
6.495,-0.041
6.496,-0.041
6.497,-0.037
6.498,-0.033
6.499,-0.031
6.5,-0.028
6.501,-0.028
6.502,-0.031
6.503,-0.028
6.504,-0.028
6.505,-0.025
6.506,-0.024
6.507,-0.019
6.508,-0.017
6.509,-0.013
6.51,-0.016
6.511,-0.016
6.512,-0.011
6.513,-0.013
6.514,0.001
6.515,0.013
6.516,0.011
6.517,0.016
6.518,0.018
6.519,0.019
6.52,0.021
6.521,0.022
6.522,0.025
6.523,0.025
6.524,0.027
6.525,0.028
6.526,0.025
6.527,0.022
6.528,0.022
6.529,0.022
6.53,0.028
6.531,0.028
6.532,0.025
6.533,0.028
6.534,0.027
6.535,0.025
6.536,0.025
6.537,0.025
6.538,0.031
6.539,0.031
6.54,0.038
6.541,0.041
6.542,0.044
6.543,0.044
6.544,0.044
6.545,0.044
6.546,0.041
6.547,0.038
6.548,0.039
6.549,0.041
6.55,0.03
6.551,0.022
6.552,0.019
6.553,0.016
6.554,0.016
6.555,0.016
6.556,0.014
6.557,0.013
6.558,0.017
6.559,0.022
6.56,0.023
6.561,0.022
6.562,0.02
6.563,0.025
6.564,0.028
6.565,0.034
6.566,0.038
6.567,0.038
6.568,0.033
6.569,0.031
6.57,0.027
6.571,0.019
6.572,0.019
6.573,0.019
6.574,0.014
6.575,0.013
6.576,0.011
6.577,0.009
6.578,0.009
6.579,0.009
6.58,0.016
6.581,0.016
6.582,0.017
6.583,0.019
6.584,0.018
6.585,0.016
6.586,0.013
6.587,0.009
6.588,0.013
6.589,0.019
6.59,0.02
6.591,0.022
6.592,0.014
6.593,0.013
6.594,0.011
6.595,0.013
6.596,0.013
6.597,0.016
6.598,0.018
6.599,0.016
6.6,0.014
6.601,0.009
6.602,0.009
6.603,0.009
6.604,0.006
6.605,0.006
6.606,0.002
6.607,0.003
6.608,-0.001
6.609,0
6.61,0.001
6.611,0.003
6.612,0.004
6.613,0.009
6.614,0.014
6.615,0.016
6.616,0.017
6.617,0.019
6.618,0.019
6.619,0.019
6.62,0.02
6.621,0.022
6.622,0.023
6.623,0.022
6.624,0.018
6.625,0.009
6.626,0.003
6.627,-0.003
6.628,0
6.629,0
6.63,0.004
6.631,0.009
6.632,0.003
6.633,0.003
6.634,-0.001
6.635,-0.006
6.636,0.003
6.637,0.013
6.638,0.013
6.639,0.013
6.64,0.009
6.641,0.009
6.642,0.014
6.643,0.013
6.644,0.008
6.645,0.009
6.646,0.009
6.647,0.009
6.648,0.008
6.649,0.003
6.65,0.002
6.651,-0.003
6.652,0
6.653,0
6.654,0.003
6.655,0.006
6.656,0.003
6.657,0.003
6.658,0.002
6.659,0
6.66,0.006
6.661,0.009
6.662,0.013
6.663,0.019
6.664,0.018
6.665,0.016
6.666,0.016
6.667,0.013
6.668,0.014
6.669,0.013
6.67,0.014
6.671,0.016
6.672,0.016
6.673,0.016
6.674,0.008
6.675,0
6.676,-0.005
6.677,0
6.678,-0.003
6.679,-0.003
6.68,-0.002
6.681,0
6.682,0
6.683,0
6.684,0.001
6.685,0.003
6.686,0.001
6.687,0.003
6.688,0.002
6.689,0.003
6.69,0.003
6.691,0.003
6.692,0.003
6.693,0.003
6.694,-0.001
6.695,0
6.696,0
6.697,-0.003
6.698,-0.004
6.699,-0.006
6.7,-0.008
6.701,-0.006
6.702,-0.014
6.703,-0.016
6.704,-0.014
6.705,-0.013
6.706,-0.019
6.707,-0.019
6.708,-0.022
6.709,-0.019
6.71,-0.021
6.711,-0.019
6.712,-0.02
6.713,-0.019
6.714,-0.017
6.715,-0.016
6.716,-0.013
6.717,-0.009
6.718,-0.011
6.719,-0.013
6.72,-0.016
6.721,-0.016
6.722,-0.02
6.723,-0.022
6.724,-0.021
6.725,-0.019
6.726,-0.022
6.727,-0.022
6.728,-0.022
6.729,-0.025
6.73,-0.026
6.731,-0.028
6.732,-0.026
6.733,-0.025
6.734,-0.022
6.735,-0.019
6.736,-0.009
6.737,-0.009
6.738,-0.011
6.739,-0.009
6.74,-0.019
6.741,-0.022
6.742,-0.021
6.743,-0.019
6.744,-0.019
6.745,-0.019
6.746,-0.021
6.747,-0.025
6.748,-0.025
6.749,-0.025
6.75,-0.026
6.751,-0.028
6.752,-0.029
6.753,-0.031
6.754,-0.031
6.755,-0.034
6.756,-0.03
6.757,-0.025
6.758,-0.022
6.759,-0.019
6.76,-0.022
6.761,-0.022
6.762,-0.016
6.763,-0.016
6.764,-0.017
6.765,-0.019
6.766,-0.017
6.767,-0.022
6.768,-0.022
6.769,-0.025
6.77,-0.026
6.771,-0.025
6.772,-0.036
6.773,-0.041
6.774,-0.044
6.775,-0.044
6.776,-0.046
6.777,-0.047
6.778,-0.039
6.779,-0.037
6.78,-0.037
6.781,-0.034
6.782,-0.034
6.783,-0.028
6.784,-0.028
6.785,-0.025
6.786,-0.031
6.787,-0.028
6.788,-0.028
6.789,-0.031
6.79,-0.028
6.791,-0.028
6.792,-0.027
6.793,-0.025
6.794,-0.034
6.795,-0.044
6.796,-0.045
6.797,-0.047
6.798,-0.042
6.799,-0.041
6.8,-0.036
6.801,-0.031
6.802,-0.022
6.803,-0.016
6.804,-0.019
6.805,-0.019
6.806,-0.013
6.807,-0.006
6.808,0.004
6.809,0.016
6.81,0.022
6.811,0.028
6.812,0.034
6.813,0.041
6.814,0.047
6.815,0.047
6.816,0.048
6.817,0.047
6.818,0.047
6.819,0.044
6.82,0.044
6.821,0.038
6.822,0.038
6.823,0.038
6.824,0.036
6.825,0.038
6.826,0.038
6.827,0.038
6.828,0.044
6.829,0.047
6.83,0.054
6.831,0.063
6.832,0.072
6.833,0.078
6.834,0.08
6.835,0.081
6.836,0.079
6.837,0.081
6.838,0.091
6.839,0.094
6.84,0.099
6.841,0.1
6.842,0.1
6.843,0.1
6.844,0.1
6.845,0.097
6.846,0.095
6.847,0.097
6.848,0.098
6.849,0.097
6.85,0.089
6.851,0.084
6.852,0.084
6.853,0.084
6.854,0.084
6.855,0.084
6.856,0.083
6.857,0.081
6.858,0.078
6.859,0.066
6.86,0.063
6.861,0.05
6.862,0.044
6.863,0.034
6.864,0.033
6.865,0.028
6.866,0.021
6.867,0.016
6.868,0.008
6.869,0
6.87,-0.005
6.871,-0.006
6.872,-0.009
6.873,-0.009
6.874,-0.008
6.875,-0.009
6.876,-0.014
6.877,-0.019
6.878,-0.022
6.879,-0.028
6.88,-0.027
6.881,-0.028
6.882,-0.027
6.883,-0.025
6.884,-0.022
6.885,-0.022
6.886,-0.026
6.887,-0.031
6.888,-0.036
6.889,-0.041
6.89,-0.046
6.891,-0.05
6.892,-0.054
6.893,-0.059
6.894,-0.059
6.895,-0.059
6.896,-0.059
6.897,-0.059
6.898,-0.061
6.899,-0.062
6.9,-0.059
6.901,-0.056
6.902,-0.057
6.903,-0.056
6.904,-0.055
6.905,-0.053
6.906,-0.052
6.907,-0.05
6.908,-0.05
6.909,-0.05
6.91,-0.053
6.911,-0.053
6.912,-0.053
6.913,-0.05
6.914,-0.054
6.915,-0.056
6.916,-0.061
6.917,-0.069
6.918,-0.072
6.919,-0.072
6.92,-0.071
6.921,-0.069
6.922,-0.067
6.923,-0.066
6.924,-0.073
6.925,-0.081
6.926,-0.094
6.927,-0.103
6.928,-0.109
6.929,-0.112
6.93,-0.114
6.931,-0.112
6.932,-0.104
6.933,-0.097
6.934,-0.086
6.935,-0.072
6.936,-0.054
6.937,-0.037
6.938,-0.017
6.939,0.006
6.94,0.033
6.941,0.063
6.942,0.093
6.943,0.122
6.944,0.168
6.945,0.213
6.946,0.266
6.947,0.316
6.948,0.361
6.949,0.403
6.95,0.443
6.951,0.488
6.952,0.547
6.953,0.612
6.954,0.679
6.955,0.741
6.956,0.795
6.957,0.847
6.958,0.897
6.959,0.95
6.96,0.988
6.961,1.019
6.962,1.034
6.963,1.034
6.964,1.028
6.965,1.013
6.966,0.973
6.967,0.916
6.968,0.848
6.969,0.784
6.97,0.718
6.971,0.65
6.972,0.591
6.973,0.534
6.974,0.484
6.975,0.428
6.976,0.367
6.977,0.306
6.978,0.242
6.979,0.175
6.98,0.118
6.981,0.066
6.982,0.024
6.983,-0.013
6.984,-0.031
6.985,-0.041
6.986,-0.036
6.987,-0.031
6.988,-0.031
6.989,-0.041
6.99,-0.054
6.991,-0.075
6.992,-0.095
6.993,-0.112
6.994,-0.123
6.995,-0.128
6.996,-0.128
6.997,-0.128
6.998,-0.136
6.999,-0.141
7,-0.134
7.001,-0.128
7.002,-0.117
7.003,-0.109
7.004,-0.102
7.005,-0.094
7.006,-0.091
7.007,-0.091
7.008,-0.091
7.009,-0.091
7.01,-0.084
7.011,-0.084
7.012,-0.081
7.013,-0.075
7.014,-0.076
7.015,-0.081
7.016,-0.081
7.017,-0.084
7.018,-0.081
7.019,-0.081
7.02,-0.086
7.021,-0.091
7.022,-0.091
7.023,-0.097
7.024,-0.098
7.025,-0.1
7.026,-0.097
7.027,-0.097
7.028,-0.091
7.029,-0.084
7.03,-0.077
7.031,-0.072
7.032,-0.072
7.033,-0.072
7.034,-0.072
7.035,-0.072
7.036,-0.076
7.037,-0.081
7.038,-0.084
7.039,-0.087
7.04,-0.092
7.041,-0.091
7.042,-0.092
7.043,-0.091
7.044,-0.092
7.045,-0.094
7.046,-0.091
7.047,-0.087
7.048,-0.086
7.049,-0.084
7.05,-0.084
7.051,-0.081
7.052,-0.08
7.053,-0.075
7.054,-0.071
7.055,-0.075
7.056,-0.075
7.057,-0.075
7.058,-0.077
7.059,-0.078
7.06,-0.077
7.061,-0.075
7.062,-0.082
7.063,-0.087
7.064,-0.094
7.065,-0.097
7.066,-0.094
7.067,-0.094
7.068,-0.092
7.069,-0.087
7.07,-0.087
7.071,-0.087
7.072,-0.091
7.073,-0.087
7.074,-0.081
7.075,-0.075
7.076,-0.075
7.077,-0.072
7.078,-0.073
7.079,-0.072
7.08,-0.072
7.081,-0.072
7.082,-0.072
7.083,-0.072
7.084,-0.074
7.085,-0.072
7.086,-0.076
7.087,-0.081
7.088,-0.087
7.089,-0.094
7.09,-0.092
7.091,-0.091
7.092,-0.089
7.093,-0.084
7.094,-0.084
7.095,-0.084
7.096,-0.087
7.097,-0.087
7.098,-0.083
7.099,-0.081
7.1,-0.08
7.101,-0.075
7.102,-0.075
7.103,-0.078
7.104,-0.077
7.105,-0.078
7.106,-0.074
7.107,-0.075
7.108,-0.072
7.109,-0.072
7.11,-0.072
7.111,-0.072
7.112,-0.072
7.113,-0.075
7.114,-0.076
7.115,-0.081
7.116,-0.083
7.117,-0.081
7.118,-0.082
7.119,-0.084
7.12,-0.084
7.121,-0.081
7.122,-0.083
7.123,-0.081
7.124,-0.08
7.125,-0.075
7.126,-0.073
7.127,-0.075
7.128,-0.074
7.129,-0.075
7.13,-0.072
7.131,-0.072
7.132,-0.072
7.133,-0.072
7.134,-0.069
7.135,-0.069
7.136,-0.082
7.137,-0.091
7.138,-0.097
7.139,-0.1
7.14,-0.099
7.141,-0.097
7.142,-0.091
7.143,-0.084
7.144,-0.084
7.145,-0.081
7.146,-0.078
7.147,-0.075
7.148,-0.079
7.149,-0.078
7.15,-0.076
7.151,-0.078
7.152,-0.075
7.153,-0.072
7.154,-0.072
7.155,-0.072
7.156,-0.066
7.157,-0.062
7.158,-0.064
7.159,-0.069
7.16,-0.076
7.161,-0.084
7.162,-0.083
7.163,-0.081
7.164,-0.084
7.165,-0.084
7.166,-0.086
7.167,-0.087
7.168,-0.087
7.169,-0.087
7.17,-0.087
7.171,-0.091
7.172,-0.084
7.173,-0.081
7.174,-0.078
7.175,-0.078
7.176,-0.074
7.177,-0.072
7.178,-0.069
7.179,-0.072
7.18,-0.071
7.181,-0.066
7.182,-0.069
7.183,-0.066
7.184,-0.072
7.185,-0.078
7.186,-0.079
7.187,-0.081
7.188,-0.084
7.189,-0.084
7.19,-0.086
7.191,-0.084
7.192,-0.086
7.193,-0.087
7.194,-0.087
7.195,-0.084
7.196,-0.08
7.197,-0.072
7.198,-0.072
7.199,-0.069
7.2,-0.066
7.201,-0.066
7.202,-0.061
7.203,-0.056
7.204,-0.059
7.205,-0.059
7.206,-0.064
7.207,-0.069
7.208,-0.069
7.209,-0.072
7.21,-0.075
7.211,-0.081
7.212,-0.086
7.213,-0.084
7.214,-0.086
7.215,-0.084
7.216,-0.084
7.217,-0.087
7.218,-0.084
7.219,-0.084
7.22,-0.08
7.221,-0.075
7.222,-0.074
7.223,-0.072
7.224,-0.073
7.225,-0.072
7.226,-0.073
7.227,-0.075
7.228,-0.077
7.229,-0.075
7.23,-0.074
7.231,-0.072
7.232,-0.075
7.233,-0.078
7.234,-0.081
7.235,-0.087
7.236,-0.087
7.237,-0.087
7.238,-0.091
7.239,-0.087
7.24,-0.086
7.241,-0.084
7.242,-0.087
7.243,-0.087
7.244,-0.083
7.245,-0.084
7.246,-0.081
7.247,-0.078
7.248,-0.075
7.249,-0.072
7.25,-0.073
7.251,-0.075
7.252,-0.072
7.253,-0.072
7.254,-0.074
7.255,-0.072
7.256,-0.075
7.257,-0.078
7.258,-0.079
7.259,-0.081
7.26,-0.082
7.261,-0.084
7.262,-0.084
7.263,-0.084
7.264,-0.086
7.265,-0.084
7.266,-0.081
7.267,-0.075
7.268,-0.071
7.269,-0.069
7.27,-0.058
7.271,-0.047
7.272,-0.042
7.273,-0.041
7.274,-0.041
7.275,-0.041
7.276,-0.041
7.277,-0.037
7.278,-0.036
7.279,-0.034
7.28,-0.031
7.281,-0.034
7.282,-0.034
7.283,-0.037
7.284,-0.039
7.285,-0.044
7.286,-0.041
7.287,-0.041
7.288,-0.039
7.289,-0.034
7.29,-0.03
7.291,-0.022
7.292,-0.021
7.293,-0.019
7.294,-0.011
7.295,-0.006
7.296,-0.003
7.297,0
7.298,0.002
7.299,0.003
7.3,0.002
7.301,0.003
7.302,0.005
7.303,0.003
7.304,0.006
7.305,0.009
7.306,0.008
7.307,0.009
7.308,0.006
7.309,0.003
7.31,0.008
7.311,0.009
7.312,0.011
7.313,0.016
7.314,0.019
7.315,0.022
7.316,0.018
7.317,0.019
7.318,0.02
7.319,0.025
7.32,0.028
7.321,0.031
7.322,0.031
7.323,0.031
7.324,0.03
7.325,0.028
7.326,0.031
7.327,0.031
7.328,0.031
7.329,0.031
7.33,0.027
7.331,0.019
7.332,0.014
7.333,0.009
7.334,0.008
7.335,0.009
7.336,0.009
7.337,0.009
7.338,0.005
7.339,0
7.34,0.002
7.341,0
7.342,0.006
7.343,0.013
7.344,0.013
7.345,0.009
7.346,0.009
7.347,0.009
7.348,0.011
7.349,0.016
7.35,0.017
7.351,0.016
7.352,0.013
7.353,0.009
7.354,0.008
7.355,0.006
7.356,0.005
7.357,0.003
7.358,-0.004
7.359,-0.006
7.36,-0.006
7.361,-0.006
7.362,-0.006
7.363,-0.006
7.364,-0.006
7.365,-0.006
7.366,-0.004
7.367,-0.006
7.368,0.001
7.369,0.003
7.37,0.002
7.371,0
7.372,0.004
7.373,0.006
7.374,0.008
7.375,0.009
7.376,0.011
7.377,0.013
7.378,0.009
7.379,0.009
7.38,0.006
7.381,0
7.382,-0.001
7.383,-0.006
7.384,-0.006
7.385,-0.013
7.386,-0.009
7.387,-0.009
7.388,-0.009
7.389,-0.009
7.39,-0.009
7.391,-0.009
7.392,-0.009
7.393,-0.009
7.394,-0.005
7.395,0
7.396,0.001
7.397,0.003
7.398,0.004
7.399,0.006
7.4,0.003
7.401,0.003
7.402,0
7.403,0
7.404,0.001
7.405,0.003
7.406,0
7.407,0
7.408,0.001
7.409,0
7.41,0.002
7.411,0
7.412,-0.003
7.413,-0.006
7.414,-0.006
7.415,-0.006
7.416,-0.003
7.417,0
7.418,0.002
7.419,0.003
7.42,0.001
7.421,0
7.422,0.003
7.423,0.003
7.424,0.003
7.425,0.003
7.426,0.001
7.427,0.003
7.428,-0.004
7.429,-0.009
7.43,-0.013
7.431,-0.013
7.432,-0.013
7.433,-0.016
7.434,-0.016
7.435,-0.016
7.436,-0.017
7.437,-0.016
7.438,-0.016
7.439,-0.016
7.44,-0.014
7.441,-0.016
7.442,-0.014
7.443,-0.009
7.444,-0.009
7.445,-0.009
7.446,-0.011
7.447,-0.009
7.448,-0.009
7.449,-0.009
7.45,-0.006
7.451,-0.006
7.452,-0.013
7.453,-0.022
7.454,-0.022
7.455,-0.028
7.456,-0.028
7.457,-0.028
7.458,-0.029
7.459,-0.031
7.46,-0.031
7.461,-0.031
7.462,-0.028
7.463,-0.028
7.464,-0.024
7.465,-0.019
7.466,-0.014
7.467,-0.013
7.468,-0.013
7.469,-0.013
7.47,-0.011
7.471,-0.013
7.472,-0.013
7.473,-0.016
7.474,-0.017
7.475,-0.016
7.476,-0.017
7.477,-0.022
7.478,-0.023
7.479,-0.031
7.48,-0.031
7.481,-0.031
7.482,-0.031
7.483,-0.028
7.484,-0.028
7.485,-0.031
7.486,-0.032
7.487,-0.034
7.488,-0.034
7.489,-0.034
7.49,-0.034
7.491,-0.034
7.492,-0.024
7.493,-0.022
7.494,-0.025
7.495,-0.025
7.496,-0.029
7.497,-0.028
7.498,-0.028
7.499,-0.028
7.5,-0.028
7.501,-0.028
7.502,-0.032
7.503,-0.041
7.504,-0.044
7.505,-0.047
7.506,-0.047
7.507,-0.047
7.508,-0.047
7.509,-0.047
7.51,-0.047
7.511,-0.05
7.512,-0.047
7.513,-0.044
7.514,-0.039
7.515,-0.034
7.516,-0.036
7.517,-0.034
7.518,-0.031
7.519,-0.034
7.52,-0.036
7.521,-0.037
7.522,-0.034
7.523,-0.037
7.524,-0.036
7.525,-0.037
7.526,-0.044
7.527,-0.047
7.528,-0.049
7.529,-0.044
7.53,-0.042
7.531,-0.037
7.532,-0.044
7.533,-0.05
7.534,-0.051
7.535,-0.059
7.536,-0.059
7.537,-0.056
7.538,-0.052
7.539,-0.041
7.54,-0.037
7.541,-0.031
7.542,-0.041
7.543,-0.041
7.544,-0.042
7.545,-0.047
7.546,-0.044
7.547,-0.044
7.548,-0.042
7.549,-0.041
7.55,-0.045
7.551,-0.05
7.552,-0.051
7.553,-0.053
7.554,-0.046
7.555,-0.041
7.556,-0.039
7.557,-0.037
7.558,-0.034
7.559,-0.034
7.56,-0.036
7.561,-0.034
7.562,-0.028
7.563,-0.022
7.564,-0.016
7.565,-0.009
7.566,-0.004
7.567,0
7.568,0.008
7.569,0.016
7.57,0.023
7.571,0.025
7.572,0.025
7.573,0.022
7.574,0.022
7.575,0.019
7.576,0.021
7.577,0.016
7.578,0.016
7.579,0.016
7.58,0.016
7.581,0.019
7.582,0.023
7.583,0.028
7.584,0.031
7.585,0.031
7.586,0.039
7.587,0.047
7.588,0.053
7.589,0.056
7.59,0.061
7.591,0.066
7.592,0.066
7.593,0.069
7.594,0.077
7.595,0.078
7.596,0.083
7.597,0.084
7.598,0.084
7.599,0.084
7.6,0.08
7.601,0.072
7.602,0.069
7.603,0.069
7.604,0.075
7.605,0.078
7.606,0.072
7.607,0.069
7.608,0.064
7.609,0.059
7.61,0.063
7.611,0.066
7.612,0.066
7.613,0.066
7.614,0.061
7.615,0.047
7.616,0.044
7.617,0.031
7.618,0.026
7.619,0.019
7.62,0.019
7.621,0.016
7.622,0.006
7.623,0
7.624,-0.006
7.625,-0.013
7.626,-0.016
7.627,-0.016
7.628,-0.019
7.629,-0.019
7.63,-0.019
7.631,-0.022
7.632,-0.026
7.633,-0.031
7.634,-0.037
7.635,-0.047
7.636,-0.044
7.637,-0.044
7.638,-0.041
7.639,-0.037
7.64,-0.036
7.641,-0.037
7.642,-0.042
7.643,-0.047
7.644,-0.049
7.645,-0.05
7.646,-0.053
7.647,-0.056
7.648,-0.061
7.649,-0.066
7.65,-0.066
7.651,-0.066
7.652,-0.072
7.653,-0.078
7.654,-0.079
7.655,-0.081
7.656,-0.081
7.657,-0.081
7.658,-0.08
7.659,-0.075
7.66,-0.074
7.661,-0.072
7.662,-0.071
7.663,-0.069
7.664,-0.069
7.665,-0.069
7.666,-0.072
7.667,-0.072
7.668,-0.072
7.669,-0.069
7.67,-0.072
7.671,-0.072
7.672,-0.071
7.673,-0.072
7.674,-0.074
7.675,-0.072
7.676,-0.078
7.677,-0.084
7.678,-0.087
7.679,-0.091
7.68,-0.096
7.681,-0.1
7.682,-0.109
7.683,-0.116
7.684,-0.121
7.685,-0.122
7.686,-0.116
7.687,-0.106
7.688,-0.101
7.689,-0.097
7.69,-0.087
7.691,-0.075
7.692,-0.061
7.693,-0.047
7.694,-0.025
7.695,0
7.696,0.029
7.697,0.063
7.698,0.097
7.699,0.131
7.7,0.177
7.701,0.222
7.702,0.272
7.703,0.319
7.704,0.366
7.705,0.409
7.706,0.454
7.707,0.506
7.708,0.567
7.709,0.634
7.71,0.697
7.711,0.753
7.712,0.805
7.713,0.853
7.714,0.901
7.715,0.953
7.716,0.994
7.717,1.028
7.718,1.036
7.719,1.028
7.72,1.005
7.721,0.972
7.722,0.921
7.723,0.85
7.724,0.778
7.725,0.709
7.726,0.645
7.727,0.581
7.728,0.52
7.729,0.463
7.73,0.408
7.731,0.347
7.732,0.288
7.733,0.228
7.734,0.169
7.735,0.106
7.736,0.054
7.737,0.009
7.738,-0.032
7.739,-0.069
7.74,-0.089
7.741,-0.1
7.742,-0.1
7.743,-0.1
7.744,-0.094
7.745,-0.097
7.746,-0.103
7.747,-0.116
7.748,-0.127
7.749,-0.134
7.75,-0.142
7.751,-0.144
7.752,-0.147
7.753,-0.15
7.754,-0.159
7.755,-0.166
7.756,-0.167
7.757,-0.169
7.758,-0.158
7.759,-0.15
7.76,-0.142
7.761,-0.134
7.762,-0.127
7.763,-0.122
7.764,-0.112
7.765,-0.103
7.766,-0.097
7.767,-0.097
7.768,-0.1
7.769,-0.1
7.77,-0.101
7.771,-0.106
7.772,-0.105
7.773,-0.106
7.774,-0.105
7.775,-0.106
7.776,-0.109
7.777,-0.112
7.778,-0.109
7.779,-0.112
7.78,-0.109
7.781,-0.106
7.782,-0.1
7.783,-0.097
7.784,-0.094
7.785,-0.091
7.786,-0.087
7.787,-0.087
7.788,-0.089
7.789,-0.091
7.79,-0.089
7.791,-0.087
7.792,-0.087
7.793,-0.087
7.794,-0.094
7.795,-0.1
7.796,-0.106
7.797,-0.106
7.798,-0.106
7.799,-0.103
7.8,-0.1
7.801,-0.097
7.802,-0.095
7.803,-0.094
7.804,-0.092
7.805,-0.091
7.806,-0.094
7.807,-0.094
7.808,-0.092
7.809,-0.087
7.81,-0.086
7.811,-0.094
7.812,-0.092
7.813,-0.091
7.814,-0.087
7.815,-0.084
7.816,-0.084
7.817,-0.084
7.818,-0.086
7.819,-0.084
7.82,-0.091
7.821,-0.094
7.822,-0.091
7.823,-0.091
7.824,-0.094
7.825,-0.094
7.826,-0.094
7.827,-0.094
7.828,-0.097
7.829,-0.094
7.83,-0.089
7.831,-0.084
7.832,-0.083
7.833,-0.078
7.834,-0.079
7.835,-0.078
7.836,-0.075
7.837,-0.072
7.838,-0.071
7.839,-0.069
7.84,-0.069
7.841,-0.066
7.842,-0.072
7.843,-0.078
7.844,-0.084
7.845,-0.091
7.846,-0.095
7.847,-0.1
7.848,-0.101
7.849,-0.1
7.85,-0.097
7.851,-0.094
7.852,-0.096
7.853,-0.094
7.854,-0.091
7.855,-0.091
7.856,-0.087
7.857,-0.081
7.858,-0.078
7.859,-0.078
7.86,-0.078
7.861,-0.081
7.862,-0.078
7.863,-0.081
7.864,-0.077
7.865,-0.075
7.866,-0.076
7.867,-0.078
7.868,-0.079
7.869,-0.084
7.87,-0.084
7.871,-0.087
7.872,-0.091
7.873,-0.091
7.874,-0.091
7.875,-0.091
7.876,-0.094
7.877,-0.094
7.878,-0.096
7.879,-0.094
7.88,-0.094
7.881,-0.091
7.882,-0.081
7.883,-0.075
7.884,-0.072
7.885,-0.072
7.886,-0.067
7.887,-0.066
7.888,-0.066
7.889,-0.066
7.89,-0.064
7.891,-0.066
7.892,-0.073
7.893,-0.075
7.894,-0.082
7.895,-0.087
7.896,-0.087
7.897,-0.087
7.898,-0.086
7.899,-0.084
7.9,-0.084
7.901,-0.081
7.902,-0.082
7.903,-0.084
7.904,-0.081
7.905,-0.072
7.906,-0.07
7.907,-0.072
7.908,-0.076
7.909,-0.081
7.91,-0.081
7.911,-0.081
7.912,-0.079
7.913,-0.081
7.914,-0.081
7.915,-0.084
7.916,-0.084
7.917,-0.084
7.918,-0.084
7.919,-0.084
7.92,-0.086
7.921,-0.084
7.922,-0.086
7.923,-0.087
7.924,-0.086
7.925,-0.084
7.926,-0.08
7.927,-0.078
7.928,-0.069
7.929,-0.062
7.93,-0.058
7.931,-0.056
7.932,-0.056
7.933,-0.059
7.934,-0.057
7.935,-0.062
7.936,-0.066
7.937,-0.066
7.938,-0.069
7.939,-0.066
7.94,-0.072
7.941,-0.078
7.942,-0.079
7.943,-0.081
7.944,-0.083
7.945,-0.081
7.946,-0.081
7.947,-0.078
7.948,-0.079
7.949,-0.081
7.95,-0.081
7.951,-0.078
7.952,-0.072
7.953,-0.062
7.954,-0.066
7.955,-0.066
7.956,-0.064
7.957,-0.066
7.958,-0.066
7.959,-0.066
7.96,-0.07
7.961,-0.072
7.962,-0.072
7.963,-0.072
7.964,-0.071
7.965,-0.072
7.966,-0.075
7.967,-0.081
7.968,-0.084
7.969,-0.081
7.97,-0.081
7.971,-0.078
7.972,-0.077
7.973,-0.078
7.974,-0.075
7.975,-0.075
7.976,-0.076
7.977,-0.078
7.978,-0.078
7.979,-0.078
7.98,-0.078
7.981,-0.075
7.982,-0.072
7.983,-0.069
7.984,-0.072
7.985,-0.072
7.986,-0.073
7.987,-0.075
7.988,-0.079
7.989,-0.084
7.99,-0.083
7.991,-0.084
7.992,-0.083
7.993,-0.081
7.994,-0.086
7.995,-0.084
7.996,-0.086
7.997,-0.087
7.998,-0.094
7.999,-0.097
8,-0.091
8.001,-0.091
8.002,-0.091
8.003,-0.091
8.004,-0.086
8.005,-0.081
8.006,-0.078
8.007,-0.075
8.008,-0.072
8.009,-0.072
8.01,-0.075
8.011,-0.075
8.012,-0.076
8.013,-0.078
8.014,-0.078
8.015,-0.078
8.016,-0.078
8.017,-0.078
8.018,-0.078
8.019,-0.078
8.02,-0.077
8.021,-0.072
8.022,-0.075
8.023,-0.075
8.024,-0.072
8.025,-0.072
8.026,-0.067
8.027,-0.062
8.028,-0.053
8.029,-0.047
8.03,-0.044
8.031,-0.041
8.032,-0.039
8.033,-0.034
8.034,-0.036
8.035,-0.037
8.036,-0.034
8.037,-0.037
8.038,-0.034
8.039,-0.034
8.04,-0.028
8.041,-0.025
8.042,-0.021
8.043,-0.019
8.044,-0.019
8.045,-0.016
8.046,-0.013
8.047,-0.006
8.048,-0.007
8.049,-0.009
8.05,0
8.051,0.006
8.052,0.008
8.053,0.009
8.054,0.011
8.055,0.013
8.056,0.009
8.057,0.009
8.058,0.017
8.059,0.022
8.06,0.022
8.061,0.022
8.062,0.021
8.063,0.022
8.064,0.016
8.065,0.009
8.066,0.013
8.067,0.013
8.068,0.013
8.069,0.016
8.07,0.02
8.071,0.025
8.072,0.023
8.073,0.028
8.074,0.031
8.075,0.038
8.076,0.036
8.077,0.034
8.078,0.036
8.079,0.038
8.08,0.039
8.081,0.041
8.082,0.042
8.083,0.041
8.084,0.036
8.085,0.031
8.086,0.03
8.087,0.025
8.088,0.025
8.089,0.025
8.09,0.022
8.091,0.022
8.092,0.023
8.093,0.025
8.094,0.023
8.095,0.022
8.096,0.022
8.097,0.019
8.098,0.021
8.099,0.022
8.1,0.023
8.101,0.022
8.102,0.021
8.103,0.019
8.104,0.013
8.105,0.009
8.106,0.008
8.107,0.003
8.108,0.004
8.109,0.006
8.11,0.008
8.111,0.009
8.112,0.011
8.113,0.013
8.114,0.008
8.115,0.009
8.116,0.009
8.117,0.009
8.118,0.011
8.119,0.013
8.12,0.013
8.121,0.013
8.122,0.014
8.123,0.013
8.124,0.02
8.125,0.022
8.126,0.022
8.127,0.022
8.128,0.022
8.129,0.019
8.13,0.018
8.131,0.016
8.132,0.017
8.133,0.019
8.134,0.016
8.135,0.016
8.136,0.013
8.137,0.006
8.138,0.009
8.139,0.009
8.14,0.013
8.141,0.009
8.142,0.009
8.143,0.006
8.144,0.008
8.145,0.009
8.146,0.016
8.147,0.022
8.148,0.023
8.149,0.025
8.15,0.025
8.151,0.025
8.152,0.022
8.153,0.019
8.154,0.019
8.155,0.019
8.156,0.017
8.157,0.019
8.158,0.017
8.159,0.019
8.16,0.018
8.161,0.016
8.162,0.013
8.163,0.013
8.164,0.016
8.165,0.016
8.166,0.018
8.167,0.016
8.168,0.014
8.169,0.013
8.17,0.013
8.171,0.013
8.172,0.017
8.173,0.022
8.174,0.025
8.175,0.028
8.176,0.026
8.177,0.025
8.178,0.022
8.179,0.016
8.18,0.016
8.181,0.016
8.182,0.014
8.183,0.016
8.184,0.013
8.185,0.013
8.186,0.009
8.187,0.009
8.188,0.009
8.189,0.006
8.19,0.005
8.191,0.003
8.192,0.002
8.193,0.003
8.194,0.002
8.195,0
8.196,0.004
8.197,0.006
8.198,0.009
8.199,0.016
8.2,0.016
8.201,0.016
8.202,0.011
8.203,0.009
8.204,0.008
8.205,0.006
8.206,0.006
8.207,0.003
8.208,-0.003
8.209,-0.013
8.21,-0.009
8.211,-0.013
8.212,-0.013
8.213,-0.013
8.214,-0.013
8.215,-0.013
8.216,-0.009
8.217,-0.006
8.218,-0.005
8.219,-0.006
8.22,-0.003
8.221,0
8.222,0.003
8.223,0.003
8.224,0.003
8.225,0.003
8.226,0.006
8.227,0.006
8.228,0.009
8.229,0.009
8.23,0.003
8.231,0
8.232,-0.001
8.233,-0.006
8.234,-0.007
8.235,-0.016
8.236,-0.017
8.237,-0.019
8.238,-0.022
8.239,-0.022
8.24,-0.021
8.241,-0.022
8.242,-0.022
8.243,-0.022
8.244,-0.02
8.245,-0.019
8.246,-0.013
8.247,-0.006
8.248,0.003
8.249,0.003
8.25,0
8.251,0
8.252,-0.006
8.253,-0.006
8.254,-0.007
8.255,-0.009
8.256,-0.011
8.257,-0.013
8.258,-0.016
8.259,-0.022
8.26,-0.025
8.261,-0.028
8.262,-0.029
8.263,-0.031
8.264,-0.03
8.265,-0.028
8.266,-0.028
8.267,-0.031
8.268,-0.031
8.269,-0.031
8.27,-0.027
8.271,-0.022
8.272,-0.024
8.273,-0.022
8.274,-0.02
8.275,-0.025
8.276,-0.024
8.277,-0.022
8.278,-0.017
8.279,-0.019
8.28,-0.017
8.281,-0.019
8.282,-0.023
8.283,-0.025
8.284,-0.031
8.285,-0.031
8.286,-0.034
8.287,-0.034
8.288,-0.041
8.289,-0.047
8.29,-0.042
8.291,-0.044
8.292,-0.042
8.293,-0.037
8.294,-0.039
8.295,-0.034
8.296,-0.033
8.297,-0.028
8.298,-0.032
8.299,-0.028
8.3,-0.029
8.301,-0.034
8.302,-0.032
8.303,-0.034
8.304,-0.036
8.305,-0.037
8.306,-0.041
8.307,-0.044
8.308,-0.042
8.309,-0.041
8.31,-0.036
8.311,-0.034
8.312,-0.031
8.313,-0.028
8.314,-0.025
8.315,-0.025
8.316,-0.031
8.317,-0.034
8.318,-0.031
8.319,-0.028
8.32,-0.019
8.321,-0.009
8.322,-0.004
8.323,0
8.324,0.009
8.325,0.019
8.326,0.028
8.327,0.031
8.328,0.033
8.329,0.031
8.33,0.031
8.331,0.028
8.332,0.031
8.333,0.028
8.334,0.027
8.335,0.025
8.336,0.024
8.337,0.025
8.338,0.029
8.339,0.034
8.34,0.041
8.341,0.044
8.342,0.047
8.343,0.05
8.344,0.056
8.345,0.059
8.346,0.067
8.347,0.075
8.348,0.072
8.349,0.072
8.35,0.078
8.351,0.078
8.352,0.086
8.353,0.091
8.354,0.093
8.355,0.094
8.356,0.097
8.357,0.097
8.358,0.089
8.359,0.084
8.36,0.088
8.361,0.088
8.362,0.081
8.363,0.078
8.364,0.076
8.365,0.075
8.366,0.076
8.367,0.078
8.368,0.074
8.369,0.069
8.37,0.068
8.371,0.056
8.372,0.059
8.373,0.053
8.374,0.047
8.375,0.038
8.376,0.031
8.377,0.022
8.378,0.011
8.379,0.003
8.38,-0.003
8.381,-0.009
8.382,-0.014
8.383,-0.016
8.384,-0.013
8.385,-0.006
8.386,-0.002
8.387,0
8.388,-0.003
8.389,-0.006
8.39,-0.008
8.391,-0.013
8.392,-0.011
8.393,-0.013
8.394,-0.013
8.395,-0.013
8.396,-0.016
8.397,-0.022
8.398,-0.025
8.399,-0.028
8.4,-0.03
8.401,-0.031
8.402,-0.039
8.403,-0.047
8.404,-0.051
8.405,-0.056
8.406,-0.056
8.407,-0.056
8.408,-0.059
8.409,-0.062
8.41,-0.064
8.411,-0.066
8.412,-0.066
8.413,-0.066
8.414,-0.061
8.415,-0.053
8.416,-0.049
8.417,-0.044
8.418,-0.045
8.419,-0.047
8.42,-0.048
8.421,-0.05
8.422,-0.056
8.423,-0.059
8.424,-0.059
8.425,-0.056
8.426,-0.058
8.427,-0.056
8.428,-0.059
8.429,-0.066
8.43,-0.069
8.431,-0.069
8.432,-0.072
8.433,-0.075
8.434,-0.078
8.435,-0.081
8.436,-0.087
8.437,-0.094
8.438,-0.102
8.439,-0.106
8.44,-0.111
8.441,-0.112
8.442,-0.116
8.443,-0.116
8.444,-0.106
8.445,-0.097
8.446,-0.084
8.447,-0.069
8.448,-0.054
8.449,-0.041
8.45,-0.019
8.451,0.006
8.452,0.028
8.453,0.053
8.454,0.089
8.455,0.125
8.456,0.175
8.457,0.225
8.458,0.279
8.459,0.331
8.46,0.376
8.461,0.419
8.462,0.458
8.463,0.503
8.464,0.563
8.465,0.628
8.466,0.691
8.467,0.747
8.468,0.8
8.469,0.85
8.47,0.894
8.471,0.941
8.472,0.988
8.473,1.028
8.474,1.048
8.475,1.053
8.476,1.039
8.477,1.016
8.478,0.971
8.479,0.906
8.48,0.833
8.481,0.763
8.482,0.693
8.483,0.622
8.484,0.556
8.485,0.494
8.486,0.438
8.487,0.375
8.488,0.316
8.489,0.256
8.49,0.195
8.491,0.131
8.492,0.072
8.493,0.019
8.494,-0.023
8.495,-0.059
8.496,-0.074
8.497,-0.078
8.498,-0.074
8.499,-0.069
8.5,-0.066
8.501,-0.072
8.502,-0.084
8.503,-0.103
8.504,-0.119
8.505,-0.131
8.506,-0.137
8.507,-0.137
8.508,-0.139
8.509,-0.141
8.51,-0.148
8.511,-0.153
8.512,-0.153
8.513,-0.153
8.514,-0.145
8.515,-0.141
8.516,-0.131
8.517,-0.122
8.518,-0.116
8.519,-0.112
8.52,-0.105
8.521,-0.097
8.522,-0.086
8.523,-0.081
8.524,-0.08
8.525,-0.075
8.526,-0.072
8.527,-0.072
8.528,-0.071
8.529,-0.072
8.53,-0.075
8.531,-0.081
8.532,-0.084
8.533,-0.087
8.534,-0.091
8.535,-0.1
8.536,-0.097
8.537,-0.094
8.538,-0.087
8.539,-0.084
8.54,-0.081
8.541,-0.078
8.542,-0.078
8.543,-0.081
8.544,-0.081
8.545,-0.081
8.546,-0.077
8.547,-0.072
8.548,-0.078
8.549,-0.084
8.55,-0.089
8.551,-0.094
8.552,-0.1
8.553,-0.1
8.554,-0.101
8.555,-0.1
8.556,-0.097
8.557,-0.094
8.558,-0.092
8.559,-0.091
8.56,-0.089
8.561,-0.087
8.562,-0.086
8.563,-0.081
8.564,-0.081
8.565,-0.078
8.566,-0.076
8.567,-0.084
8.568,-0.086
8.569,-0.087
8.57,-0.089
8.571,-0.091
8.572,-0.087
8.573,-0.084
8.574,-0.086
8.575,-0.084
8.576,-0.087
8.577,-0.087
8.578,-0.084
8.579,-0.084
8.58,-0.087
8.581,-0.087
8.582,-0.086
8.583,-0.084
8.584,-0.087
8.585,-0.084
8.586,-0.084
8.587,-0.084
8.588,-0.086
8.589,-0.084
8.59,-0.081
8.591,-0.075
8.592,-0.075
8.593,-0.075
8.594,-0.078
8.595,-0.081
8.596,-0.083
8.597,-0.081
8.598,-0.083
8.599,-0.084
8.6,-0.083
8.601,-0.081
8.602,-0.082
8.603,-0.084
8.604,-0.087
8.605,-0.087
8.606,-0.087
8.607,-0.087
8.608,-0.091
8.609,-0.091
8.61,-0.084
8.611,-0.081
8.612,-0.08
8.613,-0.075
8.614,-0.071
8.615,-0.069
8.616,-0.069
8.617,-0.072
8.618,-0.07
8.619,-0.075
8.62,-0.072
8.621,-0.072
8.622,-0.072
8.623,-0.072
8.624,-0.075
8.625,-0.081
8.626,-0.08
8.627,-0.081
8.628,-0.084
8.629,-0.084
8.63,-0.086
8.631,-0.087
8.632,-0.089
8.633,-0.087
8.634,-0.091
8.635,-0.091
8.636,-0.091
8.637,-0.087
8.638,-0.081
8.639,-0.078
8.64,-0.077
8.641,-0.078
8.642,-0.076
8.643,-0.078
8.644,-0.077
8.645,-0.075
8.646,-0.074
8.647,-0.075
8.648,-0.078
8.649,-0.075
8.65,-0.078
8.651,-0.078
8.652,-0.081
8.653,-0.084
8.654,-0.086
8.655,-0.087
8.656,-0.091
8.657,-0.091
8.658,-0.089
8.659,-0.087
8.66,-0.086
8.661,-0.078
8.662,-0.074
8.663,-0.072
8.664,-0.072
8.665,-0.072
8.666,-0.073
8.667,-0.075
8.668,-0.073
8.669,-0.075
8.67,-0.076
8.671,-0.081
8.672,-0.082
8.673,-0.084
8.674,-0.084
8.675,-0.084
8.676,-0.081
8.677,-0.075
8.678,-0.076
8.679,-0.078
8.68,-0.078
8.681,-0.078
8.682,-0.075
8.683,-0.075
8.684,-0.071
8.685,-0.069
8.686,-0.067
8.687,-0.069
8.688,-0.066
8.689,-0.066
8.69,-0.062
8.691,-0.066
8.692,-0.064
8.693,-0.059
8.694,-0.061
8.695,-0.056
8.696,-0.062
8.697,-0.069
8.698,-0.067
8.699,-0.066
8.7,-0.069
8.701,-0.069
8.702,-0.072
8.703,-0.072
8.704,-0.072
8.705,-0.072
8.706,-0.072
8.707,-0.069
8.708,-0.071
8.709,-0.069
8.71,-0.07
8.711,-0.069
8.712,-0.066
8.713,-0.066
8.714,-0.064
8.715,-0.062
8.716,-0.066
8.717,-0.066
8.718,-0.066
8.719,-0.066
8.72,-0.067
8.721,-0.072
8.722,-0.071
8.723,-0.072
8.724,-0.082
8.725,-0.087
8.726,-0.089
8.727,-0.087
8.728,-0.083
8.729,-0.081
8.73,-0.075
8.731,-0.072
8.732,-0.066
8.733,-0.059
8.734,-0.058
8.735,-0.056
8.736,-0.057
8.737,-0.056
8.738,-0.059
8.739,-0.062
8.74,-0.066
8.741,-0.066
8.742,-0.066
8.743,-0.066
8.744,-0.069
8.745,-0.072
8.746,-0.072
8.747,-0.075
8.748,-0.075
8.749,-0.075
8.75,-0.081
8.751,-0.081
8.752,-0.081
8.753,-0.081
8.754,-0.084
8.755,-0.084
8.756,-0.08
8.757,-0.081
8.758,-0.078
8.759,-0.075
8.76,-0.073
8.761,-0.072
8.762,-0.072
8.763,-0.072
8.764,-0.067
8.765,-0.066
8.766,-0.067
8.767,-0.066
8.768,-0.066
8.769,-0.066
8.77,-0.072
8.771,-0.078
8.772,-0.078
8.773,-0.078
8.774,-0.078
8.775,-0.078
8.776,-0.081
8.777,-0.081
8.778,-0.082
8.779,-0.081
8.78,-0.077
8.781,-0.075
8.782,-0.066
8.783,-0.056
8.784,-0.049
8.785,-0.044
8.786,-0.042
8.787,-0.041
8.788,-0.041
8.789,-0.037
8.79,-0.039
8.791,-0.041
8.792,-0.037
8.793,-0.041
8.794,-0.039
8.795,-0.041
8.796,-0.037
8.797,-0.037
8.798,-0.034
8.799,-0.034
8.8,-0.03
8.801,-0.022
8.802,-0.025
8.803,-0.025
8.804,-0.024
8.805,-0.022
8.806,-0.014
8.807,-0.009
8.808,-0.005
8.809,0
8.81,0.002
8.811,0.003
8.812,0.003
8.813,0.006
8.814,0.013
8.815,0.016
8.816,0.016
8.817,0.016
8.818,0.013
8.819,0.013
8.82,0.009
8.821,0.006
8.822,0.008
8.823,0.006
8.824,0.006
8.825,0.009
8.826,0.013
8.827,0.016
8.828,0.011
8.829,0.013
8.83,0.016
8.831,0.022
8.832,0.022
8.833,0.022
8.834,0.022
8.835,0.022
8.836,0.021
8.837,0.019
8.838,0.022
8.839,0.022
8.84,0.021
8.841,0.019
8.842,0.018
8.843,0.013
8.844,0.009
8.845,0.006
8.846,0.004
8.847,0.006
8.848,0.006
8.849,0.006
8.85,0.004
8.851,0.003
8.852,0.003
8.853,0
8.854,0
8.855,0
8.856,0.004
8.857,0.006
8.858,0.006
8.859,0.006
8.86,0.003
8.861,0.003
8.862,0.004
8.863,0.003
8.864,0.003
8.865,0.003
8.866,0
8.867,-0.003
8.868,-0.004
8.869,-0.006
8.87,-0.009
8.871,-0.006
8.872,-0.006
8.873,-0.006
8.874,-0.009
8.875,-0.013
8.876,-0.011
8.877,-0.009
8.878,-0.002
8.879,0.003
8.88,0.008
8.881,0.006
8.882,0.006
8.883,0.006
8.884,0.008
8.885,0.006
8.886,0.006
8.887,0.006
8.888,0.008
8.889,0.009
8.89,0.002
8.891,-0.003
8.892,-0.004
8.893,-0.009
8.894,-0.009
8.895,-0.013
8.896,-0.009
8.897,-0.013
8.898,-0.011
8.899,-0.013
8.9,-0.014
8.901,-0.016
8.902,-0.014
8.903,-0.013
8.904,-0.006
8.905,0
8.906,0.001
8.907,0.003
8.908,0.003
8.909,0.003
8.91,0
8.911,-0.003
8.912,-0.005
8.913,-0.003
8.914,-0.006
8.915,-0.006
8.916,-0.006
8.917,-0.006
8.918,-0.009
