'Elapsed time','II'
'seconds','mV'
0.000,-0.028
0.001,-0.025
0.002,-0.022
0.003,-0.019
0.004,-0.016
0.005,-0.012
0.006,-0.012
0.007,-0.012
0.008,-0.014
0.009,-0.016
0.010,-0.017
0.011,-0.019
0.012,-0.019
0.013,-0.019
0.014,-0.018
0.015,-0.016
0.016,-0.017
0.017,-0.019
0.018,-0.016
0.019,-0.012
0.020,-0.011
0.021,-0.009
0.022,-0.009
0.023,-0.009
0.024,-0.011
0.025,-0.012
0.026,-0.012
0.027,-0.012
0.028,-0.012
0.029,-0.012
0.030,-0.011
0.031,-0.009
0.032,-0.011
0.033,-0.012
0.034,-0.012
0.035,-0.012
0.036,-0.012
0.037,-0.012
0.038,-0.008
0.039,-0.003
0.040,-0.003
0.041,-0.003
0.042,-0.003
0.043,-0.003
0.044,-0.004
0.045,-0.006
0.046,-0.006
0.047,-0.006
0.048,-0.006
0.049,-0.006
0.050,-0.003
0.051,0.000
0.052,0.000
0.053,0.000
0.054,0.000
0.055,0.000
0.056,0.001
0.057,0.003
0.058,0.004
0.059,0.006
0.060,0.006
0.061,0.006
0.062,0.008
0.063,0.009
0.064,0.009
0.065,0.009
0.066,0.009
0.067,0.009
0.068,0.008
0.069,0.006
0.070,0.006
0.071,0.006
0.072,0.008
0.073,0.009
0.074,0.009
0.075,0.009
0.076,0.008
0.077,0.006
0.078,0.008
0.079,0.009
0.080,0.008
0.081,0.006
0.082,0.006
0.083,0.006
0.084,0.005
0.085,0.003
0.086,0.008
0.087,0.012
0.088,0.011
0.089,0.009
0.090,0.009
0.091,0.009
0.092,0.008
0.093,0.006
0.094,0.005
0.095,0.003
0.096,0.003
0.097,0.003
0.098,0.003
0.099,0.003
0.100,0.003
0.101,0.003
0.102,0.003
0.103,0.003
0.104,0.004
0.105,0.006
0.106,0.006
0.107,0.006
0.108,0.006
0.109,0.006
0.110,0.008
0.111,0.009
0.112,0.009
0.113,0.009
0.114,0.009
0.115,0.009
0.116,0.009
0.117,0.009
0.118,0.011
0.119,0.012
0.120,0.012
0.121,0.012
0.122,0.011
0.123,0.009
0.124,0.009
0.125,0.009
0.126,0.008
0.127,0.006
0.128,0.006
0.129,0.006
0.130,0.006
0.131,0.006
0.132,0.006
0.133,0.006
0.134,0.011
0.135,0.016
0.136,0.017
0.137,0.019
0.138,0.020
0.139,0.022
0.140,0.022
0.141,0.022
0.142,0.022
0.143,0.022
0.144,0.021
0.145,0.019
0.146,0.018
0.147,0.016
0.148,0.019
0.149,0.022
0.150,0.025
0.151,0.028
0.152,0.028
0.153,0.028
0.154,0.028
0.155,0.028
0.156,0.029
0.157,0.031
0.158,0.031
0.159,0.031
0.160,0.031
0.161,0.031
0.162,0.032
0.163,0.034
0.164,0.038
0.165,0.041
0.166,0.041
0.167,0.041
0.168,0.044
0.169,0.047
0.170,0.050
0.171,0.053
0.172,0.056
0.173,0.059
0.174,0.059
0.175,0.059
0.176,0.066
0.177,0.072
0.178,0.075
0.179,0.078
0.180,0.081
0.181,0.084
0.182,0.084
0.183,0.084
0.184,0.084
0.185,0.084
0.186,0.087
0.187,0.091
0.188,0.095
0.189,0.100
0.190,0.099
0.191,0.097
0.192,0.096
0.193,0.094
0.194,0.095
0.195,0.097
0.196,0.100
0.197,0.103
0.198,0.107
0.199,0.113
0.200,0.117
0.201,0.122
0.202,0.122
0.203,0.122
0.204,0.122
0.205,0.122
0.206,0.122
0.207,0.122
0.208,0.122
0.209,0.122
0.210,0.122
0.211,0.122
0.212,0.125
0.213,0.128
0.214,0.128
0.215,0.128
0.216,0.128
0.217,0.128
0.218,0.127
0.219,0.125
0.220,0.125
0.221,0.125
0.222,0.124
0.223,0.122
0.224,0.121
0.225,0.119
0.226,0.119
0.227,0.119
0.228,0.117
0.229,0.116
0.230,0.113
0.231,0.109
0.232,0.113
0.233,0.116
0.234,0.116
0.235,0.116
0.236,0.116
0.237,0.116
0.238,0.111
0.239,0.106
0.240,0.106
0.241,0.106
0.242,0.103
0.243,0.100
0.244,0.099
0.245,0.097
0.246,0.094
0.247,0.091
0.248,0.091
0.249,0.091
0.250,0.091
0.251,0.091
0.252,0.089
0.253,0.087
0.254,0.086
0.255,0.084
0.256,0.084
0.257,0.084
0.258,0.083
0.259,0.081
0.260,0.078
0.261,0.075
0.262,0.074
0.263,0.072
0.264,0.066
0.265,0.059
0.266,0.056
0.267,0.053
0.268,0.052
0.269,0.050
0.270,0.050
0.271,0.050
0.272,0.051
0.273,0.053
0.274,0.053
0.275,0.053
0.276,0.053
0.277,0.053
0.278,0.050
0.279,0.047
0.280,0.047
0.281,0.047
0.282,0.046
0.283,0.044
0.284,0.039
0.285,0.034
0.286,0.034
0.287,0.034
0.288,0.033
0.289,0.031
0.290,0.031
0.291,0.031
0.292,0.028
0.293,0.025
0.294,0.024
0.295,0.022
0.296,0.019
0.297,0.016
0.298,0.016
0.299,0.016
0.300,0.019
0.301,0.022
0.302,0.021
0.303,0.019
0.304,0.019
0.305,0.019
0.306,0.019
0.307,0.019
0.308,0.018
0.309,0.016
0.310,0.012
0.311,0.009
0.312,0.009
0.313,0.009
0.314,0.010
0.315,0.009
0.316,0.006
0.317,0.006
0.318,0.011
0.319,0.012
0.320,0.011
0.321,0.009
0.322,0.009
0.323,0.009
0.324,0.011
0.325,0.012
0.326,0.012
0.327,0.012
0.328,0.012
0.329,0.012
0.330,0.014
0.331,0.012
0.332,0.012
0.333,0.009
0.334,0.006
0.335,0.006
0.336,0.006
0.337,0.006
0.338,0.004
0.339,0.003
0.340,0.001
0.341,0.006
0.342,0.006
0.343,0.006
0.344,0.006
0.345,0.006
0.346,0.000
0.347,-0.003
0.348,-0.002
0.349,0.000
0.350,0.004
0.351,0.009
0.352,0.005
0.353,0.003
0.354,0.003
0.355,0.000
0.356,0.002
0.357,0.000
0.358,0.001
0.359,0.003
0.360,-0.001
0.361,-0.003
0.362,-0.008
0.363,-0.009
0.364,-0.009
0.365,-0.009
0.366,-0.011
0.367,-0.009
0.368,-0.008
0.369,-0.006
0.370,-0.002
0.371,0.000
0.372,-0.003
0.373,-0.003
0.374,-0.003
0.375,-0.006
0.376,-0.006
0.377,-0.006
0.378,-0.009
0.379,-0.012
0.380,-0.011
0.381,-0.012
0.382,-0.009
0.383,-0.009
0.384,-0.014
0.385,-0.012
0.386,-0.009
0.387,-0.012
0.388,-0.012
0.389,-0.012
0.390,-0.011
0.391,-0.009
0.392,-0.009
0.393,-0.012
0.394,-0.012
0.395,-0.012
0.396,-0.014
0.397,-0.016
0.398,-0.014
0.399,-0.012
0.400,-0.016
0.401,-0.016
0.402,-0.017
0.403,-0.016
0.404,-0.016
0.405,-0.016
0.406,-0.016
0.407,-0.016
0.408,-0.017
0.409,-0.022
0.410,-0.022
0.411,-0.022
0.412,-0.025
0.413,-0.025
0.414,-0.022
0.415,-0.022
0.416,-0.021
0.417,-0.022
0.418,-0.023
0.419,-0.025
0.420,-0.026
0.421,-0.031
0.422,-0.029
0.423,-0.031
0.424,-0.031
0.425,-0.028
0.426,-0.028
0.427,-0.028
0.428,-0.028
0.429,-0.028
0.430,-0.028
0.431,-0.028
0.432,-0.032
0.433,-0.031
0.434,-0.031
0.435,-0.034
0.436,-0.036
0.437,-0.038
0.438,-0.033
0.439,-0.034
0.440,-0.039
0.441,-0.038
0.442,-0.036
0.443,-0.038
0.444,-0.038
0.445,-0.038
0.446,-0.038
0.447,-0.038
0.448,-0.038
0.449,-0.038
0.450,-0.038
0.451,-0.038
0.452,-0.034
0.453,-0.034
0.454,-0.031
0.455,-0.034
0.456,-0.034
0.457,-0.031
0.458,-0.031
0.459,-0.031
0.460,-0.034
0.461,-0.034
0.462,-0.036
0.463,-0.038
0.464,-0.044
0.465,-0.047
0.466,-0.043
0.467,-0.041
0.468,-0.041
0.469,-0.038
0.470,-0.036
0.471,-0.038
0.472,-0.041
0.473,-0.044
0.474,-0.043
0.475,-0.038
0.476,-0.034
0.477,-0.034
0.478,-0.032
0.479,-0.034
0.480,-0.034
0.481,-0.038
0.482,-0.038
0.483,-0.044
0.484,-0.047
0.485,-0.047
0.486,-0.050
0.487,-0.053
0.488,-0.052
0.489,-0.050
0.490,-0.049
0.491,-0.047
0.492,-0.044
0.493,-0.047
0.494,-0.047
0.495,-0.047
0.496,-0.047
0.497,-0.047
0.498,-0.050
0.499,-0.050
0.500,-0.050
0.501,-0.047
0.502,-0.044
0.503,-0.044
0.504,-0.044
0.505,-0.044
0.506,-0.047
0.507,-0.050
0.508,-0.050
0.509,-0.053
0.510,-0.056
0.511,-0.056
0.512,-0.059
0.513,-0.056
0.514,-0.056
0.515,-0.056
0.516,-0.052
0.517,-0.050
0.518,-0.049
0.519,-0.050
0.520,-0.053
0.521,-0.050
0.522,-0.054
0.523,-0.053
0.524,-0.052
0.525,-0.050
0.526,-0.054
0.527,-0.056
0.528,-0.055
0.529,-0.053
0.530,-0.051
0.531,-0.053
0.532,-0.053
0.533,-0.053
0.534,-0.052
0.535,-0.053
0.536,-0.058
0.537,-0.056
0.538,-0.056
0.539,-0.056
0.540,-0.055
0.541,-0.053
0.542,-0.053
0.543,-0.053
0.544,-0.052
0.545,-0.056
0.546,-0.056
0.547,-0.056
0.548,-0.054
0.549,-0.056
0.550,-0.056
0.551,-0.056
0.552,-0.056
0.553,-0.053
0.554,-0.055
0.555,-0.053
0.556,-0.050
0.557,-0.050
0.558,-0.050
0.559,-0.050
0.560,-0.050
0.561,-0.050
0.562,-0.058
0.563,-0.063
0.564,-0.059
0.565,-0.056
0.566,-0.053
0.567,-0.050
0.568,-0.053
0.569,-0.056
0.570,-0.058
0.571,-0.059
0.572,-0.061
0.573,-0.063
0.574,-0.063
0.575,-0.063
0.576,-0.063
0.577,-0.059
0.578,-0.064
0.579,-0.066
0.580,-0.067
0.581,-0.066
0.582,-0.064
0.583,-0.059
0.584,-0.058
0.585,-0.053
0.586,-0.053
0.587,-0.056
0.588,-0.052
0.589,-0.053
0.590,-0.053
0.591,-0.053
0.592,-0.054
0.593,-0.056
0.594,-0.058
0.595,-0.059
0.596,-0.061
0.597,-0.063
0.598,-0.061
0.599,-0.059
0.600,-0.055
0.601,-0.053
0.602,-0.056
0.603,-0.056
0.604,-0.053
0.605,-0.056
0.606,-0.056
0.607,-0.056
0.608,-0.056
0.609,-0.056
0.610,-0.056
0.611,-0.056
0.612,-0.055
0.613,-0.050
0.614,-0.054
0.615,-0.053
0.616,-0.049
0.617,-0.047
0.618,-0.044
0.619,-0.038
0.620,-0.036
0.621,-0.031
0.622,-0.027
0.623,-0.022
0.624,-0.020
0.625,-0.022
0.626,-0.019
0.627,-0.019
0.628,-0.020
0.629,-0.019
0.630,-0.020
0.631,-0.019
0.632,-0.014
0.633,-0.009
0.634,-0.017
0.635,-0.016
0.636,-0.016
0.637,-0.016
0.638,-0.012
0.639,-0.012
0.640,-0.011
0.641,-0.006
0.642,0.000
0.643,0.003
0.644,0.011
0.645,0.019
0.646,0.034
0.647,0.050
0.648,0.072
0.649,0.091
0.650,0.107
0.651,0.122
0.652,0.134
0.653,0.137
0.654,0.134
0.655,0.134
0.656,0.131
0.657,0.134
0.658,0.137
0.659,0.141
0.660,0.141
0.661,0.141
0.662,0.136
0.663,0.131
0.664,0.131
0.665,0.125
0.666,0.122
0.667,0.119
0.668,0.114
0.669,0.106
0.670,0.103
0.671,0.100
0.672,0.098
0.673,0.100
0.674,0.091
0.675,0.081
0.676,0.074
0.677,0.062
0.678,0.056
0.679,0.053
0.680,0.056
0.681,0.059
0.682,0.064
0.683,0.062
0.684,0.064
0.685,0.062
0.686,0.061
0.687,0.062
0.688,0.066
0.689,0.072
0.690,0.079
0.691,0.081
0.692,0.075
0.693,0.066
0.694,0.058
0.695,0.050
0.696,0.038
0.697,0.031
0.698,0.022
0.699,0.009
0.700,0.002
0.701,-0.003
0.702,-0.008
0.703,-0.009
0.704,-0.009
0.705,-0.012
0.706,-0.017
0.707,-0.022
0.708,-0.026
0.709,-0.038
0.710,-0.047
0.711,-0.053
0.712,-0.059
0.713,-0.056
0.714,-0.058
0.715,-0.056
0.716,-0.059
0.717,-0.059
0.718,-0.061
0.719,-0.066
0.720,-0.064
0.721,-0.066
0.722,-0.066
0.723,-0.066
0.724,-0.066
0.725,-0.066
0.726,-0.069
0.727,-0.069
0.728,-0.068
0.729,-0.066
0.730,-0.070
0.731,-0.072
0.732,-0.071
0.733,-0.072
0.734,-0.073
0.735,-0.078
0.736,-0.083
0.737,-0.084
0.738,-0.084
0.739,-0.084
0.740,-0.083
0.741,-0.084
0.742,-0.087
0.743,-0.087
0.744,-0.086
0.745,-0.087
0.746,-0.087
0.747,-0.087
0.748,-0.091
0.749,-0.094
0.750,-0.091
0.751,-0.091
0.752,-0.095
0.753,-0.097
0.754,-0.097
0.755,-0.097
0.756,-0.093
0.757,-0.094
0.758,-0.094
0.759,-0.094
0.760,-0.094
0.761,-0.091
0.762,-0.089
0.763,-0.087
0.764,-0.091
0.765,-0.087
0.766,-0.087
0.767,-0.087
0.768,-0.086
0.769,-0.087
0.770,-0.086
0.771,-0.087
0.772,-0.086
0.773,-0.087
0.774,-0.094
0.775,-0.103
0.776,-0.111
0.777,-0.125
0.778,-0.141
0.779,-0.147
0.780,-0.144
0.781,-0.141
0.782,-0.133
0.783,-0.122
0.784,-0.100
0.785,-0.072
0.786,-0.047
0.787,-0.022
0.788,0.011
0.789,0.028
0.790,0.042
0.791,0.069
0.792,0.087
0.793,0.113
0.794,0.157
0.795,0.213
0.796,0.275
0.797,0.347
0.798,0.414
0.799,0.484
0.800,0.550
0.801,0.616
0.802,0.695
0.803,0.775
0.804,0.836
0.805,0.850
0.806,0.839
0.807,0.841
0.808,0.841
0.809,0.881
0.810,0.939
0.811,0.991
0.812,1.005
0.813,0.956
0.814,0.869
0.815,0.741
0.816,0.597
0.817,0.453
0.818,0.311
0.819,0.206
0.820,0.136
0.821,0.081
0.822,0.041
0.823,0.012
0.824,0.004
0.825,0.000
0.826,-0.018
0.827,-0.038
0.828,-0.064
0.829,-0.087
0.830,-0.097
0.831,-0.100
0.832,-0.098
0.833,-0.100
0.834,-0.096
0.835,-0.091
0.836,-0.084
0.837,-0.066
0.838,-0.047
0.839,-0.028
0.840,-0.016
0.841,-0.003
0.842,0.006
0.843,0.016
0.844,0.029
0.845,0.031
0.846,0.028
0.847,0.025
0.848,0.017
0.849,0.009
0.850,0.002
0.851,-0.006
0.852,-0.020
0.853,-0.028
0.854,-0.031
0.855,-0.031
0.856,-0.031
0.857,-0.034
0.858,-0.041
0.859,-0.044
0.860,-0.041
0.861,-0.038
0.862,-0.034
0.863,-0.031
0.864,-0.034
0.865,-0.034
0.866,-0.038
0.867,-0.041
0.868,-0.044
0.869,-0.050
0.870,-0.050
0.871,-0.050
0.872,-0.052
0.873,-0.050
0.874,-0.050
0.875,-0.050
0.876,-0.048
0.877,-0.050
0.878,-0.047
0.879,-0.050
0.880,-0.050
0.881,-0.050
0.882,-0.051
0.883,-0.053
0.884,-0.050
0.885,-0.050
0.886,-0.050
0.887,-0.050
0.888,-0.058
0.889,-0.063
0.890,-0.064
0.891,-0.059
0.892,-0.055
0.893,-0.056
0.894,-0.053
0.895,-0.050
0.896,-0.050
0.897,-0.050
0.898,-0.050
0.899,-0.050
0.900,-0.051
0.901,-0.053
0.902,-0.054
0.903,-0.053
0.904,-0.056
0.905,-0.056
0.906,-0.059
0.907,-0.063
0.908,-0.054
0.909,-0.056
0.910,-0.055
0.911,-0.053
0.912,-0.055
0.913,-0.053
0.914,-0.047
0.915,-0.044
0.916,-0.044
0.917,-0.044
0.918,-0.043
0.919,-0.041
0.920,-0.043
0.921,-0.041
0.922,-0.038
0.923,-0.038
0.924,-0.039
0.925,-0.044
0.926,-0.048
0.927,-0.053
0.928,-0.047
0.929,-0.044
0.930,-0.046
0.931,-0.041
0.932,-0.041
0.933,-0.044
0.934,-0.045
0.935,-0.050
0.936,-0.050
0.937,-0.050
0.938,-0.049
0.939,-0.047
0.940,-0.044
0.941,-0.044
0.942,-0.044
0.943,-0.044
0.944,-0.045
0.945,-0.047
0.946,-0.047
0.947,-0.044
0.948,-0.043
0.949,-0.044
0.950,-0.044
0.951,-0.044
0.952,-0.044
0.953,-0.047
0.954,-0.045
0.955,-0.047
0.956,-0.047
0.957,-0.047
0.958,-0.050
0.959,-0.053
0.960,-0.053
0.961,-0.053
0.962,-0.050
0.963,-0.047
0.964,-0.048
0.965,-0.050
0.966,-0.047
0.967,-0.047
0.968,-0.049
0.969,-0.044
0.970,-0.042
0.971,-0.044
0.972,-0.047
0.973,-0.047
0.974,-0.045
0.975,-0.044
0.976,-0.041
0.977,-0.038
0.978,-0.042
0.979,-0.041
0.980,-0.041
0.981,-0.041
0.982,-0.039
0.983,-0.038
0.984,-0.039
0.985,-0.034
0.986,-0.033
0.987,-0.031
0.988,-0.029
0.989,-0.031
0.990,-0.032
0.991,-0.031
0.992,-0.032
0.993,-0.031
0.994,-0.031
0.995,-0.031
0.996,-0.032
0.997,-0.034
0.998,-0.031
0.999,-0.031
1.000,-0.027
1.001,-0.019
1.002,-0.020
1.003,-0.022
1.004,-0.025
1.005,-0.025
1.006,-0.024
1.007,-0.025
1.008,-0.022
1.009,-0.022
1.010,-0.018
1.011,-0.016
1.012,-0.016
1.013,-0.016
1.014,-0.017
1.015,-0.019
1.016,-0.019
1.017,-0.019
1.018,-0.025
1.019,-0.028
1.020,-0.028
1.021,-0.031
1.022,-0.031
1.023,-0.031
1.024,-0.029
1.025,-0.028
1.026,-0.032
1.027,-0.031
1.028,-0.031
1.029,-0.031
1.030,-0.030
1.031,-0.028
1.032,-0.024
1.033,-0.019
1.034,-0.019
1.035,-0.019
1.036,-0.018
1.037,-0.016
1.038,-0.016
1.039,-0.016
1.040,-0.016
1.041,-0.016
1.042,-0.014
1.043,-0.016
1.044,-0.020
1.045,-0.022
1.046,-0.023
1.047,-0.025
1.048,-0.025
1.049,-0.025
1.050,-0.022
1.051,-0.025
1.052,-0.025
1.053,-0.025
1.054,-0.025
1.055,-0.025
1.056,-0.026
1.057,-0.025
1.058,-0.031
1.059,-0.031
1.060,-0.034
1.061,-0.041
1.062,-0.041
1.063,-0.041
1.064,-0.038
1.065,-0.038
1.066,-0.033
1.067,-0.031
1.068,-0.031
1.069,-0.031
1.070,-0.031
1.071,-0.028
1.072,-0.027
1.073,-0.028
1.074,-0.029
1.075,-0.031
1.076,-0.032
1.077,-0.031
1.078,-0.031
1.079,-0.028
1.080,-0.028
1.081,-0.028
1.082,-0.029
1.083,-0.031
1.084,-0.031
1.085,-0.031
1.086,-0.032
1.087,-0.034
1.088,-0.036
1.089,-0.038
1.090,-0.036
1.091,-0.034
1.092,-0.034
1.093,-0.031
1.094,-0.030
1.095,-0.028
1.096,-0.031
1.097,-0.028
1.098,-0.028
1.099,-0.028
1.100,-0.026
1.101,-0.028
1.102,-0.028
1.103,-0.028
1.104,-0.029
1.105,-0.031
1.106,-0.032
1.107,-0.031
1.108,-0.031
1.109,-0.031
1.110,-0.030
1.111,-0.028
1.112,-0.027
1.113,-0.022
1.114,-0.022
1.115,-0.022
1.116,-0.019
1.117,-0.016
1.118,-0.017
1.119,-0.019
1.120,-0.020
1.121,-0.028
1.122,-0.023
1.123,-0.022
1.124,-0.024
1.125,-0.022
1.126,-0.019
1.127,-0.016
1.128,-0.012
1.129,-0.012
1.130,-0.006
1.131,-0.003
1.132,-0.001
1.133,0.000
1.134,0.003
1.135,0.003
1.136,0.002
1.137,0.003
1.138,0.003
1.139,0.006
1.140,0.008
1.141,0.009
1.142,0.008
1.143,0.009
1.144,0.009
1.145,0.012
1.146,0.006
1.147,0.006
1.148,0.014
1.149,0.016
1.150,0.016
1.151,0.019
1.152,0.022
1.153,0.022
1.154,0.026
1.155,0.031
1.156,0.038
1.157,0.044
1.158,0.045
1.159,0.050
1.160,0.056
1.161,0.053
1.162,0.049
1.163,0.050
1.164,0.056
1.165,0.056
1.166,0.053
1.167,0.059
1.168,0.062
1.169,0.062
1.170,0.062
1.171,0.062
1.172,0.062
1.173,0.062
1.174,0.061
1.175,0.059
1.176,0.056
1.177,0.053
1.178,0.056
1.179,0.059
1.180,0.062
1.181,0.069
1.182,0.068
1.183,0.066
1.184,0.067
1.185,0.066
1.186,0.066
1.187,0.066
1.188,0.066
1.189,0.062
1.190,0.058
1.191,0.059
1.192,0.061
1.193,0.062
1.194,0.061
1.195,0.059
1.196,0.056
1.197,0.053
1.198,0.054
1.199,0.056
1.200,0.058
1.201,0.059
1.202,0.062
1.203,0.062
1.204,0.061
1.205,0.056
1.206,0.055
1.207,0.053
1.208,0.050
1.209,0.050
1.210,0.047
1.211,0.047
1.212,0.047
1.213,0.047
1.214,0.039
1.215,0.034
1.216,0.036
1.217,0.038
1.218,0.038
1.219,0.041
1.220,0.041
1.221,0.038
1.222,0.034
1.223,0.031
1.224,0.028
1.225,0.028
1.226,0.029
1.227,0.028
1.228,0.025
1.229,0.025
1.230,0.019
1.231,0.009
1.232,0.006
1.233,0.006
1.234,0.009
1.235,0.016
1.236,0.011
1.237,0.009
1.238,0.009
1.239,0.009
1.240,0.009
1.241,0.009
1.242,0.012
1.243,0.009
1.244,0.005
1.245,0.003
1.246,0.000
1.247,0.000
1.248,0.001
1.249,0.000
1.250,0.001
1.251,0.000
1.252,0.004
1.253,0.003
1.254,-0.004
1.255,-0.016
1.256,-0.014
1.257,-0.016
1.258,-0.019
1.259,-0.019
1.260,-0.016
1.261,-0.012
1.262,-0.012
1.263,-0.012
1.264,-0.009
1.265,-0.009
1.266,-0.012
1.267,-0.012
1.268,-0.009
1.269,-0.012
1.270,-0.012
1.271,-0.012
1.272,-0.016
1.273,-0.016
1.274,-0.016
1.275,-0.016
1.276,-0.017
1.277,-0.022
1.278,-0.023
1.279,-0.025
1.280,-0.025
1.281,-0.025
1.282,-0.025
1.283,-0.028
1.284,-0.027
1.285,-0.025
1.286,-0.026
1.287,-0.028
1.288,-0.025
1.289,-0.028
1.290,-0.030
1.291,-0.028
1.292,-0.028
1.293,-0.028
1.294,-0.032
1.295,-0.031
1.296,-0.030
1.297,-0.028
1.298,-0.030
1.299,-0.028
1.300,-0.025
1.301,-0.019
1.302,-0.023
1.303,-0.028
1.304,-0.025
1.305,-0.025
1.306,-0.026
1.307,-0.028
1.308,-0.027
1.309,-0.028
1.310,-0.026
1.311,-0.028
1.312,-0.028
1.313,-0.028
1.314,-0.029
1.315,-0.028
1.316,-0.030
1.317,-0.028
1.318,-0.024
1.319,-0.019
1.320,-0.019
1.321,-0.019
1.322,-0.022
1.323,-0.025
1.324,-0.025
1.325,-0.025
1.326,-0.028
1.327,-0.028
1.328,-0.028
1.329,-0.028
1.330,-0.027
1.331,-0.025
1.332,-0.029
1.333,-0.028
1.334,-0.027
1.335,-0.028
1.336,-0.028
1.337,-0.028
1.338,-0.028
1.339,-0.028
1.340,-0.028
1.341,-0.028
1.342,-0.031
1.343,-0.034
1.344,-0.034
1.345,-0.034
1.346,-0.034
1.347,-0.034
1.348,-0.033
1.349,-0.034
1.350,-0.031
1.351,-0.028
1.352,-0.029
1.353,-0.028
1.354,-0.032
1.355,-0.031
1.356,-0.031
1.357,-0.034
1.358,-0.042
1.359,-0.044
1.360,-0.046
1.361,-0.044
1.362,-0.046
1.363,-0.041
1.364,-0.036
1.365,-0.034
1.366,-0.036
1.367,-0.034
1.368,-0.031
1.369,-0.034
1.370,-0.038
1.371,-0.038
1.372,-0.036
1.373,-0.034
1.374,-0.030
1.375,-0.028
1.376,-0.032
1.377,-0.038
1.378,-0.042
1.379,-0.047
1.380,-0.050
1.381,-0.050
1.382,-0.053
1.383,-0.053
1.384,-0.052
1.385,-0.050
1.386,-0.050
1.387,-0.050
1.388,-0.050
1.389,-0.050
1.390,-0.050
1.391,-0.050
1.392,-0.049
1.393,-0.044
1.394,-0.043
1.395,-0.044
1.396,-0.044
1.397,-0.047
1.398,-0.044
1.399,-0.044
1.400,-0.047
1.401,-0.047
1.402,-0.053
1.403,-0.059
1.404,-0.055
1.405,-0.056
1.406,-0.058
1.407,-0.053
1.408,-0.055
1.409,-0.050
1.410,-0.050
1.411,-0.050
1.412,-0.049
1.413,-0.050
1.414,-0.051
1.415,-0.053
1.416,-0.053
1.417,-0.053
1.418,-0.053
1.419,-0.053
1.420,-0.054
1.421,-0.059
1.422,-0.059
1.423,-0.059
1.424,-0.056
1.425,-0.056
1.426,-0.061
1.427,-0.063
1.428,-0.059
1.429,-0.056
1.430,-0.058
1.431,-0.059
1.432,-0.055
1.433,-0.056
1.434,-0.061
1.435,-0.063
1.436,-0.061
1.437,-0.059
1.438,-0.052
1.439,-0.053
1.440,-0.052
1.441,-0.050
1.442,-0.051
1.443,-0.053
1.444,-0.053
1.445,-0.053
1.446,-0.053
1.447,-0.053
1.448,-0.052
1.449,-0.053
1.450,-0.053
1.451,-0.056
1.452,-0.063
1.453,-0.063
1.454,-0.059
1.455,-0.059
1.456,-0.059
1.457,-0.059
1.458,-0.054
1.459,-0.056
1.460,-0.055
1.461,-0.056
1.462,-0.061
1.463,-0.066
1.464,-0.063
1.465,-0.066
1.466,-0.063
1.467,-0.056
1.468,-0.058
1.469,-0.056
1.470,-0.055
1.471,-0.056
1.472,-0.058
1.473,-0.063
1.474,-0.059
1.475,-0.059
1.476,-0.066
1.477,-0.066
1.478,-0.066
1.479,-0.066
1.480,-0.068
1.481,-0.066
1.482,-0.061
1.483,-0.056
1.484,-0.055
1.485,-0.053
1.486,-0.054
1.487,-0.053
1.488,-0.050
1.489,-0.050
1.490,-0.050
1.491,-0.050
1.492,-0.051
1.493,-0.053
1.494,-0.053
1.495,-0.059
1.496,-0.064
1.497,-0.069
1.498,-0.067
1.499,-0.069
1.500,-0.063
1.501,-0.063
1.502,-0.061
1.503,-0.059
1.504,-0.063
1.505,-0.059
1.506,-0.063
1.507,-0.063
1.508,-0.063
1.509,-0.063
1.510,-0.059
1.511,-0.056
1.512,-0.055
1.513,-0.053
1.514,-0.052
1.515,-0.050
1.516,-0.051
1.517,-0.050
1.518,-0.053
1.519,-0.059
1.520,-0.063
1.521,-0.063
1.522,-0.066
1.523,-0.066
1.524,-0.066
1.525,-0.066
1.526,-0.066
1.527,-0.066
1.528,-0.061
1.529,-0.056
1.530,-0.054
1.531,-0.056
1.532,-0.051
1.533,-0.050
1.534,-0.051
1.535,-0.047
1.536,-0.039
1.537,-0.038
1.538,-0.031
1.539,-0.028
1.540,-0.022
1.541,-0.016
1.542,-0.016
1.543,-0.012
1.544,-0.012
1.545,-0.012
1.546,-0.005
1.547,0.000
1.548,0.003
1.549,0.003
1.550,0.004
1.551,0.000
1.552,0.004
1.553,0.006
1.554,0.006
1.555,0.009
1.556,0.009
1.557,0.009
1.558,0.005
1.559,0.006
1.560,0.006
1.561,0.009
1.562,0.018
1.563,0.031
1.564,0.042
1.565,0.059
1.566,0.086
1.567,0.106
1.568,0.120
1.569,0.134
1.570,0.134
1.571,0.131
1.572,0.131
1.573,0.128
1.574,0.130
1.575,0.131
1.576,0.139
1.577,0.147
1.578,0.151
1.579,0.150
1.580,0.151
1.581,0.156
1.582,0.153
1.583,0.153
1.584,0.151
1.585,0.147
1.586,0.141
1.587,0.141
1.588,0.134
1.589,0.128
1.590,0.129
1.591,0.125
1.592,0.114
1.593,0.103
1.594,0.089
1.595,0.084
1.596,0.084
1.597,0.081
1.598,0.080
1.599,0.081
1.600,0.079
1.601,0.081
1.602,0.078
1.603,0.075
1.604,0.074
1.605,0.072
1.606,0.078
1.607,0.084
1.608,0.084
1.609,0.084
1.610,0.084
1.611,0.078
1.612,0.069
1.613,0.059
1.614,0.050
1.615,0.041
1.616,0.028
1.617,0.019
1.618,0.014
1.619,0.006
1.620,0.004
1.621,0.006
1.622,0.002
1.623,-0.003
1.624,-0.006
1.625,-0.009
1.626,-0.022
1.627,-0.031
1.628,-0.033
1.629,-0.038
1.630,-0.039
1.631,-0.047
1.632,-0.048
1.633,-0.053
1.634,-0.052
1.635,-0.050
1.636,-0.052
1.637,-0.050
1.638,-0.052
1.639,-0.050
1.640,-0.051
1.641,-0.053
1.642,-0.054
1.643,-0.059
1.644,-0.056
1.645,-0.053
1.646,-0.053
1.647,-0.056
1.648,-0.056
1.649,-0.056
1.650,-0.061
1.651,-0.063
1.652,-0.064
1.653,-0.066
1.654,-0.067
1.655,-0.069
1.656,-0.070
1.657,-0.072
1.658,-0.075
1.659,-0.078
1.660,-0.079
1.661,-0.078
1.662,-0.075
1.663,-0.075
1.664,-0.079
1.665,-0.081
1.666,-0.083
1.667,-0.081
1.668,-0.080
1.669,-0.081
1.670,-0.081
1.671,-0.081
1.672,-0.080
1.673,-0.075
1.674,-0.079
1.675,-0.081
1.676,-0.081
1.677,-0.081
1.678,-0.079
1.679,-0.081
1.680,-0.080
1.681,-0.081
1.682,-0.079
1.683,-0.081
1.684,-0.080
1.685,-0.075
1.686,-0.076
1.687,-0.075
1.688,-0.074
1.689,-0.072
1.690,-0.071
1.691,-0.072
1.692,-0.083
1.693,-0.091
1.694,-0.104
1.695,-0.116
1.696,-0.123
1.697,-0.122
1.698,-0.114
1.699,-0.106
1.700,-0.093
1.701,-0.075
1.702,-0.049
1.703,-0.019
1.704,0.011
1.705,0.044
1.706,0.056
1.707,0.066
1.708,0.091
1.709,0.119
1.710,0.151
1.711,0.191
1.712,0.239
1.713,0.297
1.714,0.362
1.715,0.431
1.716,0.502
1.717,0.562
1.718,0.621
1.719,0.691
1.720,0.792
1.721,0.875
1.722,0.878
1.723,0.872
1.724,0.844
1.725,0.834
1.726,0.878
1.727,0.909
1.728,0.959
1.729,0.991
1.730,0.969
1.731,0.894
1.732,0.767
1.733,0.612
1.734,0.463
1.735,0.325
1.736,0.205
1.737,0.119
1.738,0.068
1.739,0.022
1.740,-0.006
1.741,-0.031
1.742,-0.039
1.743,-0.044
1.744,-0.063
1.745,-0.081
1.746,-0.102
1.747,-0.113
1.748,-0.119
1.749,-0.113
1.750,-0.105
1.751,-0.100
1.752,-0.093
1.753,-0.081
1.754,-0.066
1.755,-0.047
1.756,-0.024
1.757,-0.006
1.758,0.009
1.759,0.019
1.760,0.032
1.761,0.050
1.762,0.056
1.763,0.053
1.764,0.047
1.765,0.044
1.766,0.036
1.767,0.031
1.768,0.024
1.769,0.012
1.770,0.006
1.771,-0.003
1.772,-0.006
1.773,-0.009
1.774,-0.014
1.775,-0.016
1.776,-0.016
1.777,-0.016
1.778,-0.011
1.779,-0.006
1.780,-0.005
1.781,-0.006
1.782,-0.006
1.783,-0.009
1.784,-0.014
1.785,-0.016
1.786,-0.020
1.787,-0.022
1.788,-0.021
1.789,-0.022
1.790,-0.019
1.791,-0.016
1.792,-0.017
1.793,-0.016
1.794,-0.017
1.795,-0.016
1.796,-0.016
1.797,-0.012
1.798,-0.014
1.799,-0.016
1.800,-0.016
1.801,-0.016
1.802,-0.022
1.803,-0.025
1.804,-0.024
1.805,-0.025
1.806,-0.025
1.807,-0.028
1.808,-0.026
1.809,-0.025
1.810,-0.025
1.811,-0.022
1.812,-0.022
1.813,-0.022
1.814,-0.021
1.815,-0.019
1.816,-0.018
1.817,-0.016
1.818,-0.017
1.819,-0.019
1.820,-0.014
1.821,-0.016
1.822,-0.016
1.823,-0.016
1.824,-0.022
1.825,-0.019
1.826,-0.018
1.827,-0.019
1.828,-0.022
1.829,-0.025
1.830,-0.029
1.831,-0.031
1.832,-0.031
1.833,-0.031
1.834,-0.030
1.835,-0.028
1.836,-0.027
1.837,-0.028
1.838,-0.029
1.839,-0.028
1.840,-0.027
1.841,-0.025
1.842,-0.024
1.843,-0.019
1.844,-0.018
1.845,-0.012
1.846,-0.012
1.847,-0.016
1.848,-0.016
1.849,-0.016
1.850,-0.014
1.851,-0.012
1.852,-0.019
1.853,-0.022
1.854,-0.022
1.855,-0.022
1.856,-0.021
1.857,-0.019
1.858,-0.022
1.859,-0.022
1.860,-0.022
1.861,-0.022
1.862,-0.021
1.863,-0.019
1.864,-0.017
1.865,-0.019
1.866,-0.021
1.867,-0.019
1.868,-0.016
1.869,-0.012
1.870,-0.017
1.871,-0.016
1.872,-0.019
1.873,-0.022
1.874,-0.021
1.875,-0.019
1.876,-0.019
1.877,-0.019
1.878,-0.018
1.879,-0.016
1.880,-0.017
1.881,-0.019
1.882,-0.019
1.883,-0.016
1.884,-0.012
1.885,-0.012
1.886,-0.011
1.887,-0.009
1.888,-0.008
1.889,-0.009
1.890,-0.009
1.891,-0.006
1.892,-0.008
1.893,-0.012
1.894,-0.012
1.895,-0.016
1.896,-0.012
1.897,-0.012
1.898,-0.014
1.899,-0.016
1.900,-0.016
1.901,-0.019
1.902,-0.011
1.903,-0.006
1.904,-0.006
1.905,-0.003
1.906,-0.003
1.907,-0.003
1.908,-0.001
1.909,-0.003
1.910,-0.001
1.911,-0.003
1.912,-0.002
1.913,0.000
1.914,-0.003
1.915,-0.003
1.916,-0.004
1.917,-0.006
1.918,-0.003
1.919,-0.003
1.920,-0.002
1.921,0.000
1.922,0.000
1.923,-0.003
1.924,-0.008
1.925,-0.006
1.926,-0.008
1.927,-0.006
1.928,-0.005
1.929,-0.003
1.930,-0.004
1.931,-0.006
1.932,-0.006
1.933,-0.006
1.934,-0.005
1.935,-0.003
1.936,0.001
1.937,0.003
1.938,0.001
1.939,0.003
1.940,0.002
1.941,0.003
1.942,0.006
1.943,0.003
1.944,0.006
1.945,0.003
1.946,-0.003
1.947,-0.006
1.948,-0.006
1.949,-0.003
1.950,0.000
1.951,0.000
1.952,-0.001
1.953,-0.003
1.954,-0.003
1.955,-0.003
1.956,-0.002
1.957,0.000
1.958,-0.003
1.959,-0.003
1.960,-0.002
1.961,-0.003
1.962,-0.003
1.963,-0.003
1.964,-0.004
1.965,-0.006
1.966,-0.008
1.967,-0.006
1.968,-0.008
1.969,-0.006
1.970,-0.006
1.971,-0.006
1.972,-0.008
1.973,-0.009
1.974,-0.003
1.975,-0.003
1.976,0.000
1.977,0.000
1.978,-0.003
1.979,-0.003
1.980,-0.006
1.981,-0.006
1.982,-0.006
1.983,-0.006
1.984,-0.008
1.985,-0.006
1.986,-0.006
1.987,-0.006
1.988,-0.003
1.989,-0.003
1.990,-0.006
1.991,-0.006
1.992,-0.003
1.993,0.000
1.994,0.002
1.995,-0.003
1.996,-0.006
1.997,-0.009
1.998,-0.011
1.999,-0.012
2.000,-0.011
2.001,-0.009
2.002,-0.008
2.003,-0.006
2.004,-0.006
2.005,-0.006
2.006,-0.006
2.007,-0.006
2.008,-0.008
2.009,-0.009
2.010,-0.008
2.011,-0.009
2.012,-0.008
2.013,-0.009
2.014,-0.008
2.015,-0.009
2.016,-0.008
2.017,-0.003
2.018,-0.003
2.019,-0.003
2.020,-0.004
2.021,-0.006
2.022,-0.005
2.023,-0.003
2.024,0.000
2.025,0.000
2.026,-0.001
2.027,-0.003
2.028,-0.003
2.029,-0.003
2.030,-0.001
2.031,0.000
2.032,0.004
2.033,0.006
2.034,0.008
2.035,0.009
2.036,0.008
2.037,0.009
2.038,0.003
2.039,0.006
2.040,0.011
2.041,0.009
2.042,0.011
2.043,0.016
2.044,0.020
2.045,0.025
2.046,0.024
2.047,0.025
2.048,0.021
2.049,0.019
2.050,0.022
2.051,0.025
2.052,0.025
2.053,0.025
2.054,0.027
2.055,0.025
2.056,0.029
2.057,0.034
2.058,0.041
2.059,0.044
2.060,0.047
2.061,0.047
2.062,0.050
2.063,0.047
2.064,0.049
2.065,0.053
2.066,0.054
2.067,0.056
2.068,0.056
2.069,0.056
2.070,0.056
2.071,0.059
2.072,0.066
2.073,0.069
2.074,0.070
2.075,0.072
2.076,0.074
2.077,0.078
2.078,0.076
2.079,0.075
2.080,0.075
2.081,0.078
2.082,0.081
2.083,0.081
2.084,0.086
2.085,0.084
2.086,0.080
2.087,0.081
2.088,0.084
2.089,0.084
2.090,0.084
2.091,0.084
2.092,0.084
2.093,0.084
2.094,0.084
2.095,0.084
2.096,0.083
2.097,0.081
2.098,0.084
2.099,0.084
2.100,0.084
2.101,0.084
2.102,0.081
2.103,0.081
2.104,0.078
2.105,0.075
2.106,0.073
2.107,0.072
2.108,0.074
2.109,0.072
2.110,0.075
2.111,0.075
2.112,0.071
2.113,0.069
2.114,0.066
2.115,0.062
2.116,0.064
2.117,0.062
2.118,0.055
2.119,0.050
2.120,0.046
2.121,0.044
2.122,0.041
2.123,0.041
2.124,0.042
2.125,0.041
2.126,0.042
2.127,0.041
2.128,0.038
2.129,0.034
2.130,0.034
2.131,0.031
2.132,0.032
2.133,0.031
2.134,0.031
2.135,0.031
2.136,0.031
2.137,0.031
2.138,0.028
2.139,0.028
2.140,0.028
2.141,0.025
2.142,0.025
2.143,0.025
2.144,0.021
2.145,0.016
2.146,0.017
2.147,0.019
2.148,0.016
2.149,0.012
2.150,0.012
2.151,0.009
2.152,0.009
2.153,0.006
2.154,0.009
2.155,0.012
2.156,0.014
2.157,0.012
2.158,0.008
2.159,0.009
2.160,0.008
2.161,0.006
2.162,0.006
2.163,0.003
2.164,0.000
2.165,-0.003
2.166,-0.003
2.167,0.000
2.168,-0.004
2.169,-0.003
2.170,-0.006
2.171,-0.006
2.172,-0.009
2.173,-0.009
2.174,-0.009
2.175,-0.009
2.176,-0.011
2.177,-0.012
2.178,-0.012
2.179,-0.012
2.180,-0.014
2.181,-0.016
2.182,-0.018
2.183,-0.019
2.184,-0.019
2.185,-0.016
2.186,-0.019
2.187,-0.019
2.188,-0.019
2.189,-0.022
2.190,-0.021
2.191,-0.019
2.192,-0.019
2.193,-0.019
2.194,-0.023
2.195,-0.025
2.196,-0.025
2.197,-0.025
2.198,-0.024
2.199,-0.022
2.200,-0.024
2.201,-0.022
2.202,-0.022
2.203,-0.022
2.204,-0.022
2.205,-0.019
2.206,-0.022
2.207,-0.025
2.208,-0.025
2.209,-0.025
2.210,-0.025
2.211,-0.028
2.212,-0.026
2.213,-0.028
2.214,-0.028
2.215,-0.031
2.216,-0.031
2.217,-0.031
2.218,-0.029
2.219,-0.034
2.220,-0.038
2.221,-0.034
2.222,-0.034
2.223,-0.034
2.224,-0.034
2.225,-0.034
2.226,-0.038
2.227,-0.034
2.228,-0.034
2.229,-0.034
2.230,-0.038
2.231,-0.041
2.232,-0.038
2.233,-0.041
2.234,-0.039
2.235,-0.038
2.236,-0.036
2.237,-0.034
2.238,-0.036
2.239,-0.038
2.240,-0.036
2.241,-0.034
2.242,-0.033
2.243,-0.034
2.244,-0.036
2.245,-0.038
2.246,-0.041
2.247,-0.044
2.248,-0.044
2.249,-0.047
2.250,-0.045
2.251,-0.047
2.252,-0.049
2.253,-0.047
2.254,-0.047
2.255,-0.047
2.256,-0.047
2.257,-0.047
2.258,-0.044
2.259,-0.041
2.260,-0.041
2.261,-0.041
2.262,-0.042
2.263,-0.044
2.264,-0.047
2.265,-0.050
2.266,-0.053
2.267,-0.053
2.268,-0.054
2.269,-0.056
2.270,-0.053
2.271,-0.056
2.272,-0.053
2.273,-0.053
2.274,-0.053
2.275,-0.053
2.276,-0.049
2.277,-0.050
2.278,-0.050
2.279,-0.053
2.280,-0.053
2.281,-0.053
2.282,-0.053
2.283,-0.056
2.284,-0.058
2.285,-0.056
2.286,-0.059
2.287,-0.059
2.288,-0.056
2.289,-0.056
2.290,-0.055
2.291,-0.053
2.292,-0.056
2.293,-0.056
2.294,-0.056
2.295,-0.056
2.296,-0.056
2.297,-0.059
2.298,-0.059
2.299,-0.063
2.300,-0.066
2.301,-0.069
2.302,-0.069
2.303,-0.069
2.304,-0.069
2.305,-0.069
2.306,-0.069
2.307,-0.069
2.308,-0.069
2.309,-0.069
2.310,-0.066
2.311,-0.066
2.312,-0.068
2.313,-0.066
2.314,-0.070
2.315,-0.069
2.316,-0.069
2.317,-0.072
2.318,-0.072
2.319,-0.072
2.320,-0.073
2.321,-0.072
2.322,-0.074
2.323,-0.075
2.324,-0.072
2.325,-0.075
2.326,-0.073
2.327,-0.075
2.328,-0.074
2.329,-0.072
2.330,-0.074
2.331,-0.072
2.332,-0.072
2.333,-0.072
2.334,-0.072
2.335,-0.072
2.336,-0.072
2.337,-0.072
2.338,-0.075
2.339,-0.075
2.340,-0.075
2.341,-0.072
2.342,-0.073
2.343,-0.078
2.344,-0.077
2.345,-0.075
2.346,-0.076
2.347,-0.078
2.348,-0.078
2.349,-0.075
2.350,-0.075
2.351,-0.075
2.352,-0.078
2.353,-0.081
2.354,-0.084
2.355,-0.081
2.356,-0.084
2.357,-0.084
2.358,-0.083
2.359,-0.081
2.360,-0.080
2.361,-0.078
2.362,-0.075
2.363,-0.072
2.364,-0.075
2.365,-0.078
2.366,-0.083
2.367,-0.081
2.368,-0.080
2.369,-0.081
2.370,-0.078
2.371,-0.078
2.372,-0.081
2.373,-0.081
2.374,-0.086
2.375,-0.084
2.376,-0.083
2.377,-0.081
2.378,-0.083
2.379,-0.081
2.380,-0.080
2.381,-0.075
2.382,-0.078
2.383,-0.081
2.384,-0.084
2.385,-0.087
2.386,-0.086
2.387,-0.087
2.388,-0.089
2.389,-0.087
2.390,-0.091
2.391,-0.091
2.392,-0.094
2.393,-0.097
2.394,-0.097
2.395,-0.097
2.396,-0.094
2.397,-0.097
2.398,-0.097
2.399,-0.097
2.400,-0.094
2.401,-0.094
2.402,-0.091
2.403,-0.094
2.404,-0.093
2.405,-0.091
2.406,-0.093
2.407,-0.087
2.408,-0.091
2.409,-0.091
2.410,-0.092
2.411,-0.094
2.412,-0.094
2.413,-0.094
2.414,-0.094
2.415,-0.094
2.416,-0.094
2.417,-0.094
2.418,-0.095
2.419,-0.094
2.420,-0.093
2.421,-0.094
2.422,-0.093
2.423,-0.087
2.424,-0.091
2.425,-0.091
2.426,-0.091
2.427,-0.091
2.428,-0.091
2.429,-0.091
2.430,-0.089
2.431,-0.087
2.432,-0.087
2.433,-0.091
2.434,-0.081
2.435,-0.075
2.436,-0.076
2.437,-0.072
2.438,-0.061
2.439,-0.056
2.440,-0.050
2.441,-0.047
2.442,-0.043
2.443,-0.038
2.444,-0.038
2.445,-0.034
2.446,-0.033
2.447,-0.031
2.448,-0.028
2.449,-0.028
2.450,-0.026
2.451,-0.028
2.452,-0.027
2.453,-0.031
2.454,-0.031
2.455,-0.034
2.456,-0.036
2.457,-0.034
2.458,-0.031
2.459,-0.028
2.460,-0.026
2.461,-0.019
2.462,-0.012
2.463,-0.003
2.464,0.002
2.465,0.012
2.466,0.025
2.467,0.044
2.468,0.067
2.469,0.084
2.470,0.095
2.471,0.106
2.472,0.107
2.473,0.106
2.474,0.111
2.475,0.113
2.476,0.116
2.477,0.119
2.478,0.123
2.479,0.128
2.480,0.131
2.481,0.128
2.482,0.122
2.483,0.119
2.484,0.116
2.485,0.116
2.486,0.114
2.487,0.109
2.488,0.097
2.489,0.091
2.490,0.089
2.491,0.087
2.492,0.091
2.493,0.087
2.494,0.082
2.495,0.078
2.496,0.062
2.497,0.056
2.498,0.058
2.499,0.056
2.500,0.059
2.501,0.066
2.502,0.062
2.503,0.062
2.504,0.062
2.505,0.062
2.506,0.061
2.507,0.059
2.508,0.059
2.509,0.059
2.510,0.059
2.511,0.059
2.512,0.059
2.513,0.053
2.514,0.042
2.515,0.031
2.516,0.024
2.517,0.016
2.518,0.005
2.519,-0.003
2.520,-0.011
2.521,-0.022
2.522,-0.025
2.523,-0.025
2.524,-0.027
2.525,-0.028
2.526,-0.031
2.527,-0.034
2.528,-0.043
2.529,-0.047
2.530,-0.051
2.531,-0.059
2.532,-0.059
2.533,-0.066
2.534,-0.064
2.535,-0.066
2.536,-0.066
2.537,-0.066
2.538,-0.069
2.539,-0.069
2.540,-0.073
2.541,-0.075
2.542,-0.078
2.543,-0.081
2.544,-0.080
2.545,-0.081
2.546,-0.081
2.547,-0.081
2.548,-0.080
2.549,-0.081
2.550,-0.081
2.551,-0.081
2.552,-0.083
2.553,-0.081
2.554,-0.084
2.555,-0.087
2.556,-0.089
2.557,-0.091
2.558,-0.089
2.559,-0.087
2.560,-0.089
2.561,-0.091
2.562,-0.092
2.563,-0.091
2.564,-0.094
2.565,-0.100
2.566,-0.100
2.567,-0.097
2.568,-0.100
2.569,-0.100
2.570,-0.099
2.571,-0.100
2.572,-0.097
2.573,-0.094
2.574,-0.094
2.575,-0.091
2.576,-0.095
2.577,-0.097
2.578,-0.097
2.579,-0.097
2.580,-0.094
2.581,-0.094
2.582,-0.093
2.583,-0.094
2.584,-0.091
2.585,-0.091
2.586,-0.092
2.587,-0.091
2.588,-0.091
2.589,-0.087
2.590,-0.084
2.591,-0.081
2.592,-0.081
2.593,-0.084
2.594,-0.094
2.595,-0.100
2.596,-0.114
2.597,-0.125
2.598,-0.133
2.599,-0.131
2.600,-0.121
2.601,-0.109
2.602,-0.096
2.603,-0.078
2.604,-0.055
2.605,-0.028
2.606,0.006
2.607,0.044
2.608,0.059
2.609,0.072
2.610,0.089
2.611,0.109
2.612,0.134
2.613,0.166
2.614,0.202
2.615,0.247
2.616,0.312
2.617,0.381
2.618,0.461
2.619,0.531
2.620,0.591
2.621,0.662
2.622,0.764
2.623,0.847
2.624,0.867
2.625,0.878
2.626,0.862
2.627,0.866
2.628,0.934
2.629,0.991
2.630,1.064
2.631,1.119
2.632,1.119
2.633,1.066
2.634,0.957
2.635,0.822
2.636,0.650
2.637,0.491
2.638,0.362
2.639,0.269
2.640,0.189
2.641,0.116
2.642,0.066
2.643,0.019
2.644,-0.011
2.645,-0.038
2.646,-0.055
2.647,-0.072
2.648,-0.093
2.649,-0.103
2.650,-0.106
2.651,-0.097
2.652,-0.080
2.653,-0.066
2.654,-0.061
2.655,-0.053
2.656,-0.038
2.657,-0.019
2.658,0.003
2.659,0.019
2.660,0.031
2.661,0.038
2.662,0.044
2.663,0.053
2.664,0.058
2.665,0.053
2.666,0.039
2.667,0.028
2.668,0.018
2.669,0.009
2.670,0.006
2.671,0.000
2.672,-0.002
2.673,-0.006
2.674,-0.008
2.675,-0.009
2.676,-0.017
2.677,-0.022
2.678,-0.025
2.679,-0.028
2.680,-0.029
2.681,-0.031
2.682,-0.030
2.683,-0.031
2.684,-0.028
2.685,-0.028
2.686,-0.030
2.687,-0.028
2.688,-0.031
2.689,-0.031
2.690,-0.030
2.691,-0.031
2.692,-0.036
2.693,-0.041
2.694,-0.041
2.695,-0.038
2.696,-0.039
2.697,-0.038
2.698,-0.041
2.699,-0.041
2.700,-0.039
2.701,-0.038
2.702,-0.036
2.703,-0.034
2.704,-0.036
2.705,-0.034
2.706,-0.033
2.707,-0.034
2.708,-0.034
2.709,-0.038
2.710,-0.036
2.711,-0.034
2.712,-0.034
2.713,-0.031
2.714,-0.032
2.715,-0.034
2.716,-0.036
2.717,-0.038
2.718,-0.036
2.719,-0.034
2.720,-0.034
2.721,-0.034
2.722,-0.031
2.723,-0.034
2.724,-0.036
2.725,-0.038
2.726,-0.041
2.727,-0.034
2.728,-0.031
2.729,-0.031
2.730,-0.033
2.731,-0.034
2.732,-0.036
2.733,-0.034
2.734,-0.034
2.735,-0.034
2.736,-0.034
2.737,-0.034
2.738,-0.033
2.739,-0.034
2.740,-0.036
2.741,-0.034
2.742,-0.033
2.743,-0.031
2.744,-0.034
2.745,-0.034
2.746,-0.036
2.747,-0.034
2.748,-0.033
2.749,-0.034
2.750,-0.031
2.751,-0.028
2.752,-0.028
2.753,-0.028
2.754,-0.031
2.755,-0.031
2.756,-0.031
2.757,-0.031
2.758,-0.031
2.759,-0.031
2.760,-0.033
2.761,-0.031
2.762,-0.031
2.763,-0.031
2.764,-0.031
2.765,-0.031
2.766,-0.029
2.767,-0.031
2.768,-0.034
2.769,-0.034
2.770,-0.034
2.771,-0.034
2.772,-0.038
2.773,-0.034
2.774,-0.034
2.775,-0.034
2.776,-0.034
2.777,-0.034
2.778,-0.034
2.779,-0.034
2.780,-0.034
2.781,-0.034
2.782,-0.034
2.783,-0.034
2.784,-0.033
2.785,-0.028
2.786,-0.029
2.787,-0.034
2.788,-0.032
2.789,-0.031
2.790,-0.031
2.791,-0.034
2.792,-0.034
2.793,-0.031
2.794,-0.029
2.795,-0.031
2.796,-0.030
2.797,-0.031
2.798,-0.029
2.799,-0.031
2.800,-0.025
2.801,-0.019
2.802,-0.019
2.803,-0.022
2.804,-0.022
2.805,-0.025
2.806,-0.026
2.807,-0.025
2.808,-0.025
2.809,-0.025
2.810,-0.022
2.811,-0.022
2.812,-0.020
2.813,-0.022
2.814,-0.022
2.815,-0.022
2.816,-0.022
2.817,-0.019
2.818,-0.019
2.819,-0.019
2.820,-0.014
2.821,-0.012
2.822,-0.012
2.823,-0.012
2.824,-0.009
2.825,-0.009
2.826,-0.014
2.827,-0.012
2.828,-0.014
2.829,-0.012
2.830,-0.009
2.831,-0.006
2.832,-0.005
2.833,-0.003
2.834,-0.003
2.835,-0.003
2.836,-0.006
2.837,-0.009
2.838,-0.006
2.839,-0.006
2.840,-0.009
2.841,-0.009
2.842,-0.011
2.843,-0.009
2.844,-0.006
2.845,-0.009
2.846,-0.005
2.847,-0.006
2.848,-0.011
2.849,-0.012
2.850,-0.011
2.851,-0.006
2.852,-0.002
2.853,0.000
2.854,0.000
2.855,0.000
2.856,0.001
2.857,0.003
2.858,0.003
2.859,0.003
2.860,0.002
2.861,0.003
2.862,0.004
2.863,0.003
2.864,0.003
2.865,0.003
2.866,0.003
2.867,0.003
2.868,0.002
2.869,0.003
2.870,0.000
2.871,0.000
2.872,0.000
2.873,0.000
2.874,0.000
2.875,0.000
2.876,0.003
2.877,0.000
2.878,0.003
2.879,0.003
2.880,0.003
2.881,0.006
2.882,0.005
2.883,0.006
2.884,0.006
2.885,0.006
2.886,0.003
2.887,0.003
2.888,0.002
2.889,0.000
2.890,0.004
2.891,0.006
2.892,0.003
2.893,0.003
2.894,0.002
2.895,0.000
2.896,0.004
2.897,0.003
2.898,0.004
2.899,0.006
2.900,0.005
2.901,0.003
2.902,0.003
2.903,0.003
2.904,0.003
2.905,0.003
2.906,0.004
2.907,0.006
2.908,0.005
2.909,0.003
2.910,0.004
2.911,0.006
2.912,0.009
2.913,0.009
2.914,0.011
2.915,0.009
2.916,0.012
2.917,0.012
2.918,0.011
2.919,0.012
2.920,0.011
2.921,0.009
2.922,0.011
2.923,0.012
2.924,0.014
2.925,0.016
2.926,0.018
2.927,0.016
2.928,0.014
2.929,0.012
2.930,0.017
2.931,0.022
2.932,0.022
2.933,0.022
2.934,0.026
2.935,0.028
2.936,0.028
2.937,0.028
2.938,0.028
2.939,0.031
2.940,0.027
2.941,0.031
2.942,0.038
2.943,0.038
2.944,0.038
2.945,0.041
2.946,0.044
2.947,0.047
2.948,0.046
2.949,0.047
2.950,0.044
2.951,0.044
2.952,0.051
2.953,0.059
2.954,0.059
2.955,0.059
2.956,0.066
2.957,0.069
2.958,0.069
2.959,0.069
2.960,0.071
2.961,0.069
2.962,0.071
2.963,0.069
2.964,0.072
2.965,0.069
2.966,0.071
2.967,0.075
2.968,0.076
2.969,0.078
2.970,0.080
2.971,0.081
2.972,0.084
2.973,0.091
2.974,0.095
2.975,0.097
2.976,0.097
2.977,0.097
2.978,0.099
2.979,0.103
2.980,0.101
2.981,0.100
2.982,0.099
2.983,0.100
2.984,0.100
2.985,0.097
2.986,0.102
2.987,0.100
2.988,0.096
2.989,0.097
2.990,0.100
2.991,0.100
2.992,0.100
2.993,0.100
2.994,0.099
2.995,0.097
2.996,0.098
2.997,0.100
2.998,0.099
2.999,0.097
3.000,0.100
3.001,0.100
3.002,0.100
3.003,0.100
3.004,0.094
3.005,0.091
3.006,0.091
3.007,0.091
3.008,0.087
3.009,0.084
3.010,0.086
3.011,0.084
3.012,0.086
3.013,0.084
3.014,0.078
3.015,0.075
3.016,0.072
3.017,0.069
3.018,0.070
3.019,0.069
3.020,0.067
3.021,0.069
3.022,0.064
3.023,0.062
3.024,0.059
3.025,0.059
3.026,0.061
3.027,0.059
3.028,0.058
3.029,0.053
3.030,0.052
3.031,0.050
3.032,0.050
3.033,0.047
3.034,0.048
3.035,0.047
3.036,0.042
3.037,0.038
3.038,0.038
3.039,0.038
3.040,0.034
3.041,0.034
3.042,0.034
3.043,0.031
3.044,0.031
3.045,0.031
3.046,0.029
3.047,0.028
3.048,0.029
3.049,0.031
3.050,0.029
3.051,0.028
3.052,0.029
3.053,0.028
3.054,0.028
3.055,0.025
3.056,0.024
3.057,0.022
3.058,0.021
3.059,0.016
3.060,0.009
3.061,0.009
3.062,0.008
3.063,0.006
3.064,0.008
3.065,0.006
3.066,0.008
3.067,0.009
3.068,0.008
3.069,0.009
3.070,0.003
3.071,0.003
3.072,0.001
3.073,0.003
3.074,0.000
3.075,0.000
3.076,-0.004
3.077,-0.009
3.078,-0.011
3.079,-0.012
3.080,-0.014
3.081,-0.016
3.082,-0.014
3.083,-0.012
3.084,-0.014
3.085,-0.016
3.086,-0.016
3.087,-0.012
3.088,-0.019
3.089,-0.022
3.090,-0.021
3.091,-0.022
3.092,-0.023
3.093,-0.025
3.094,-0.025
3.095,-0.025
3.096,-0.028
3.097,-0.028
3.098,-0.029
3.099,-0.031
3.100,-0.030
3.101,-0.028
3.102,-0.030
3.103,-0.028
3.104,-0.028
3.105,-0.028
3.106,-0.031
3.107,-0.031
3.108,-0.033
3.109,-0.034
3.110,-0.039
3.111,-0.044
3.112,-0.043
3.113,-0.044
3.114,-0.042
3.115,-0.044
3.116,-0.044
3.117,-0.047
3.118,-0.046
3.119,-0.044
3.120,-0.041
3.121,-0.044
3.122,-0.048
3.123,-0.047
3.124,-0.047
3.125,-0.047
3.126,-0.046
3.127,-0.044
3.128,-0.048
3.129,-0.047
3.130,-0.047
3.131,-0.047
3.132,-0.050
3.133,-0.053
3.134,-0.050
3.135,-0.053
3.136,-0.053
3.137,-0.053
3.138,-0.052
3.139,-0.050
3.140,-0.050
3.141,-0.050
3.142,-0.050
3.143,-0.050
3.144,-0.050
3.145,-0.053
3.146,-0.053
3.147,-0.053
3.148,-0.054
3.149,-0.056
3.150,-0.056
3.151,-0.059
3.152,-0.056
3.153,-0.056
3.154,-0.058
3.155,-0.056
3.156,-0.056
3.157,-0.056
3.158,-0.058
3.159,-0.059
3.160,-0.058
3.161,-0.056
3.162,-0.058
3.163,-0.059
3.164,-0.061
3.165,-0.063
3.166,-0.064
3.167,-0.066
3.168,-0.068
3.169,-0.066
3.170,-0.063
3.171,-0.059
3.172,-0.056
3.173,-0.059
3.174,-0.056
3.175,-0.056
3.176,-0.058
3.177,-0.059
3.178,-0.056
3.179,-0.059
3.180,-0.058
3.181,-0.059
3.182,-0.063
3.183,-0.066
3.184,-0.064
3.185,-0.066
3.186,-0.067
3.187,-0.066
3.188,-0.068
3.189,-0.066
3.190,-0.061
3.191,-0.059
3.192,-0.059
3.193,-0.059
3.194,-0.063
3.195,-0.063
3.196,-0.063
3.197,-0.063
3.198,-0.063
3.199,-0.066
3.200,-0.066
3.201,-0.069
3.202,-0.070
3.203,-0.072
3.204,-0.072
3.205,-0.072
3.206,-0.072
3.207,-0.072
3.208,-0.072
3.209,-0.072
3.210,-0.073
3.211,-0.075
3.212,-0.071
3.213,-0.069
3.214,-0.071
3.215,-0.069
3.216,-0.075
3.217,-0.075
3.218,-0.074
3.219,-0.075
3.220,-0.075
3.221,-0.075
3.222,-0.075
3.223,-0.072
3.224,-0.074
3.225,-0.075
3.226,-0.072
3.227,-0.075
3.228,-0.073
3.229,-0.075
3.230,-0.075
3.231,-0.075
3.232,-0.078
3.233,-0.078
3.234,-0.078
3.235,-0.078
3.236,-0.079
3.237,-0.081
3.238,-0.081
3.239,-0.081
3.240,-0.084
3.241,-0.084
3.242,-0.086
3.243,-0.084
3.244,-0.083
3.245,-0.084
3.246,-0.080
3.247,-0.075
3.248,-0.076
3.249,-0.078
3.250,-0.078
3.251,-0.075
3.252,-0.077
3.253,-0.078
3.254,-0.079
3.255,-0.081
3.256,-0.084
3.257,-0.081
3.258,-0.083
3.259,-0.081
3.260,-0.083
3.261,-0.084
3.262,-0.084
3.263,-0.084
3.264,-0.083
3.265,-0.081
3.266,-0.083
3.267,-0.084
3.268,-0.089
3.269,-0.087
3.270,-0.086
3.271,-0.087
3.272,-0.081
3.273,-0.078
3.274,-0.081
3.275,-0.081
3.276,-0.086
3.277,-0.084
3.278,-0.081
3.279,-0.078
3.280,-0.084
3.281,-0.087
3.282,-0.087
3.283,-0.084
3.284,-0.087
3.285,-0.091
3.286,-0.091
3.287,-0.091
3.288,-0.089
3.289,-0.091
3.290,-0.093
3.291,-0.091
3.292,-0.094
3.293,-0.091
3.294,-0.089
3.295,-0.091
3.296,-0.086
3.297,-0.084
3.298,-0.084
3.299,-0.087
3.300,-0.087
3.301,-0.087
3.302,-0.087
3.303,-0.087
3.304,-0.089
3.305,-0.091
3.306,-0.087
3.307,-0.084
3.308,-0.086
3.309,-0.087
3.310,-0.087
3.311,-0.091
3.312,-0.087
3.313,-0.087
3.314,-0.087
3.315,-0.087
3.316,-0.091
3.317,-0.091
3.318,-0.087
3.319,-0.091
3.320,-0.091
3.321,-0.087
3.322,-0.089
3.323,-0.087
3.324,-0.089
3.325,-0.087
3.326,-0.089
3.327,-0.087
3.328,-0.087
3.329,-0.084
3.330,-0.091
3.331,-0.094
3.332,-0.092
3.333,-0.094
3.334,-0.091
3.335,-0.087
3.336,-0.091
3.337,-0.091
3.338,-0.094
3.339,-0.094
3.340,-0.091
3.341,-0.091
3.342,-0.091
3.343,-0.091
3.344,-0.091
3.345,-0.091
3.346,-0.091
3.347,-0.087
3.348,-0.089
3.349,-0.091
3.350,-0.091
3.351,-0.091
3.352,-0.091
3.353,-0.091
3.354,-0.094
3.355,-0.097
3.356,-0.094
3.357,-0.091
3.358,-0.092
3.359,-0.094
3.360,-0.094
3.361,-0.091
3.362,-0.094
3.363,-0.094
3.364,-0.095
3.365,-0.094
3.366,-0.094
3.367,-0.091
3.368,-0.094
3.369,-0.094
3.370,-0.093
3.371,-0.094
3.372,-0.092
3.373,-0.097
3.374,-0.094
3.375,-0.091
3.376,-0.091
3.377,-0.091
3.378,-0.091
3.379,-0.091
3.380,-0.091
3.381,-0.091
3.382,-0.092
3.383,-0.094
3.384,-0.091
3.385,-0.091
3.386,-0.094
3.387,-0.094
3.388,-0.091
3.389,-0.094
3.390,-0.094
3.391,-0.094
3.392,-0.095
3.393,-0.097
3.394,-0.096
3.395,-0.094
3.396,-0.093
3.397,-0.087
3.398,-0.087
3.399,-0.081
3.400,-0.074
3.401,-0.069
3.402,-0.064
3.403,-0.056
3.404,-0.054
3.405,-0.050
3.406,-0.047
3.407,-0.044
3.408,-0.042
3.409,-0.044
3.410,-0.041
3.411,-0.041
3.412,-0.042
3.413,-0.041
3.414,-0.042
3.415,-0.041
3.416,-0.039
3.417,-0.038
3.418,-0.043
3.419,-0.038
3.420,-0.039
3.421,-0.041
3.422,-0.038
3.423,-0.038
3.424,-0.034
3.425,-0.028
3.426,-0.012
3.427,0.000
3.428,0.016
3.429,0.031
3.430,0.048
3.431,0.066
3.432,0.080
3.433,0.091
3.434,0.097
3.435,0.100
3.436,0.103
3.437,0.097
3.438,0.092
3.439,0.091
3.440,0.087
3.441,0.091
3.442,0.092
3.443,0.094
3.444,0.097
3.445,0.100
3.446,0.100
3.447,0.100
3.448,0.097
3.449,0.087
3.450,0.086
3.451,0.084
3.452,0.079
3.453,0.072
3.454,0.072
3.455,0.072
3.456,0.062
3.457,0.056
3.458,0.046
3.459,0.034
3.460,0.032
3.461,0.028
3.462,0.028
3.463,0.031
3.464,0.030
3.465,0.028
3.466,0.032
3.467,0.031
3.468,0.032
3.469,0.031
3.470,0.028
3.471,0.028
3.472,0.027
3.473,0.028
3.474,0.031
3.475,0.028
3.476,0.022
3.477,0.012
3.478,0.001
3.479,-0.009
3.480,-0.022
3.481,-0.028
3.482,-0.031
3.483,-0.038
3.484,-0.041
3.485,-0.041
3.486,-0.046
3.487,-0.047
3.488,-0.050
3.489,-0.056
3.490,-0.063
3.491,-0.069
3.492,-0.069
3.493,-0.075
3.494,-0.078
3.495,-0.078
3.496,-0.084
3.497,-0.081
3.498,-0.084
3.499,-0.084
3.500,-0.087
3.501,-0.087
3.502,-0.087
3.503,-0.091
3.504,-0.089
3.505,-0.091
3.506,-0.094
3.507,-0.097
3.508,-0.096
3.509,-0.094
3.510,-0.098
3.511,-0.100
3.512,-0.101
3.513,-0.103
3.514,-0.106
3.515,-0.106
3.516,-0.106
3.517,-0.109
3.518,-0.106
3.519,-0.106
3.520,-0.109
3.521,-0.109
3.522,-0.109
3.523,-0.109
3.524,-0.108
3.525,-0.109
3.526,-0.113
3.527,-0.113
3.528,-0.109
3.529,-0.109
3.530,-0.114
3.531,-0.119
3.532,-0.120
3.533,-0.122
3.534,-0.117
3.535,-0.116
3.536,-0.119
3.537,-0.119
3.538,-0.119
3.539,-0.119
3.540,-0.116
3.541,-0.119
3.542,-0.119
3.543,-0.119
3.544,-0.119
3.545,-0.116
3.546,-0.114
3.547,-0.113
3.548,-0.117
3.549,-0.116
3.550,-0.114
3.551,-0.113
3.552,-0.111
3.553,-0.113
3.554,-0.113
3.555,-0.116
3.556,-0.113
3.557,-0.113
3.558,-0.113
3.559,-0.116
3.560,-0.121
3.561,-0.131
3.562,-0.142
3.563,-0.144
3.564,-0.137
3.565,-0.131
3.566,-0.119
3.567,-0.103
3.568,-0.080
3.569,-0.050
3.570,-0.025
3.571,0.000
3.572,0.028
3.573,0.041
3.574,0.047
3.575,0.066
3.576,0.089
3.577,0.119
3.578,0.153
3.579,0.197
3.580,0.253
3.581,0.319
3.582,0.391
3.583,0.466
3.584,0.529
3.585,0.594
3.586,0.673
3.587,0.753
3.588,0.809
3.589,0.819
3.590,0.832
3.591,0.859
3.592,0.900
3.593,0.981
3.594,1.041
3.595,1.094
3.596,1.111
3.597,1.066
3.598,0.971
3.599,0.834
3.600,0.683
3.601,0.531
3.602,0.401
3.603,0.309
3.604,0.221
3.605,0.147
3.606,0.091
3.607,0.047
3.608,0.016
3.609,-0.012
3.610,-0.030
3.611,-0.050
3.612,-0.068
3.613,-0.081
3.614,-0.086
3.615,-0.084
3.616,-0.075
3.617,-0.069
3.618,-0.063
3.619,-0.056
3.620,-0.050
3.621,-0.031
3.622,-0.014
3.623,0.003
3.624,0.012
3.625,0.022
3.626,0.027
3.627,0.031
3.628,0.039
3.629,0.034
3.630,0.022
3.631,0.009
3.632,0.000
3.633,-0.009
3.634,-0.016
3.635,-0.022
3.636,-0.032
3.637,-0.038
3.638,-0.048
3.639,-0.056
3.640,-0.055
3.641,-0.056
3.642,-0.061
3.643,-0.063
3.644,-0.059
3.645,-0.056
3.646,-0.053
3.647,-0.050
3.648,-0.052
3.649,-0.050
3.650,-0.053
3.651,-0.056
3.652,-0.059
3.653,-0.066
3.654,-0.069
3.655,-0.072
3.656,-0.074
3.657,-0.072
3.658,-0.072
3.659,-0.072
3.660,-0.070
3.661,-0.072
3.662,-0.066
3.663,-0.066
3.664,-0.066
3.665,-0.066
3.666,-0.067
3.667,-0.069
3.668,-0.068
3.669,-0.069
3.670,-0.069
3.671,-0.069
3.672,-0.072
3.673,-0.072
3.674,-0.076
3.675,-0.075
3.676,-0.069
3.677,-0.069
3.678,-0.069
3.679,-0.069
3.680,-0.070
3.681,-0.072
3.682,-0.073
3.683,-0.075
3.684,-0.074
3.685,-0.072
3.686,-0.073
3.687,-0.072
3.688,-0.078
3.689,-0.081
3.690,-0.080
3.691,-0.078
3.692,-0.069
3.693,-0.069
3.694,-0.069
3.695,-0.069
3.696,-0.071
3.697,-0.069
3.698,-0.064
3.699,-0.063
3.700,-0.063
3.701,-0.063
3.702,-0.064
3.703,-0.066
3.704,-0.072
3.705,-0.075
3.706,-0.072
3.707,-0.072
3.708,-0.072
3.709,-0.075
3.710,-0.075
3.711,-0.075
3.712,-0.069
3.713,-0.066
3.714,-0.069
3.715,-0.066
3.716,-0.064
3.717,-0.066
3.718,-0.064
3.719,-0.066
3.720,-0.067
3.721,-0.069
3.722,-0.069
3.723,-0.069
3.724,-0.068
3.725,-0.069
3.726,-0.069
3.727,-0.069
3.728,-0.069
3.729,-0.069
3.730,-0.069
3.731,-0.066
3.732,-0.066
3.733,-0.069
3.734,-0.068
3.735,-0.066
3.736,-0.066
3.737,-0.069
3.738,-0.064
3.739,-0.063
3.740,-0.063
3.741,-0.063
3.742,-0.064
3.743,-0.066
3.744,-0.066
3.745,-0.066
3.746,-0.066
3.747,-0.066
3.748,-0.066
3.749,-0.066
3.750,-0.061
3.751,-0.059
3.752,-0.063
3.753,-0.059
3.754,-0.056
3.755,-0.056
3.756,-0.059
3.757,-0.059
3.758,-0.056
3.759,-0.053
3.760,-0.053
3.761,-0.053
3.762,-0.058
3.763,-0.056
3.764,-0.056
3.765,-0.056
3.766,-0.053
3.767,-0.050
3.768,-0.053
3.769,-0.050
3.770,-0.050
3.771,-0.050
3.772,-0.048
3.773,-0.050
3.774,-0.051
3.775,-0.050
3.776,-0.051
3.777,-0.050
3.778,-0.050
3.779,-0.050
3.780,-0.050
3.781,-0.050
3.782,-0.048
3.783,-0.050
3.784,-0.046
3.785,-0.038
3.786,-0.038
3.787,-0.038
3.788,-0.041
3.789,-0.041
3.790,-0.038
3.791,-0.038
3.792,-0.036
3.793,-0.038
3.794,-0.036
3.795,-0.038
3.796,-0.038
3.797,-0.038
3.798,-0.036
3.799,-0.034
3.800,-0.031
3.801,-0.028
3.802,-0.029
3.803,-0.028
3.804,-0.028
3.805,-0.031
3.806,-0.031
3.807,-0.031
3.808,-0.029
3.809,-0.028
3.810,-0.031
3.811,-0.028
3.812,-0.030
3.813,-0.031
3.814,-0.031
3.815,-0.031
3.816,-0.029
3.817,-0.028
3.818,-0.028
3.819,-0.028
3.820,-0.028
3.821,-0.028
3.822,-0.028
3.823,-0.028
3.824,-0.028
3.825,-0.028
3.826,-0.026
3.827,-0.028
3.828,-0.031
3.829,-0.031
3.830,-0.030
3.831,-0.028
3.832,-0.028
3.833,-0.028
3.834,-0.024
3.835,-0.025
3.836,-0.025
3.837,-0.025
3.838,-0.025
3.839,-0.025
3.840,-0.026
3.841,-0.025
3.842,-0.027
3.843,-0.022
3.844,-0.021
3.845,-0.022
3.846,-0.023
3.847,-0.025
3.848,-0.023
3.849,-0.025
3.850,-0.021
3.851,-0.019
3.852,-0.019
3.853,-0.019
3.854,-0.020
3.855,-0.019
3.856,-0.018
3.857,-0.019
3.858,-0.020
3.859,-0.022
3.860,-0.022
3.861,-0.019
3.862,-0.022
3.863,-0.022
3.864,-0.021
3.865,-0.019
3.866,-0.019
3.867,-0.019
3.868,-0.019
3.869,-0.019
3.870,-0.019
3.871,-0.019
3.872,-0.019
3.873,-0.019
3.874,-0.019
3.875,-0.019
3.876,-0.019
3.877,-0.016
3.878,-0.014
3.879,-0.012
3.880,-0.017
3.881,-0.016
3.882,-0.017
3.883,-0.019
3.884,-0.016
3.885,-0.016
3.886,-0.012
3.887,-0.009
3.888,-0.009
3.889,-0.009
3.890,-0.009
3.891,-0.006
3.892,-0.006
3.893,-0.006
3.894,-0.003
3.895,0.000
3.896,-0.001
3.897,0.000
3.898,0.002
3.899,0.003
3.900,0.003
3.901,0.003
3.902,0.003
3.903,0.003
3.904,0.006
3.905,0.003
3.906,0.008
3.907,0.009
3.908,0.008
3.909,0.009
3.910,0.011
3.911,0.012
3.912,0.017
3.913,0.019
3.914,0.023
3.915,0.025
3.916,0.027
3.917,0.028
3.918,0.031
3.919,0.031
3.920,0.032
3.921,0.038
3.922,0.036
3.923,0.038
3.924,0.042
3.925,0.047
3.926,0.047
3.927,0.050
3.928,0.053
3.929,0.059
3.930,0.055
3.931,0.056
3.932,0.062
3.933,0.062
3.934,0.061
3.935,0.062
3.936,0.066
3.937,0.066
3.938,0.069
3.939,0.072
3.940,0.075
3.941,0.078
3.942,0.075
3.943,0.075
3.944,0.084
3.945,0.084
3.946,0.081
3.947,0.084
3.948,0.089
3.949,0.087
3.950,0.083
3.951,0.087
3.952,0.087
3.953,0.084
3.954,0.086
3.955,0.087
3.956,0.089
3.957,0.091
3.958,0.091
3.959,0.091
3.960,0.089
3.961,0.087
3.962,0.092
3.963,0.097
3.964,0.096
3.965,0.097
3.966,0.094
3.967,0.091
3.968,0.092
3.969,0.091
3.970,0.089
3.971,0.087
3.972,0.089
3.973,0.087
3.974,0.083
3.975,0.084
3.976,0.084
3.977,0.084
3.978,0.082
3.979,0.081
3.980,0.080
3.981,0.078
3.982,0.079
3.983,0.081
3.984,0.079
3.985,0.078
3.986,0.078
3.987,0.075
3.988,0.076
3.989,0.075
3.990,0.074
3.991,0.072
3.992,0.070
3.993,0.072
3.994,0.068
3.995,0.066
3.996,0.066
3.997,0.066
3.998,0.058
3.999,0.053
4.000,0.050
4.001,0.047
4.002,0.044
4.003,0.044
4.004,0.042
4.005,0.038
4.006,0.039
4.007,0.041
4.008,0.036
4.009,0.034
4.010,0.034
4.011,0.031
4.012,0.029
4.013,0.031
4.014,0.031
4.015,0.028
4.016,0.025
4.017,0.025
4.018,0.023
4.019,0.025
4.020,0.019
4.021,0.016
4.022,0.016
4.023,0.016
4.024,0.016
4.025,0.016
4.026,0.018
4.027,0.012
4.028,0.009
4.029,0.009
4.030,0.006
4.031,0.006
4.032,0.003
4.033,-0.003
4.034,-0.002
4.035,-0.003
4.036,0.000
4.037,-0.003
4.038,-0.002
4.039,-0.003
4.040,0.000
4.041,0.000
4.042,-0.006
4.043,-0.009
4.044,-0.011
4.045,-0.012
4.046,-0.011
4.047,-0.009
4.048,-0.008
4.049,-0.009
4.050,-0.014
4.051,-0.016
4.052,-0.012
4.053,-0.016
4.054,-0.020
4.055,-0.025
4.056,-0.028
4.057,-0.028
4.058,-0.028
4.059,-0.028
4.060,-0.027
4.061,-0.028
4.062,-0.027
4.063,-0.025
4.064,-0.025
4.065,-0.025
4.066,-0.025
4.067,-0.028
4.068,-0.029
4.069,-0.031
4.070,-0.032
4.071,-0.034
4.072,-0.030
4.073,-0.031
4.074,-0.034
4.075,-0.034
4.076,-0.034
4.077,-0.034
4.078,-0.038
4.079,-0.034
4.080,-0.033
4.081,-0.031
4.082,-0.034
4.083,-0.034
4.084,-0.036
4.085,-0.034
4.086,-0.036
4.087,-0.038
4.088,-0.036
4.089,-0.038
4.090,-0.041
4.091,-0.044
4.092,-0.041
4.093,-0.041
4.094,-0.039
4.095,-0.041
4.096,-0.041
4.097,-0.041
4.098,-0.044
4.099,-0.044
4.100,-0.047
4.101,-0.047
4.102,-0.047
4.103,-0.047
4.104,-0.046
4.105,-0.044
4.106,-0.044
4.107,-0.044
4.108,-0.044
4.109,-0.044
4.110,-0.047
4.111,-0.047
4.112,-0.046
4.113,-0.044
4.114,-0.044
4.115,-0.044
4.116,-0.048
4.117,-0.047
4.118,-0.047
4.119,-0.050
4.120,-0.050
4.121,-0.050
4.122,-0.050
4.123,-0.050
4.124,-0.050
4.125,-0.050
4.126,-0.050
4.127,-0.050
4.128,-0.047
4.129,-0.044
4.130,-0.045
4.131,-0.047
4.132,-0.048
4.133,-0.053
4.134,-0.054
4.135,-0.056
4.136,-0.056
4.137,-0.053
4.138,-0.056
4.139,-0.053
4.140,-0.050
4.141,-0.050
4.142,-0.053
4.143,-0.050
4.144,-0.052
4.145,-0.050
4.146,-0.053
4.147,-0.050
4.148,-0.047
4.149,-0.047
4.150,-0.053
4.151,-0.056
4.152,-0.053
4.153,-0.056
4.154,-0.058
4.155,-0.056
4.156,-0.055
4.157,-0.053
4.158,-0.052
4.159,-0.053
4.160,-0.053
4.161,-0.053
4.162,-0.052
4.163,-0.050
4.164,-0.052
4.165,-0.050
4.166,-0.052
4.167,-0.050
4.168,-0.050
4.169,-0.050
4.170,-0.051
4.171,-0.053
4.172,-0.053
4.173,-0.053
4.174,-0.053
4.175,-0.053
4.176,-0.054
4.177,-0.053
4.178,-0.054
4.179,-0.059
4.180,-0.059
4.181,-0.063
4.182,-0.061
4.183,-0.063
4.184,-0.061
4.185,-0.056
4.186,-0.056
4.187,-0.056
4.188,-0.053
4.189,-0.056
4.190,-0.059
4.191,-0.056
4.192,-0.061
4.193,-0.059
4.194,-0.061
4.195,-0.063
4.196,-0.061
4.197,-0.063
4.198,-0.064
4.199,-0.066
4.200,-0.066
4.201,-0.066
4.202,-0.066
4.203,-0.066
4.204,-0.064
4.205,-0.066
4.206,-0.067
4.207,-0.069
4.208,-0.064
4.209,-0.063
4.210,-0.063
4.211,-0.059
4.212,-0.059
4.213,-0.059
4.214,-0.063
4.215,-0.066
4.216,-0.063
4.217,-0.066
4.218,-0.068
4.219,-0.066
4.220,-0.067
4.221,-0.069
4.222,-0.064
4.223,-0.069
4.224,-0.069
4.225,-0.069
4.226,-0.069
4.227,-0.069
4.228,-0.069
4.229,-0.069
4.230,-0.069
4.231,-0.069
4.232,-0.068
4.233,-0.069
4.234,-0.067
4.235,-0.069
4.236,-0.071
4.237,-0.066
4.238,-0.064
4.239,-0.066
4.240,-0.067
4.241,-0.069
4.242,-0.066
4.243,-0.069
4.244,-0.068
4.245,-0.069
4.246,-0.069
4.247,-0.069
4.248,-0.066
4.249,-0.069
4.250,-0.073
4.251,-0.075
4.252,-0.075
4.253,-0.072
4.254,-0.071
4.255,-0.072
4.256,-0.071
4.257,-0.072
4.258,-0.069
4.259,-0.069
4.260,-0.069
4.261,-0.063
4.262,-0.064
4.263,-0.066
4.264,-0.069
4.265,-0.069
4.266,-0.069
4.267,-0.069
4.268,-0.070
4.269,-0.072
4.270,-0.075
4.271,-0.075
4.272,-0.071
4.273,-0.072
4.274,-0.072
4.275,-0.069
4.276,-0.072
4.277,-0.069
4.278,-0.070
4.279,-0.072
4.280,-0.071
4.281,-0.072
4.282,-0.072
4.283,-0.069
4.284,-0.071
4.285,-0.069
4.286,-0.066
4.287,-0.069
4.288,-0.069
4.289,-0.069
4.290,-0.066
4.291,-0.069
4.292,-0.069
4.293,-0.069
4.294,-0.068
4.295,-0.066
4.296,-0.067
4.297,-0.069
4.298,-0.066
4.299,-0.066
4.300,-0.066
4.301,-0.069
4.302,-0.073
4.303,-0.072
4.304,-0.076
4.305,-0.075
4.306,-0.072
4.307,-0.069
4.308,-0.071
4.309,-0.069
4.310,-0.069
4.311,-0.069
4.312,-0.067
4.313,-0.069
4.314,-0.069
4.315,-0.069
4.316,-0.068
4.317,-0.069
4.318,-0.073
4.319,-0.072
4.320,-0.072
4.321,-0.072
4.322,-0.072
4.323,-0.072
4.324,-0.072
4.325,-0.072
4.326,-0.071
4.327,-0.075
4.328,-0.075
4.329,-0.075
4.330,-0.073
4.331,-0.075
4.332,-0.078
4.333,-0.081
4.334,-0.077
4.335,-0.069
4.336,-0.073
4.337,-0.075
4.338,-0.072
4.339,-0.072
4.340,-0.072
4.341,-0.072
4.342,-0.072
4.343,-0.072
4.344,-0.075
4.345,-0.075
4.346,-0.075
4.347,-0.075
4.348,-0.076
4.349,-0.078
4.350,-0.078
4.351,-0.078
4.352,-0.075
4.353,-0.072
4.354,-0.072
4.355,-0.072
4.356,-0.072
4.357,-0.072
4.358,-0.072
4.359,-0.069
4.360,-0.072
4.361,-0.072
4.362,-0.072
4.363,-0.069
4.364,-0.070
4.365,-0.069
4.366,-0.072
4.367,-0.072
4.368,-0.072
4.369,-0.075
4.370,-0.069
4.371,-0.069
4.372,-0.070
4.373,-0.072
4.374,-0.072
4.375,-0.072
4.376,-0.071
4.377,-0.069
4.378,-0.070
4.379,-0.072
4.380,-0.073
4.381,-0.075
4.382,-0.072
4.383,-0.072
4.384,-0.074
4.385,-0.072
4.386,-0.069
4.387,-0.072
4.388,-0.072
4.389,-0.072
4.390,-0.073
4.391,-0.075
4.392,-0.074
4.393,-0.072
4.394,-0.071
4.395,-0.066
4.396,-0.066
4.397,-0.059
4.398,-0.055
4.399,-0.053
4.400,-0.047
4.401,-0.038
4.402,-0.038
4.403,-0.034
4.404,-0.030
4.405,-0.025
4.406,-0.022
4.407,-0.022
4.408,-0.018
4.409,-0.016
4.410,-0.019
4.411,-0.019
4.412,-0.018
4.413,-0.012
4.414,-0.014
4.415,-0.016
4.416,-0.025
4.417,-0.025
4.418,-0.024
4.419,-0.022
4.420,-0.020
4.421,-0.022
4.422,-0.022
4.423,-0.019
4.424,-0.003
4.425,0.009
4.426,0.025
4.427,0.041
4.428,0.061
4.429,0.081
4.430,0.099
4.431,0.113
4.432,0.121
4.433,0.125
4.434,0.130
4.435,0.125
4.436,0.122
4.437,0.122
4.438,0.117
4.439,0.119
4.440,0.119
4.441,0.119
4.442,0.121
4.443,0.122
4.444,0.120
4.445,0.119
4.446,0.120
4.447,0.116
4.448,0.109
4.449,0.103
4.450,0.103
4.451,0.100
4.452,0.097
4.453,0.094
4.454,0.086
4.455,0.081
4.456,0.071
4.457,0.059
4.458,0.058
4.459,0.053
4.460,0.054
4.461,0.059
4.462,0.061
4.463,0.062
4.464,0.066
4.465,0.062
4.466,0.062
4.467,0.059
4.468,0.055
4.469,0.053
4.470,0.052
4.471,0.053
4.472,0.056
4.473,0.053
4.474,0.047
4.475,0.038
4.476,0.026
4.477,0.016
4.478,0.002
4.479,-0.006
4.480,-0.008
4.481,-0.012
4.482,-0.019
4.483,-0.022
4.484,-0.027
4.485,-0.028
4.486,-0.029
4.487,-0.034
4.488,-0.039
4.489,-0.044
4.490,-0.046
4.491,-0.053
4.492,-0.056
4.493,-0.056
4.494,-0.063
4.495,-0.059
4.496,-0.063
4.497,-0.063
4.498,-0.066
4.499,-0.066
4.500,-0.064
4.501,-0.066
4.502,-0.067
4.503,-0.072
4.504,-0.072
4.505,-0.072
4.506,-0.072
4.507,-0.072
4.508,-0.075
4.509,-0.075
4.510,-0.074
4.511,-0.072
4.512,-0.075
4.513,-0.075
4.514,-0.076
4.515,-0.081
4.516,-0.080
4.517,-0.081
4.518,-0.086
4.519,-0.087
4.520,-0.089
4.521,-0.091
4.522,-0.087
4.523,-0.087
4.524,-0.092
4.525,-0.094
4.526,-0.091
4.527,-0.091
4.528,-0.093
4.529,-0.094
4.530,-0.095
4.531,-0.097
4.532,-0.094
4.533,-0.094
4.534,-0.096
4.535,-0.094
4.536,-0.094
4.537,-0.094
4.538,-0.091
4.539,-0.094
4.540,-0.093
4.541,-0.091
4.542,-0.094
4.543,-0.094
4.544,-0.093
4.545,-0.091
4.546,-0.095
4.547,-0.094
4.548,-0.094
4.549,-0.094
4.550,-0.092
4.551,-0.094
4.552,-0.091
4.553,-0.091
4.554,-0.087
4.555,-0.087
4.556,-0.091
4.557,-0.097
4.558,-0.100
4.559,-0.109
4.560,-0.122
4.561,-0.125
4.562,-0.119
4.563,-0.113
4.564,-0.102
4.565,-0.087
4.566,-0.071
4.567,-0.047
4.568,-0.019
4.569,0.009
4.570,0.034
4.571,0.044
4.572,0.052
4.573,0.072
4.574,0.092
4.575,0.119
4.576,0.147
4.577,0.184
4.578,0.236
4.579,0.297
4.580,0.369
4.581,0.444
4.582,0.505
4.583,0.566
4.584,0.651
4.585,0.737
4.586,0.804
4.587,0.825
4.588,0.821
4.589,0.828
4.590,0.869
4.591,0.950
4.592,1.019
4.593,1.081
4.594,1.117
4.595,1.091
4.596,1.014
4.597,0.897
4.598,0.744
4.599,0.591
4.600,0.456
4.601,0.359
4.602,0.277
4.603,0.209
4.604,0.150
4.605,0.103
4.606,0.074
4.607,0.047
4.608,0.028
4.609,0.006
4.610,-0.018
4.611,-0.038
4.612,-0.047
4.613,-0.050
4.614,-0.043
4.615,-0.038
4.616,-0.038
4.617,-0.038
4.618,-0.033
4.619,-0.016
4.620,0.002
4.621,0.019
4.622,0.030
4.623,0.041
4.624,0.050
4.625,0.059
4.626,0.066
4.627,0.059
4.628,0.048
4.629,0.038
4.630,0.031
4.631,0.025
4.632,0.014
4.633,0.003
4.634,-0.006
4.635,-0.009
4.636,-0.016
4.637,-0.019
4.638,-0.023
4.639,-0.031
4.640,-0.034
4.641,-0.034
4.642,-0.034
4.643,-0.034
4.644,-0.034
4.645,-0.034
4.646,-0.036
4.647,-0.034
4.648,-0.038
4.649,-0.041
4.650,-0.042
4.651,-0.047
4.652,-0.047
4.653,-0.047
4.654,-0.049
4.655,-0.047
4.656,-0.047
4.657,-0.047
4.658,-0.045
4.659,-0.047
4.660,-0.044
4.661,-0.047
4.662,-0.047
4.663,-0.047
4.664,-0.046
4.665,-0.044
4.666,-0.044
4.667,-0.047
4.668,-0.047
4.669,-0.047
4.670,-0.049
4.671,-0.047
4.672,-0.051
4.673,-0.050
4.674,-0.047
4.675,-0.050
4.676,-0.051
4.677,-0.053
4.678,-0.053
4.679,-0.053
4.680,-0.053
4.681,-0.053
4.682,-0.052
4.683,-0.050
4.684,-0.051
4.685,-0.050
4.686,-0.052
4.687,-0.050
4.688,-0.050
4.689,-0.050
4.690,-0.042
4.691,-0.044
4.692,-0.047
4.693,-0.050
4.694,-0.053
4.695,-0.053
4.696,-0.051
4.697,-0.053
4.698,-0.052
4.699,-0.050
4.700,-0.050
4.701,-0.050
4.702,-0.052
4.703,-0.050
4.704,-0.047
4.705,-0.047
4.706,-0.044
4.707,-0.044
4.708,-0.045
4.709,-0.047
4.710,-0.045
4.711,-0.047
4.712,-0.051
4.713,-0.050
4.714,-0.048
4.715,-0.050
4.716,-0.049
4.717,-0.050
4.718,-0.051
4.719,-0.053
4.720,-0.052
4.721,-0.050
4.722,-0.049
4.723,-0.050
4.724,-0.051
4.725,-0.053
4.726,-0.053
4.727,-0.053
4.728,-0.054
4.729,-0.053
4.730,-0.050
4.731,-0.050
4.732,-0.053
4.733,-0.056
4.734,-0.053
4.735,-0.053
4.736,-0.050
4.737,-0.050
4.738,-0.050
4.739,-0.050
4.740,-0.050
4.741,-0.050
4.742,-0.050
4.743,-0.050
4.744,-0.051
4.745,-0.053
4.746,-0.053
4.747,-0.053
4.748,-0.050
4.749,-0.050
4.750,-0.054
4.751,-0.053
4.752,-0.049
4.753,-0.047
4.754,-0.049
4.755,-0.047
4.756,-0.047
4.757,-0.047
4.758,-0.046
4.759,-0.044
4.760,-0.048
4.761,-0.047
4.762,-0.047
4.763,-0.047
4.764,-0.048
4.765,-0.050
4.766,-0.054
4.767,-0.053
4.768,-0.053
4.769,-0.053
4.770,-0.049
4.771,-0.047
4.772,-0.046
4.773,-0.041
4.774,-0.041
4.775,-0.038
4.776,-0.038
4.777,-0.038
4.778,-0.038
4.779,-0.038
4.780,-0.036
4.781,-0.038
4.782,-0.039
4.783,-0.038
4.784,-0.038
4.785,-0.038
4.786,-0.036
4.787,-0.031
4.788,-0.030
4.789,-0.031
4.790,-0.028
4.791,-0.028
4.792,-0.026
4.793,-0.028
4.794,-0.028
4.795,-0.028
4.796,-0.028
4.797,-0.028
4.798,-0.027
4.799,-0.025
4.800,-0.026
4.801,-0.025
4.802,-0.025
4.803,-0.028
4.804,-0.029
4.805,-0.031
4.806,-0.025
4.807,-0.019
4.808,-0.022
4.809,-0.019
4.810,-0.021
4.811,-0.022
4.812,-0.022
4.813,-0.022
4.814,-0.022
4.815,-0.022
4.816,-0.021
4.817,-0.019
4.818,-0.020
4.819,-0.022
4.820,-0.023
4.821,-0.025
4.822,-0.025
4.823,-0.025
4.824,-0.022
4.825,-0.022
4.826,-0.024
4.827,-0.022
4.828,-0.021
4.829,-0.019
4.830,-0.019
4.831,-0.019
4.832,-0.016
4.833,-0.019
4.834,-0.019
4.835,-0.019
4.836,-0.019
4.837,-0.019
4.838,-0.020
4.839,-0.019
4.840,-0.021
4.841,-0.016
4.842,-0.012
4.843,-0.012
4.844,-0.014
4.845,-0.016
4.846,-0.016
4.847,-0.019
4.848,-0.018
4.849,-0.019
4.850,-0.020
4.851,-0.022
4.852,-0.022
4.853,-0.019
4.854,-0.019
4.855,-0.022
4.856,-0.021
4.857,-0.019
4.858,-0.019
4.859,-0.016
4.860,-0.019
4.861,-0.019
4.862,-0.018
4.863,-0.016
4.864,-0.012
4.865,-0.009
4.866,-0.011
4.867,-0.012
4.868,-0.014
4.869,-0.016
4.870,-0.016
4.871,-0.016
4.872,-0.016
4.873,-0.016
4.874,-0.017
4.875,-0.016
4.876,-0.016
4.877,-0.016
4.878,-0.020
4.879,-0.019
4.880,-0.016
4.881,-0.012
4.882,-0.009
4.883,-0.009
4.884,-0.009
4.885,-0.009
4.886,-0.009
4.887,-0.009
4.888,-0.011
4.889,-0.009
4.890,-0.009
4.891,-0.009
4.892,-0.011
4.893,-0.012
4.894,-0.011
4.895,-0.006
4.896,-0.004
4.897,-0.003
4.898,-0.002
4.899,0.000
4.900,0.001
4.901,0.003
4.902,0.005
4.903,0.000
4.904,0.006
4.905,0.009
4.906,0.009
4.907,0.012
4.908,0.016
4.909,0.019
4.910,0.021
4.911,0.019
4.912,0.021
4.913,0.019
4.914,0.021
4.915,0.022
4.916,0.025
4.917,0.025
4.918,0.025
4.919,0.028
4.920,0.027
4.921,0.028
4.922,0.032
4.923,0.038
4.924,0.039
4.925,0.044
4.926,0.044
4.927,0.047
4.928,0.045
4.929,0.050
4.930,0.056
4.931,0.056
4.932,0.055
4.933,0.056
4.934,0.059
4.935,0.059
4.936,0.062
4.937,0.066
4.938,0.066
4.939,0.066
4.940,0.069
4.941,0.075
4.942,0.081
4.943,0.078
4.944,0.075
4.945,0.078
4.946,0.086
4.947,0.087
4.948,0.083
4.949,0.087
4.950,0.091
4.951,0.091
4.952,0.094
4.953,0.097
4.954,0.097
4.955,0.097
4.956,0.098
4.957,0.100
4.958,0.100
4.959,0.100
4.960,0.100
4.961,0.100
4.962,0.099
4.963,0.100
4.964,0.100
4.965,0.100
4.966,0.100
4.967,0.097
4.968,0.094
4.969,0.091
4.970,0.094
4.971,0.094
4.972,0.089
4.973,0.091
4.974,0.094
4.975,0.097
4.976,0.095
4.977,0.094
4.978,0.094
4.979,0.094
4.980,0.094
4.981,0.094
4.982,0.092
4.983,0.091
4.984,0.091
4.985,0.087
4.986,0.087
4.987,0.084
4.988,0.083
4.989,0.081
4.990,0.077
4.991,0.075
4.992,0.072
4.993,0.072
4.994,0.072
4.995,0.072
4.996,0.070
4.997,0.072
4.998,0.070
4.999,0.069
5.000,0.066
5.001,0.066
5.002,0.066
5.003,0.062
5.004,0.061
5.005,0.059
5.006,0.056
5.007,0.056
5.008,0.056
5.009,0.053
5.010,0.050
5.011,0.050
5.012,0.053
5.013,0.053
5.014,0.050
5.015,0.050
5.016,0.044
5.017,0.041
5.018,0.038
5.019,0.038
5.020,0.039
5.021,0.041
5.022,0.038
5.023,0.034
5.024,0.036
5.025,0.031
5.026,0.027
5.027,0.025
5.028,0.022
5.029,0.022
5.030,0.023
5.031,0.022
5.032,0.021
5.033,0.016
5.034,0.019
5.035,0.016
5.036,0.016
5.037,0.012
5.038,0.014
5.039,0.012
5.040,0.008
5.041,0.006
5.042,0.006
5.043,0.006
5.044,0.005
5.045,0.003
5.046,0.003
5.047,0.000
5.048,-0.004
5.049,-0.006
5.050,0.000
5.051,0.000
5.052,0.001
5.053,0.003
5.054,-0.001
5.055,-0.003
5.056,-0.004
5.057,-0.006
5.058,-0.006
5.059,-0.009
5.060,-0.009
5.061,-0.009
5.062,-0.012
5.063,-0.016
5.064,-0.016
5.065,-0.019
5.066,-0.019
5.067,-0.019
5.068,-0.016
5.069,-0.012
5.070,-0.008
5.071,-0.009
5.072,-0.014
5.073,-0.016
5.074,-0.014
5.075,-0.012
5.076,-0.017
5.077,-0.016
5.078,-0.016
5.079,-0.016
5.080,-0.019
5.081,-0.019
5.082,-0.020
5.083,-0.019
5.084,-0.021
5.085,-0.022
5.086,-0.020
5.087,-0.022
5.088,-0.021
5.089,-0.019
5.090,-0.019
5.091,-0.022
5.092,-0.019
5.093,-0.019
5.094,-0.019
5.095,-0.019
5.096,-0.019
5.097,-0.016
5.098,-0.020
5.099,-0.022
5.100,-0.022
5.101,-0.022
5.102,-0.022
5.103,-0.022
5.104,-0.021
5.105,-0.019
5.106,-0.019
5.107,-0.019
5.108,-0.021
5.109,-0.019
5.110,-0.020
5.111,-0.022
5.112,-0.023
5.113,-0.025
5.114,-0.029
5.115,-0.028
5.116,-0.028
5.117,-0.031
5.118,-0.032
5.119,-0.034
5.120,-0.034
5.121,-0.034
5.122,-0.034
5.123,-0.034
5.124,-0.034
5.125,-0.034
5.126,-0.031
5.127,-0.028
5.128,-0.028
5.129,-0.028
5.130,-0.027
5.131,-0.028
5.132,-0.029
5.133,-0.031
5.134,-0.031
5.135,-0.028
5.136,-0.032
5.137,-0.031
5.138,-0.031
5.139,-0.034
5.140,-0.034
5.141,-0.028
5.142,-0.031
5.143,-0.031
5.144,-0.036
5.145,-0.034
5.146,-0.030
5.147,-0.028
5.148,-0.031
5.149,-0.031
5.150,-0.028
5.151,-0.031
5.152,-0.034
5.153,-0.034
5.154,-0.036
5.155,-0.038
5.156,-0.036
5.157,-0.038
5.158,-0.036
5.159,-0.034
5.160,-0.034
5.161,-0.034
5.162,-0.036
5.163,-0.034
5.164,-0.038
5.165,-0.038
5.166,-0.041
5.167,-0.044
5.168,-0.043
5.169,-0.041
5.170,-0.041
5.171,-0.041
5.172,-0.042
5.173,-0.044
5.174,-0.047
5.175,-0.047
5.176,-0.043
5.177,-0.041
5.178,-0.038
5.179,-0.038
5.180,-0.036
5.181,-0.038
5.182,-0.041
5.183,-0.041
5.184,-0.041
5.185,-0.041
5.186,-0.039
5.187,-0.044
5.188,-0.047
5.189,-0.044
5.190,-0.048
5.191,-0.047
5.192,-0.048
5.193,-0.050
5.194,-0.049
5.195,-0.050
5.196,-0.050
5.197,-0.050
5.198,-0.049
5.199,-0.047
5.200,-0.048
5.201,-0.050
5.202,-0.049
5.203,-0.050
5.204,-0.051
5.205,-0.053
5.206,-0.049
5.207,-0.047
5.208,-0.050
5.209,-0.050
5.210,-0.050
5.211,-0.050
5.212,-0.050
5.213,-0.050
5.214,-0.046
5.215,-0.047
5.216,-0.051
5.217,-0.053
5.218,-0.054
5.219,-0.056
5.220,-0.050
5.221,-0.053
5.222,-0.053
5.223,-0.053
5.224,-0.053
5.225,-0.053
5.226,-0.052
5.227,-0.050
5.228,-0.050
5.229,-0.050
5.230,-0.049
5.231,-0.050
5.232,-0.048
5.233,-0.050
5.234,-0.054
5.235,-0.053
5.236,-0.052
5.237,-0.053
5.238,-0.054
5.239,-0.056
5.240,-0.051
5.241,-0.053
5.242,-0.053
5.243,-0.056
5.244,-0.059
5.245,-0.063
5.246,-0.056
5.247,-0.056
5.248,-0.059
5.249,-0.059
5.250,-0.059
5.251,-0.056
5.252,-0.055
5.253,-0.056
5.254,-0.056
5.255,-0.059
5.256,-0.058
5.257,-0.059
5.258,-0.064
5.259,-0.063
5.260,-0.059
5.261,-0.056
5.262,-0.059
5.263,-0.059
5.264,-0.061
5.265,-0.063
5.266,-0.064
5.267,-0.066
5.268,-0.066
5.269,-0.063
5.270,-0.056
5.271,-0.056
5.272,-0.058
5.273,-0.056
5.274,-0.063
5.275,-0.063
5.276,-0.061
5.277,-0.059
5.278,-0.058
5.279,-0.059
5.280,-0.061
5.281,-0.059
5.282,-0.064
5.283,-0.066
5.284,-0.061
5.285,-0.063
5.286,-0.061
5.287,-0.059
5.288,-0.056
5.289,-0.059
5.290,-0.061
5.291,-0.063
5.292,-0.058
5.293,-0.059
5.294,-0.058
5.295,-0.059
5.296,-0.059
5.297,-0.063
5.298,-0.064
5.299,-0.066
5.300,-0.066
5.301,-0.063
5.302,-0.059
5.303,-0.056
5.304,-0.056
5.305,-0.056
5.306,-0.059
5.307,-0.063
5.308,-0.059
5.309,-0.059
5.310,-0.063
5.311,-0.066
5.312,-0.069
5.313,-0.072
5.314,-0.071
5.315,-0.069
5.316,-0.074
5.317,-0.072
5.318,-0.071
5.319,-0.066
5.320,-0.066
5.321,-0.066
5.322,-0.063
5.323,-0.059
5.324,-0.055
5.325,-0.056
5.326,-0.059
5.327,-0.059
5.328,-0.061
5.329,-0.063
5.330,-0.063
5.331,-0.063
5.332,-0.061
5.333,-0.063
5.334,-0.064
5.335,-0.066
5.336,-0.066
5.337,-0.066
5.338,-0.066
5.339,-0.066
5.340,-0.066
5.341,-0.066
5.342,-0.066
5.343,-0.066
5.344,-0.063
5.345,-0.059
5.346,-0.059
5.347,-0.059
5.348,-0.058
5.349,-0.063
5.350,-0.063
5.351,-0.063
5.352,-0.059
5.353,-0.059
5.354,-0.056
5.355,-0.059
5.356,-0.059
5.357,-0.059
5.358,-0.061
5.359,-0.056
5.360,-0.059
5.361,-0.059
5.362,-0.059
5.363,-0.059
5.364,-0.058
5.365,-0.056
5.366,-0.056
5.367,-0.056
5.368,-0.059
5.369,-0.063
5.370,-0.066
5.371,-0.066
5.372,-0.064
5.373,-0.066
5.374,-0.063
5.375,-0.056
5.376,-0.059
5.377,-0.059
5.378,-0.059
5.379,-0.059
5.380,-0.059
5.381,-0.059
5.382,-0.059
5.383,-0.059
5.384,-0.058
5.385,-0.059
5.386,-0.056
5.387,-0.056
5.388,-0.059
5.389,-0.056
5.390,-0.043
5.391,-0.034
5.392,-0.025
5.393,-0.019
5.394,-0.012
5.395,-0.006
5.396,-0.005
5.397,0.000
5.398,-0.001
5.399,-0.003
5.400,-0.001
5.401,-0.003
5.402,-0.001
5.403,-0.003
5.404,-0.002
5.405,-0.006
5.406,-0.004
5.407,-0.006
5.408,-0.009
5.409,-0.009
5.410,-0.011
5.411,-0.012
5.412,-0.011
5.413,-0.003
5.414,0.004
5.415,0.016
5.416,0.024
5.417,0.038
5.418,0.054
5.419,0.078
5.420,0.096
5.421,0.106
5.422,0.117
5.423,0.128
5.424,0.128
5.425,0.125
5.426,0.126
5.427,0.125
5.428,0.127
5.429,0.128
5.430,0.131
5.431,0.134
5.432,0.141
5.433,0.141
5.434,0.139
5.435,0.141
5.436,0.131
5.437,0.125
5.438,0.117
5.439,0.106
5.440,0.097
5.441,0.094
5.442,0.092
5.443,0.091
5.444,0.095
5.445,0.094
5.446,0.091
5.447,0.087
5.448,0.077
5.449,0.075
5.450,0.075
5.451,0.072
5.452,0.071
5.453,0.072
5.454,0.069
5.455,0.069
5.456,0.066
5.457,0.062
5.458,0.061
5.459,0.059
5.460,0.061
5.461,0.062
5.462,0.066
5.463,0.069
5.464,0.067
5.465,0.059
5.466,0.046
5.467,0.031
5.468,0.022
5.469,0.012
5.470,0.000
5.471,-0.009
5.472,-0.009
5.473,-0.012
5.474,-0.016
5.475,-0.016
5.476,-0.020
5.477,-0.025
5.478,-0.029
5.479,-0.034
5.480,-0.043
5.481,-0.047
5.482,-0.050
5.483,-0.056
5.484,-0.052
5.485,-0.053
5.486,-0.054
5.487,-0.059
5.488,-0.063
5.489,-0.066
5.490,-0.068
5.491,-0.066
5.492,-0.069
5.493,-0.069
5.494,-0.070
5.495,-0.072
5.496,-0.069
5.497,-0.069
5.498,-0.069
5.499,-0.069
5.500,-0.068
5.501,-0.069
5.502,-0.073
5.503,-0.078
5.504,-0.081
5.505,-0.081
5.506,-0.083
5.507,-0.084
5.508,-0.084
5.509,-0.084
5.510,-0.084
5.511,-0.084
5.512,-0.086
5.513,-0.087
5.514,-0.089
5.515,-0.087
5.516,-0.086
5.517,-0.087
5.518,-0.091
5.519,-0.091
5.520,-0.092
5.521,-0.091
5.522,-0.091
5.523,-0.094
5.524,-0.095
5.525,-0.097
5.526,-0.098
5.527,-0.097
5.528,-0.097
5.529,-0.094
5.530,-0.094
5.531,-0.094
5.532,-0.092
5.533,-0.094
5.534,-0.093
5.535,-0.094
5.536,-0.092
5.537,-0.094
5.538,-0.095
5.539,-0.094
5.540,-0.095
5.541,-0.094
5.542,-0.091
5.543,-0.087
5.544,-0.087
5.545,-0.091
5.546,-0.094
5.547,-0.094
5.548,-0.106
5.549,-0.116
5.550,-0.126
5.551,-0.128
5.552,-0.123
5.553,-0.119
5.554,-0.109
5.555,-0.097
5.556,-0.076
5.557,-0.053
5.558,-0.025
5.559,0.006
5.560,0.020
5.561,0.031
5.562,0.044
5.563,0.059
5.564,0.083
5.565,0.113
5.566,0.146
5.567,0.187
5.568,0.242
5.569,0.300
5.570,0.373
5.571,0.437
5.572,0.496
5.573,0.566
5.574,0.670
5.575,0.756
5.576,0.783
5.577,0.800
5.578,0.793
5.579,0.803
5.580,0.876
5.581,0.938
5.582,1.020
5.583,1.084
5.584,1.104
5.585,1.072
5.586,0.976
5.587,0.853
5.588,0.692
5.589,0.544
5.590,0.422
5.591,0.334
5.592,0.266
5.593,0.203
5.594,0.156
5.595,0.113
5.596,0.087
5.597,0.066
5.598,0.038
5.599,0.009
5.600,-0.020
5.601,-0.041
5.602,-0.050
5.603,-0.047
5.604,-0.044
5.605,-0.044
5.606,-0.048
5.607,-0.050
5.608,-0.034
5.609,-0.016
5.610,0.003
5.611,0.016
5.612,0.031
5.613,0.041
5.614,0.044
5.615,0.050
5.616,0.053
5.617,0.047
5.618,0.034
5.619,0.025
5.620,0.014
5.621,0.006
5.622,0.003
5.623,-0.003
5.624,-0.006
5.625,-0.012
5.626,-0.019
5.627,-0.025
5.628,-0.031
5.629,-0.034
5.630,-0.036
5.631,-0.038
5.632,-0.038
5.633,-0.038
5.634,-0.036
5.635,-0.038
5.636,-0.038
5.637,-0.041
5.638,-0.045
5.639,-0.047
5.640,-0.050
5.641,-0.050
5.642,-0.053
5.643,-0.059
5.644,-0.058
5.645,-0.056
5.646,-0.058
5.647,-0.056
5.648,-0.056
5.649,-0.053
5.650,-0.056
5.651,-0.056
5.652,-0.055
5.653,-0.053
5.654,-0.053
5.655,-0.053
5.656,-0.055
5.657,-0.053
5.658,-0.054
5.659,-0.059
5.660,-0.061
5.661,-0.066
5.662,-0.064
5.663,-0.063
5.664,-0.066
5.665,-0.066
5.666,-0.066
5.667,-0.066
5.668,-0.064
5.669,-0.063
5.670,-0.063
5.671,-0.063
5.672,-0.063
5.673,-0.063
5.674,-0.061
5.675,-0.066
5.676,-0.066
5.677,-0.066
5.678,-0.064
5.679,-0.053
5.680,-0.053
5.681,-0.056
5.682,-0.059
5.683,-0.063
5.684,-0.066
5.685,-0.066
5.686,-0.066
5.687,-0.066
5.688,-0.066
5.689,-0.066
5.690,-0.064
5.691,-0.066
5.692,-0.067
5.693,-0.066
5.694,-0.061
5.695,-0.056
5.696,-0.059
5.697,-0.059
5.698,-0.063
5.699,-0.063
5.700,-0.064
5.701,-0.069
5.702,-0.067
5.703,-0.066
5.704,-0.064
5.705,-0.063
5.706,-0.066
5.707,-0.066
5.708,-0.066
5.709,-0.066
5.710,-0.066
5.711,-0.066
5.712,-0.068
5.713,-0.066
5.714,-0.066
5.715,-0.066
5.716,-0.067
5.717,-0.069
5.718,-0.067
5.719,-0.069
5.720,-0.072
5.721,-0.072
5.722,-0.073
5.723,-0.075
5.724,-0.077
5.725,-0.072
5.726,-0.072
5.727,-0.072
5.728,-0.072
5.729,-0.072
5.730,-0.072
5.731,-0.072
5.732,-0.072
5.733,-0.072
5.734,-0.072
5.735,-0.072
5.736,-0.073
5.737,-0.072
5.738,-0.071
5.739,-0.072
5.740,-0.070
5.741,-0.069
5.742,-0.069
5.743,-0.072
5.744,-0.072
5.745,-0.069
5.746,-0.066
5.747,-0.066
5.748,-0.064
5.749,-0.066
5.750,-0.064
5.751,-0.066
5.752,-0.066
5.753,-0.066
5.754,-0.066
5.755,-0.069
5.756,-0.067
5.757,-0.069
5.758,-0.070
5.759,-0.069
5.760,-0.069
5.761,-0.069
5.762,-0.064
5.763,-0.063
5.764,-0.059
5.765,-0.059
5.766,-0.058
5.767,-0.056
5.768,-0.055
5.769,-0.050
5.770,-0.051
5.771,-0.053
5.772,-0.051
5.773,-0.053
5.774,-0.053
5.775,-0.053
5.776,-0.049
5.777,-0.047
5.778,-0.051
5.779,-0.050
5.780,-0.050
5.781,-0.047
5.782,-0.048
5.783,-0.050
5.784,-0.049
5.785,-0.047
5.786,-0.044
5.787,-0.041
5.788,-0.041
5.789,-0.041
5.790,-0.036
5.791,-0.034
5.792,-0.038
5.793,-0.038
5.794,-0.039
5.795,-0.038
5.796,-0.034
5.797,-0.038
5.798,-0.031
5.799,-0.031
5.800,-0.033
5.801,-0.031
5.802,-0.036
5.803,-0.038
5.804,-0.039
5.805,-0.044
5.806,-0.043
5.807,-0.041
5.808,-0.038
5.809,-0.034
5.810,-0.034
5.811,-0.034
5.812,-0.034
5.813,-0.031
5.814,-0.030
5.815,-0.031
5.816,-0.031
5.817,-0.031
5.818,-0.031
5.819,-0.031
5.820,-0.031
5.821,-0.028
5.822,-0.032
5.823,-0.034
5.824,-0.034
5.825,-0.034
5.826,-0.034
5.827,-0.034
5.828,-0.030
5.829,-0.031
5.830,-0.028
5.831,-0.028
5.832,-0.032
5.833,-0.034
5.834,-0.036
5.835,-0.034
5.836,-0.033
5.837,-0.031
5.838,-0.034
5.839,-0.034
5.840,-0.034
5.841,-0.034
5.842,-0.031
5.843,-0.031
5.844,-0.034
5.845,-0.034
5.846,-0.034
5.847,-0.034
5.848,-0.031
5.849,-0.034
5.850,-0.034
5.851,-0.034
5.852,-0.031
5.853,-0.028
5.854,-0.028
5.855,-0.028
5.856,-0.028
5.857,-0.028
5.858,-0.029
5.859,-0.031
5.860,-0.031
5.861,-0.031
5.862,-0.031
5.863,-0.031
5.864,-0.029
5.865,-0.031
5.866,-0.030
5.867,-0.031
5.868,-0.029
5.869,-0.031
5.870,-0.028
5.871,-0.022
5.872,-0.023
5.873,-0.025
5.874,-0.024
5.875,-0.022
5.876,-0.022
5.877,-0.022
5.878,-0.020
5.879,-0.022
5.880,-0.022
5.881,-0.022
5.882,-0.022
5.883,-0.022
5.884,-0.019
5.885,-0.016
5.886,-0.014
5.887,-0.016
5.888,-0.016
5.889,-0.016
5.890,-0.014
5.891,-0.009
5.892,-0.012
5.893,-0.006
5.894,-0.002
5.895,-0.003
5.896,-0.003
5.897,0.000
5.898,0.002
5.899,0.003
5.900,0.002
5.901,0.003
5.902,0.003
5.903,0.006
5.904,0.008
5.905,0.009
5.906,0.009
5.907,0.009
5.908,0.011
5.909,0.009
5.910,0.008
5.911,0.006
5.912,0.009
5.913,0.009
5.914,0.017
5.915,0.022
5.916,0.026
5.917,0.025
5.918,0.027
5.919,0.031
5.920,0.031
5.921,0.031
5.922,0.034
5.923,0.038
5.924,0.039
5.925,0.044
5.926,0.047
5.927,0.047
5.928,0.047
5.929,0.047
5.930,0.047
5.931,0.050
5.932,0.051
5.933,0.053
5.934,0.055
5.935,0.059
5.936,0.061
5.937,0.059
5.938,0.067
5.939,0.069
5.940,0.070
5.941,0.078
5.942,0.081
5.943,0.081
5.944,0.081
5.945,0.081
5.946,0.081
5.947,0.081
5.948,0.081
5.949,0.081
5.950,0.081
5.951,0.081
5.952,0.083
5.953,0.081
5.954,0.080
5.955,0.078
5.956,0.078
5.957,0.081
5.958,0.081
5.959,0.081
5.960,0.078
5.961,0.075
5.962,0.078
5.963,0.078
5.964,0.079
5.965,0.078
5.966,0.074
5.967,0.072
5.968,0.072
5.969,0.072
5.970,0.072
5.971,0.069
5.972,0.067
5.973,0.069
5.974,0.064
5.975,0.062
5.976,0.059
5.977,0.059
5.978,0.061
5.979,0.059
5.980,0.059
5.981,0.056
5.982,0.055
5.983,0.053
5.984,0.054
5.985,0.053
5.986,0.054
5.987,0.053
5.988,0.050
5.989,0.047
5.990,0.047
5.991,0.047
5.992,0.044
5.993,0.044
5.994,0.042
5.995,0.038
5.996,0.038
5.997,0.038
5.998,0.036
5.999,0.034
6.000,0.033
6.001,0.031
6.002,0.029
6.003,0.028
6.004,0.029
6.005,0.028
6.006,0.027
6.007,0.022
6.008,0.021
6.009,0.019
6.010,0.019
6.011,0.016
6.012,0.012
6.013,0.016
6.014,0.012
6.015,0.009
6.016,0.009
6.017,0.006
6.018,0.006
6.019,0.006
6.020,0.004
6.021,0.006
6.022,0.002
6.023,0.003
6.024,0.000
6.025,0.000
6.026,-0.004
6.027,-0.006
6.028,-0.008
6.029,-0.009
6.030,-0.011
6.031,-0.012
6.032,-0.014
6.033,-0.016
6.034,-0.016
6.035,-0.016
6.036,-0.018
6.037,-0.019
6.038,-0.020
6.039,-0.019
6.040,-0.022
6.041,-0.022
6.042,-0.019
6.043,-0.019
6.044,-0.020
6.045,-0.022
6.046,-0.021
6.047,-0.019
6.048,-0.025
6.049,-0.028
6.050,-0.029
6.051,-0.031
6.052,-0.030
6.053,-0.028
6.054,-0.027
6.055,-0.022
6.056,-0.025
6.057,-0.028
6.058,-0.032
6.059,-0.034
6.060,-0.036
6.061,-0.038
6.062,-0.036
6.063,-0.034
6.064,-0.036
6.065,-0.041
6.066,-0.041
6.067,-0.044
6.068,-0.038
6.069,-0.034
6.070,-0.033
6.071,-0.031
6.072,-0.027
6.073,-0.028
6.074,-0.032
6.075,-0.031
6.076,-0.031
6.077,-0.031
6.078,-0.032
6.079,-0.034
6.080,-0.039
6.081,-0.038
6.082,-0.038
6.083,-0.038
6.084,-0.039
6.085,-0.041
6.086,-0.036
6.087,-0.038
6.088,-0.038
6.089,-0.038
6.090,-0.038
6.091,-0.038
6.092,-0.038
6.093,-0.038
6.094,-0.039
6.095,-0.041
6.096,-0.039
6.097,-0.041
6.098,-0.041
6.099,-0.041
6.100,-0.042
6.101,-0.044
6.102,-0.043
6.103,-0.044
6.104,-0.042
6.105,-0.044
6.106,-0.046
6.107,-0.044
6.108,-0.043
6.109,-0.041
6.110,-0.042
6.111,-0.044
6.112,-0.044
6.113,-0.044
6.114,-0.044
6.115,-0.044
6.116,-0.044
6.117,-0.044
6.118,-0.044
6.119,-0.044
6.120,-0.047
6.121,-0.047
6.122,-0.046
6.123,-0.044
6.124,-0.039
6.125,-0.041
6.126,-0.039
6.127,-0.041
6.128,-0.045
6.129,-0.050
6.130,-0.048
6.131,-0.053
6.132,-0.052
6.133,-0.053
6.134,-0.049
6.135,-0.044
6.136,-0.043
6.137,-0.044
6.138,-0.045
6.139,-0.044
6.140,-0.047
6.141,-0.047
6.142,-0.045
6.143,-0.047
6.144,-0.047
6.145,-0.047
6.146,-0.050
6.147,-0.050
6.148,-0.050
6.149,-0.050
6.150,-0.050
6.151,-0.053
6.152,-0.052
6.153,-0.053
6.154,-0.053
6.155,-0.053
6.156,-0.056
6.157,-0.059
6.158,-0.061
6.159,-0.063
6.160,-0.061
6.161,-0.059
6.162,-0.058
6.163,-0.056
6.164,-0.054
6.165,-0.056
6.166,-0.058
6.167,-0.056
6.168,-0.056
6.169,-0.050
6.170,-0.049
6.171,-0.050
6.172,-0.051
6.173,-0.053
6.174,-0.056
6.175,-0.056
6.176,-0.061
6.177,-0.066
6.178,-0.066
6.179,-0.072
6.180,-0.069
6.181,-0.069
6.182,-0.068
6.183,-0.066
6.184,-0.068
6.185,-0.066
6.186,-0.066
6.187,-0.066
6.188,-0.064
6.189,-0.063
6.190,-0.061
6.191,-0.059
6.192,-0.064
6.193,-0.066
6.194,-0.069
6.195,-0.069
6.196,-0.068
6.197,-0.069
6.198,-0.069
6.199,-0.069
6.200,-0.069
6.201,-0.069
6.202,-0.070
6.203,-0.069
6.204,-0.071
6.205,-0.072
6.206,-0.072
6.207,-0.072
6.208,-0.073
6.209,-0.069
6.210,-0.072
6.211,-0.072
6.212,-0.069
6.213,-0.066
6.214,-0.066
6.215,-0.066
6.216,-0.067
6.217,-0.069
6.218,-0.068
6.219,-0.066
6.220,-0.070
6.221,-0.069
6.222,-0.069
6.223,-0.072
6.224,-0.069
6.225,-0.069
6.226,-0.072
6.227,-0.072
6.228,-0.074
6.229,-0.075
6.230,-0.075
6.231,-0.075
6.232,-0.075
6.233,-0.072
6.234,-0.072
6.235,-0.069
6.236,-0.070
6.237,-0.069
6.238,-0.069
6.239,-0.066
6.240,-0.068
6.241,-0.066
6.242,-0.066
6.243,-0.069
6.244,-0.066
6.245,-0.069
6.246,-0.070
6.247,-0.072
6.248,-0.073
6.249,-0.075
6.250,-0.075
6.251,-0.075
6.252,-0.074
6.253,-0.072
6.254,-0.075
6.255,-0.078
6.256,-0.075
6.257,-0.075
6.258,-0.077
6.259,-0.075
6.260,-0.072
6.261,-0.075
6.262,-0.075
6.263,-0.075
6.264,-0.074
6.265,-0.072
6.266,-0.075
6.267,-0.078
6.268,-0.081
6.269,-0.081
6.270,-0.078
6.271,-0.069
6.272,-0.067
6.273,-0.069
6.274,-0.061
6.275,-0.050
6.276,-0.047
6.277,-0.041
6.278,-0.039
6.279,-0.038
6.280,-0.030
6.281,-0.025
6.282,-0.021
6.283,-0.019
6.284,-0.020
6.285,-0.019
6.286,-0.020
6.287,-0.019
6.288,-0.019
6.289,-0.019
6.290,-0.024
6.291,-0.019
6.292,-0.019
6.293,-0.019
6.294,-0.012
6.295,-0.009
6.296,-0.016
6.297,-0.019
6.298,-0.014
6.299,-0.012
6.300,-0.006
6.301,0.000
6.302,0.014
6.303,0.028
6.304,0.050
6.305,0.069
6.306,0.089
6.307,0.106
6.308,0.125
6.309,0.134
6.310,0.131
6.311,0.131
6.312,0.127
6.313,0.128
6.314,0.131
6.315,0.134
6.316,0.136
6.317,0.137
6.318,0.137
6.319,0.137
6.320,0.141
6.321,0.137
6.322,0.137
6.323,0.137
6.324,0.131
6.325,0.122
6.326,0.116
6.327,0.109
6.328,0.106
6.329,0.106
6.330,0.103
6.331,0.100
6.332,0.097
6.333,0.091
6.334,0.080
6.335,0.072
6.336,0.071
6.337,0.069
6.338,0.073
6.339,0.072
6.340,0.076
6.341,0.078
6.342,0.076
6.343,0.078
6.344,0.075
6.345,0.075
6.346,0.079
6.347,0.078
6.348,0.074
6.349,0.066
6.350,0.053
6.351,0.041
6.352,0.028
6.353,0.022
6.354,0.014
6.355,0.003
6.356,-0.008
6.357,-0.016
6.358,-0.019
6.359,-0.019
6.360,-0.018
6.361,-0.019
6.362,-0.021
6.363,-0.022
6.364,-0.022
6.365,-0.028
6.366,-0.041
6.367,-0.050
6.368,-0.056
6.369,-0.053
6.370,-0.056
6.371,-0.056
6.372,-0.061
6.373,-0.063
6.374,-0.059
6.375,-0.059
6.376,-0.061
6.377,-0.066
6.378,-0.067
6.379,-0.069
6.380,-0.068
6.381,-0.066
6.382,-0.070
6.383,-0.072
6.384,-0.072
6.385,-0.072
6.386,-0.074
6.387,-0.072
6.388,-0.071
6.389,-0.072
6.390,-0.071
6.391,-0.072
6.392,-0.078
6.393,-0.081
6.394,-0.083
6.395,-0.084
6.396,-0.083
6.397,-0.084
6.398,-0.089
6.399,-0.091
6.400,-0.087
6.401,-0.087
6.402,-0.091
6.403,-0.094
6.404,-0.094
6.405,-0.094
6.406,-0.089
6.407,-0.087
6.408,-0.091
6.409,-0.091
6.410,-0.094
6.411,-0.097
6.412,-0.091
6.413,-0.091
6.414,-0.087
6.415,-0.084
6.416,-0.087
6.417,-0.087
6.418,-0.087
6.419,-0.087
6.420,-0.092
6.421,-0.091
6.422,-0.089
6.423,-0.087
6.424,-0.086
6.425,-0.087
6.426,-0.087
6.427,-0.091
6.428,-0.089
6.429,-0.091
6.430,-0.093
6.431,-0.097
6.432,-0.104
6.433,-0.119
6.434,-0.128
6.435,-0.128
6.436,-0.122
6.437,-0.116
6.438,-0.103
6.439,-0.087
6.440,-0.069
6.441,-0.044
6.442,-0.020
6.443,0.003
6.444,0.028
6.445,0.038
6.446,0.048
6.447,0.072
6.448,0.096
6.449,0.125
6.450,0.164
6.451,0.213
6.452,0.273
6.453,0.344
6.454,0.402
6.455,0.463
6.456,0.528
6.457,0.594
6.458,0.678
6.459,0.763
6.460,0.812
6.461,0.816
6.462,0.819
6.463,0.834
6.464,0.866
6.465,0.938
6.466,0.991
6.467,1.037
6.468,1.053
6.469,1.006
6.470,0.919
6.471,0.791
6.472,0.653
6.473,0.516
6.474,0.394
6.475,0.309
6.476,0.244
6.477,0.194
6.478,0.150
6.479,0.119
6.480,0.092
6.481,0.069
6.482,0.044
6.483,0.016
6.484,-0.005
6.485,-0.022
6.486,-0.030
6.487,-0.031
6.488,-0.024
6.489,-0.019
6.490,-0.018
6.491,-0.016
6.492,-0.009
6.493,0.009
6.494,0.024
6.495,0.038
6.496,0.047
6.497,0.056
6.498,0.058
6.499,0.059
6.500,0.064
6.501,0.056
6.502,0.047
6.503,0.038
6.504,0.029
6.505,0.022
6.506,0.016
6.507,0.009
6.508,-0.003
6.509,-0.009
6.510,-0.014
6.511,-0.016
6.512,-0.018
6.513,-0.022
6.514,-0.026
6.515,-0.028
6.516,-0.028
6.517,-0.028
6.518,-0.028
6.519,-0.028
6.520,-0.030
6.521,-0.028
6.522,-0.031
6.523,-0.034
6.524,-0.034
6.525,-0.038
6.526,-0.036
6.527,-0.034
6.528,-0.038
6.529,-0.038
6.530,-0.038
6.531,-0.038
6.532,-0.038
6.533,-0.041
6.534,-0.039
6.535,-0.044
6.536,-0.044
6.537,-0.044
6.538,-0.044
6.539,-0.044
6.540,-0.044
6.541,-0.047
6.542,-0.044
6.543,-0.041
6.544,-0.044
6.545,-0.044
6.546,-0.047
6.547,-0.044
6.548,-0.041
6.549,-0.044
6.550,-0.047
6.551,-0.050
6.552,-0.050
6.553,-0.050
6.554,-0.050
6.555,-0.050
6.556,-0.051
6.557,-0.053
6.558,-0.050
6.559,-0.044
6.560,-0.046
6.561,-0.044
6.562,-0.045
6.563,-0.047
6.564,-0.038
6.565,-0.038
6.566,-0.042
6.567,-0.047
6.568,-0.047
6.569,-0.044
6.570,-0.039
6.571,-0.038
6.572,-0.041
6.573,-0.044
6.574,-0.044
6.575,-0.044
6.576,-0.047
6.577,-0.047
6.578,-0.044
6.579,-0.044
6.580,-0.041
6.581,-0.041
6.582,-0.045
6.583,-0.050
6.584,-0.047
6.585,-0.047
6.586,-0.049
6.587,-0.044
6.588,-0.042
6.589,-0.044
6.590,-0.043
6.591,-0.044
6.592,-0.044
6.593,-0.044
6.594,-0.044
6.595,-0.044
6.596,-0.045
6.597,-0.050
6.598,-0.050
6.599,-0.050
6.600,-0.050
6.601,-0.050
6.602,-0.051
6.603,-0.050
6.604,-0.046
6.605,-0.044
6.606,-0.044
6.607,-0.044
6.608,-0.043
6.609,-0.044
6.610,-0.041
6.611,-0.041
6.612,-0.041
6.613,-0.041
6.614,-0.042
6.615,-0.044
6.616,-0.044
6.617,-0.044
6.618,-0.044
6.619,-0.044
6.620,-0.044
6.621,-0.044
6.622,-0.042
6.623,-0.044
6.624,-0.048
6.625,-0.047
6.626,-0.045
6.627,-0.047
6.628,-0.050
6.629,-0.050
6.630,-0.047
6.631,-0.044
6.632,-0.044
6.633,-0.044
6.634,-0.047
6.635,-0.044
6.636,-0.039
6.637,-0.034
6.638,-0.034
6.639,-0.034
6.640,-0.039
6.641,-0.038
6.642,-0.036
6.643,-0.034
6.644,-0.031
6.645,-0.031
6.646,-0.032
6.647,-0.031
6.648,-0.032
6.649,-0.031
6.650,-0.032
6.651,-0.034
6.652,-0.033
6.653,-0.031
6.654,-0.028
6.655,-0.028
6.656,-0.029
6.657,-0.028
6.658,-0.024
6.659,-0.019
6.660,-0.020
6.661,-0.019
6.662,-0.018
6.663,-0.019
6.664,-0.016
6.665,-0.016
6.666,-0.016
6.667,-0.019
6.668,-0.019
6.669,-0.019
6.670,-0.019
6.671,-0.019
6.672,-0.020
6.673,-0.022
6.674,-0.021
6.675,-0.016
6.676,-0.014
6.677,-0.016
6.678,-0.017
6.679,-0.019
6.680,-0.017
6.681,-0.016
6.682,-0.019
6.683,-0.016
6.684,-0.018
6.685,-0.019
6.686,-0.018
6.687,-0.016
6.688,-0.014
6.689,-0.012
6.690,-0.011
6.691,-0.009
6.692,-0.009
6.693,-0.009
6.694,-0.011
6.695,-0.012
6.696,-0.012
6.697,-0.012
6.698,-0.011
6.699,-0.012
6.700,-0.014
6.701,-0.012
6.702,-0.012
6.703,-0.012
6.704,-0.012
6.705,-0.012
6.706,-0.009
6.707,-0.012
6.708,-0.011
6.709,-0.009
6.710,-0.008
6.711,-0.006
6.712,-0.005
6.713,0.000
6.714,-0.008
6.715,-0.009
6.716,-0.009
6.717,-0.012
6.718,-0.009
6.719,-0.006
6.720,-0.003
6.721,-0.003
6.722,-0.003
6.723,-0.006
6.724,-0.006
6.725,-0.006
6.726,-0.006
6.727,-0.003
6.728,-0.003
6.729,-0.006
6.730,-0.008
6.731,-0.009
6.732,-0.011
6.733,-0.009
6.734,-0.012
6.735,-0.012
6.736,-0.011
6.737,-0.009
6.738,-0.009
6.739,-0.009
6.740,-0.009
6.741,-0.009
6.742,-0.009
6.743,-0.009
6.744,-0.006
6.745,-0.003
6.746,-0.003
6.747,-0.003
6.748,-0.002
6.749,0.003
6.750,0.003
6.751,0.003
6.752,-0.001
6.753,0.000
6.754,0.000
6.755,0.000
6.756,0.003
6.757,0.003
6.758,0.003
6.759,0.003
6.760,0.003
6.761,0.003
6.762,0.004
6.763,0.009
6.764,0.009
6.765,0.009
6.766,0.009
6.767,0.009
6.768,0.011
6.769,0.016
6.770,0.016
6.771,0.016
6.772,0.016
6.773,0.016
6.774,0.016
6.775,0.016
6.776,0.020
6.777,0.019
6.778,0.024
6.779,0.025
6.780,0.023
6.781,0.025
6.782,0.025
6.783,0.025
6.784,0.032
6.785,0.038
6.786,0.041
6.787,0.041
6.788,0.041
6.789,0.041
6.790,0.045
6.791,0.047
6.792,0.048
6.793,0.053
6.794,0.053
6.795,0.056
6.796,0.059
6.797,0.062
6.798,0.064
6.799,0.069
6.800,0.068
6.801,0.069
6.802,0.067
6.803,0.072
6.804,0.078
6.805,0.078
6.806,0.079
6.807,0.084
6.808,0.089
6.809,0.091
6.810,0.092
6.811,0.094
6.812,0.094
6.813,0.094
6.814,0.089
6.815,0.087
6.816,0.095
6.817,0.094
6.818,0.092
6.819,0.097
6.820,0.103
6.821,0.103
6.822,0.092
6.823,0.091
6.824,0.092
6.825,0.091
6.826,0.092
6.827,0.094
6.828,0.094
6.829,0.094
6.830,0.094
6.831,0.094
6.832,0.094
6.833,0.094
6.834,0.097
6.835,0.100
6.836,0.099
6.837,0.100
6.838,0.100
6.839,0.100
6.840,0.101
6.841,0.100
6.842,0.099
6.843,0.097
6.844,0.097
6.845,0.094
6.846,0.089
6.847,0.091
6.848,0.089
6.849,0.087
6.850,0.084
6.851,0.081
6.852,0.081
6.853,0.081
6.854,0.080
6.855,0.078
6.856,0.072
6.857,0.066
6.858,0.066
6.859,0.062
6.860,0.064
6.861,0.062
6.862,0.062
6.863,0.062
6.864,0.061
6.865,0.062
6.866,0.059
6.867,0.059
6.868,0.061
6.869,0.062
6.870,0.058
6.871,0.056
6.872,0.047
6.873,0.038
6.874,0.036
6.875,0.038
6.876,0.039
6.877,0.038
6.878,0.039
6.879,0.041
6.880,0.038
6.881,0.038
6.882,0.041
6.883,0.041
6.884,0.036
6.885,0.034
6.886,0.034
6.887,0.031
6.888,0.029
6.889,0.031
6.890,0.027
6.891,0.025
6.892,0.021
6.893,0.019
6.894,0.018
6.895,0.016
6.896,0.012
6.897,0.009
6.898,0.014
6.899,0.012
6.900,0.011
6.901,0.012
6.902,0.009
6.903,0.009
6.904,0.009
6.905,0.006
6.906,0.008
6.907,0.006
6.908,0.009
6.909,0.006
6.910,0.005
6.911,0.000
6.912,0.004
6.913,0.006
6.914,0.003
6.915,0.003
6.916,0.003
6.917,0.003
6.918,0.003
6.919,0.003
6.920,0.003
6.921,0.000
6.922,-0.008
6.923,-0.012
6.924,-0.008
6.925,-0.009
6.926,-0.009
6.927,-0.009
6.928,-0.012
6.929,-0.012
6.930,-0.014
6.931,-0.016
6.932,-0.014
6.933,-0.016
6.934,-0.016
6.935,-0.016
6.936,-0.012
6.937,-0.009
6.938,-0.008
6.939,-0.009
6.940,-0.009
6.941,-0.009
6.942,-0.011
6.943,-0.012
6.944,-0.009
6.945,-0.012
6.946,-0.016
6.947,-0.016
6.948,-0.016
6.949,-0.016
6.950,-0.019
6.951,-0.016
6.952,-0.017
6.953,-0.019
6.954,-0.023
6.955,-0.025
6.956,-0.024
6.957,-0.019
6.958,-0.019
6.959,-0.019
6.960,-0.016
6.961,-0.016
6.962,-0.016
6.963,-0.016
6.964,-0.017
6.965,-0.022
6.966,-0.019
6.967,-0.019
6.968,-0.019
6.969,-0.019
6.970,-0.019
6.971,-0.016
6.972,-0.019
6.973,-0.019
6.974,-0.020
6.975,-0.022
6.976,-0.022
6.977,-0.022
6.978,-0.023
6.979,-0.025
6.980,-0.022
6.981,-0.019
6.982,-0.022
6.983,-0.022
6.984,-0.022
6.985,-0.022
6.986,-0.021
6.987,-0.019
6.988,-0.021
6.989,-0.016
6.990,-0.014
6.991,-0.016
6.992,-0.016
6.993,-0.016
6.994,-0.020
6.995,-0.025
6.996,-0.026
6.997,-0.028
6.998,-0.028
6.999,-0.028
7.000,-0.028
7.001,-0.028
7.002,-0.025
7.003,-0.022
7.004,-0.023
7.005,-0.028
7.006,-0.028
7.007,-0.028
7.008,-0.027
7.009,-0.022
7.010,-0.026
7.011,-0.025
7.012,-0.022
7.013,-0.022
7.014,-0.028
7.015,-0.028
7.016,-0.030
7.017,-0.028
7.018,-0.032
7.019,-0.031
7.020,-0.028
7.021,-0.028
7.022,-0.031
7.023,-0.031
7.024,-0.028
7.025,-0.031
7.026,-0.031
7.027,-0.028
7.028,-0.027
7.029,-0.025
7.030,-0.024
7.031,-0.025
7.032,-0.025
7.033,-0.025
7.034,-0.024
7.035,-0.022
7.036,-0.026
7.037,-0.028
7.038,-0.032
7.039,-0.034
7.040,-0.034
7.041,-0.034
7.042,-0.033
7.043,-0.031
7.044,-0.032
7.045,-0.034
7.046,-0.034
7.047,-0.034
7.048,-0.034
7.049,-0.031
7.050,-0.031
7.051,-0.034
7.052,-0.033
7.053,-0.034
7.054,-0.034
7.055,-0.038
7.056,-0.041
7.057,-0.041
7.058,-0.041
7.059,-0.041
7.060,-0.036
7.061,-0.038
7.062,-0.039
7.063,-0.034
7.064,-0.039
7.065,-0.038
7.066,-0.039
7.067,-0.041
7.068,-0.039
7.069,-0.041
7.070,-0.042
7.071,-0.044
7.072,-0.044
7.073,-0.044
7.074,-0.045
7.075,-0.047
7.076,-0.046
7.077,-0.047
7.078,-0.047
7.079,-0.047
7.080,-0.045
7.081,-0.047
7.082,-0.047
7.083,-0.044
7.084,-0.044
7.085,-0.044
7.086,-0.043
7.087,-0.041
7.088,-0.039
7.089,-0.044
7.090,-0.044
7.091,-0.044
7.092,-0.041
7.093,-0.041
7.094,-0.038
7.095,-0.041
7.096,-0.044
7.097,-0.047
7.098,-0.050
7.099,-0.047
7.100,-0.051
7.101,-0.053
7.102,-0.053
7.103,-0.053
7.104,-0.053
7.105,-0.053
7.106,-0.052
7.107,-0.050
7.108,-0.049
7.109,-0.047
7.110,-0.048
7.111,-0.047
7.112,-0.046
7.113,-0.047
7.114,-0.047
7.115,-0.044
7.116,-0.044
7.117,-0.041
7.118,-0.042
7.119,-0.044
7.120,-0.045
7.121,-0.047
7.122,-0.046
7.123,-0.044
7.124,-0.044
7.125,-0.047
7.126,-0.042
7.127,-0.041
7.128,-0.041
7.129,-0.034
7.130,-0.025
7.131,-0.022
7.132,-0.011
7.133,-0.003
7.134,0.000
7.135,0.003
7.136,0.004
7.137,0.009
7.138,0.012
7.139,0.016
7.140,0.016
7.141,0.012
7.142,0.014
7.143,0.012
7.144,0.016
7.145,0.012
7.146,0.012
7.147,0.009
7.148,0.005
7.149,0.003
7.150,0.004
7.151,0.006
7.152,0.016
7.153,0.031
7.154,0.045
7.155,0.062
7.156,0.073
7.157,0.091
7.158,0.103
7.159,0.122
7.160,0.133
7.161,0.137
7.162,0.141
7.163,0.144
7.164,0.145
7.165,0.144
7.166,0.145
7.167,0.144
7.168,0.146
7.169,0.147
7.170,0.153
7.171,0.159
7.172,0.166
7.173,0.166
7.174,0.164
7.175,0.166
7.176,0.156
7.177,0.150
7.178,0.146
7.179,0.137
7.180,0.133
7.181,0.134
7.182,0.131
7.183,0.128
7.184,0.127
7.185,0.119
7.186,0.113
7.187,0.106
7.188,0.097
7.189,0.097
7.190,0.099
7.191,0.097
7.192,0.097
7.193,0.100
7.194,0.096
7.195,0.094
7.196,0.092
7.197,0.091
7.198,0.092
7.199,0.094
7.200,0.087
7.201,0.081
7.202,0.074
7.203,0.066
7.204,0.061
7.205,0.050
7.206,0.039
7.207,0.028
7.208,0.022
7.209,0.016
7.210,0.008
7.211,0.003
7.212,-0.001
7.213,-0.009
7.214,-0.012
7.215,-0.012
7.216,-0.019
7.217,-0.025
7.218,-0.029
7.219,-0.034
7.220,-0.044
7.221,-0.050
7.222,-0.050
7.223,-0.053
7.224,-0.050
7.225,-0.053
7.226,-0.054
7.227,-0.059
7.228,-0.063
7.229,-0.066
7.230,-0.068
7.231,-0.066
7.232,-0.069
7.233,-0.069
7.234,-0.069
7.235,-0.069
7.236,-0.068
7.237,-0.069
7.238,-0.068
7.239,-0.066
7.240,-0.064
7.241,-0.066
7.242,-0.072
7.243,-0.078
7.244,-0.084
7.245,-0.087
7.246,-0.087
7.247,-0.087
7.248,-0.091
7.249,-0.094
7.250,-0.094
7.251,-0.094
7.252,-0.094
7.253,-0.094
7.254,-0.094
7.255,-0.091
7.256,-0.087
7.257,-0.087
7.258,-0.091
7.259,-0.091
7.260,-0.092
7.261,-0.091
7.262,-0.091
7.263,-0.094
7.264,-0.095
7.265,-0.097
7.266,-0.100
7.267,-0.100
7.268,-0.103
7.269,-0.103
7.270,-0.102
7.271,-0.100
7.272,-0.096
7.273,-0.094
7.274,-0.093
7.275,-0.094
7.276,-0.091
7.277,-0.091
7.278,-0.092
7.279,-0.091
7.280,-0.092
7.281,-0.091
7.282,-0.091
7.283,-0.091
7.284,-0.089
7.285,-0.091
7.286,-0.103
7.287,-0.113
7.288,-0.125
7.289,-0.134
7.290,-0.136
7.291,-0.128
7.292,-0.119
7.293,-0.109
7.294,-0.096
7.295,-0.078
7.296,-0.053
7.297,-0.025
7.298,-0.004
7.299,0.019
7.300,0.031
7.301,0.041
7.302,0.061
7.303,0.084
7.304,0.117
7.305,0.156
7.306,0.204
7.307,0.262
7.308,0.327
7.309,0.394
7.310,0.459
7.311,0.516
7.312,0.584
7.313,0.666
7.314,0.741
7.315,0.797
7.316,0.802
7.317,0.797
7.318,0.816
7.319,0.853
7.320,0.939
7.321,1.013
7.322,1.049
7.323,1.066
7.324,1.028
7.325,0.938
7.326,0.816
7.327,0.666
7.328,0.537
7.329,0.422
7.330,0.322
7.331,0.256
7.332,0.200
7.333,0.150
7.334,0.126
7.335,0.106
7.336,0.077
7.337,0.050
7.338,0.022
7.339,-0.006
7.340,-0.022
7.341,-0.028
7.342,-0.039
7.343,-0.038
7.344,-0.034
7.345,-0.034
7.346,-0.031
7.347,-0.025
7.348,-0.008
7.349,0.012
7.350,0.028
7.351,0.038
7.352,0.047
7.353,0.050
7.354,0.053
7.355,0.059
7.356,0.058
7.357,0.047
7.358,0.033
7.359,0.022
7.360,0.009
7.361,0.000
7.362,-0.005
7.363,-0.012
7.364,-0.014
7.365,-0.019
7.366,-0.025
7.367,-0.031
7.368,-0.034
7.369,-0.034
7.370,-0.034
7.371,-0.034
7.372,-0.036
7.373,-0.038
7.374,-0.034
7.375,-0.034
7.376,-0.034
7.377,-0.038
7.378,-0.042
7.379,-0.044
7.380,-0.047
7.381,-0.047
7.382,-0.047
7.383,-0.050
7.384,-0.051
7.385,-0.053
7.386,-0.054
7.387,-0.053
7.388,-0.052
7.389,-0.047
7.390,-0.049
7.391,-0.047
7.392,-0.050
7.393,-0.053
7.394,-0.054
7.395,-0.056
7.396,-0.059
7.397,-0.059
7.398,-0.058
7.399,-0.059
7.400,-0.059
7.401,-0.063
7.402,-0.058
7.403,-0.053
7.404,-0.053
7.405,-0.050
7.406,-0.050
7.407,-0.050
7.408,-0.050
7.409,-0.050
7.410,-0.054
7.411,-0.059
7.412,-0.061
7.413,-0.063
7.414,-0.059
7.415,-0.063
7.416,-0.064
7.417,-0.066
7.418,-0.070
7.419,-0.066
7.420,-0.059
7.421,-0.056
7.422,-0.056
7.423,-0.056
7.424,-0.058
7.425,-0.056
7.426,-0.056
7.427,-0.056
7.428,-0.055
7.429,-0.053
7.430,-0.052
7.431,-0.053
7.432,-0.056
7.433,-0.056
7.434,-0.055
7.435,-0.053
7.436,-0.056
7.437,-0.056
7.438,-0.058
7.439,-0.056
7.440,-0.055
7.441,-0.056
7.442,-0.056
7.443,-0.056
7.444,-0.056
7.445,-0.056
7.446,-0.058
7.447,-0.056
7.448,-0.055
7.449,-0.053
7.450,-0.053
7.451,-0.053
7.452,-0.056
7.453,-0.056
7.454,-0.056
7.455,-0.056
7.456,-0.053
7.457,-0.050
7.458,-0.047
7.459,-0.047
7.460,-0.054
7.461,-0.059
7.462,-0.063
7.463,-0.066
7.464,-0.069
7.465,-0.066
7.466,-0.063
7.467,-0.059
7.468,-0.056
7.469,-0.053
7.470,-0.053
7.471,-0.053
7.472,-0.054
7.473,-0.056
7.474,-0.056
7.475,-0.056
7.476,-0.058
7.477,-0.056
7.478,-0.056
7.479,-0.059
7.480,-0.059
7.481,-0.059
7.482,-0.058
7.483,-0.059
7.484,-0.059
7.485,-0.056
7.486,-0.050
7.487,-0.047
7.488,-0.044
7.489,-0.044
7.490,-0.042
7.491,-0.044
7.492,-0.045
7.493,-0.047
7.494,-0.046
7.495,-0.047
7.496,-0.045
7.497,-0.047
7.498,-0.048
7.499,-0.047
7.500,-0.047
7.501,-0.047
7.502,-0.041
7.503,-0.038
7.504,-0.034
7.505,-0.034
7.506,-0.034
7.507,-0.034
7.508,-0.036
7.509,-0.034
7.510,-0.034
7.511,-0.034
7.512,-0.032
7.513,-0.034
7.514,-0.034
7.515,-0.034
7.516,-0.031
7.517,-0.031
7.518,-0.034
7.519,-0.031
7.520,-0.031
7.521,-0.028
7.522,-0.028
7.523,-0.028
7.524,-0.028
7.525,-0.028
7.526,-0.028
7.527,-0.028
7.528,-0.029
7.529,-0.031
7.530,-0.027
7.531,-0.025
7.532,-0.028
7.533,-0.028
7.534,-0.029
7.535,-0.028
7.536,-0.025
7.537,-0.028
7.538,-0.026
7.539,-0.031
7.540,-0.034
7.541,-0.034
7.542,-0.034
7.543,-0.031
7.544,-0.029
7.545,-0.031
7.546,-0.028
7.547,-0.025
7.548,-0.025
7.549,-0.025
7.550,-0.025
7.551,-0.025
7.552,-0.024
7.553,-0.019
7.554,-0.020
7.555,-0.025
7.556,-0.026
7.557,-0.028
7.558,-0.024
7.559,-0.019
7.560,-0.019
7.561,-0.016
7.562,-0.019
7.563,-0.019
7.564,-0.019
7.565,-0.019
7.566,-0.022
7.567,-0.025
7.568,-0.022
7.569,-0.025
7.570,-0.022
7.571,-0.022
7.572,-0.025
7.573,-0.025
7.574,-0.024
7.575,-0.019
7.576,-0.019
7.577,-0.019
7.578,-0.023
7.579,-0.025
7.580,-0.025
7.581,-0.025
7.582,-0.021
7.583,-0.019
7.584,-0.023
7.585,-0.025
7.586,-0.025
7.587,-0.025
7.588,-0.019
7.589,-0.019
7.590,-0.020
7.591,-0.022
7.592,-0.021
7.593,-0.019
7.594,-0.019
7.595,-0.019
7.596,-0.019
7.597,-0.019
7.598,-0.020
7.599,-0.022
7.600,-0.021
7.601,-0.019
7.602,-0.018
7.603,-0.016
7.604,-0.012
7.605,-0.012
7.606,-0.012
7.607,-0.016
7.608,-0.009
7.609,-0.006
7.610,-0.008
7.611,-0.006
7.612,-0.003
7.613,0.000
7.614,-0.001
7.615,-0.003
7.616,-0.003
7.617,-0.003
7.618,-0.001
7.619,-0.003
7.620,-0.002
7.621,0.000
7.622,-0.001
7.623,-0.003
7.624,-0.003
7.625,-0.003
7.626,0.003
7.627,0.006
7.628,0.011
7.629,0.016
7.630,0.017
7.631,0.022
7.632,0.016
7.633,0.019
7.634,0.022
7.635,0.019
7.636,0.018
7.637,0.019
7.638,0.019
7.639,0.019
7.640,0.019
7.641,0.022
7.642,0.023
7.643,0.028
7.644,0.030
7.645,0.031
7.646,0.038
7.647,0.044
7.648,0.047
7.649,0.047
7.650,0.050
7.651,0.053
7.652,0.058
7.653,0.059
7.654,0.064
7.655,0.066
7.656,0.069
7.657,0.066
7.658,0.068
7.659,0.072
7.660,0.073
7.661,0.075
7.662,0.077
7.663,0.078
7.664,0.077
7.665,0.078
7.666,0.080
7.667,0.078
7.668,0.078
7.669,0.078
7.670,0.080
7.671,0.084
7.672,0.084
7.673,0.084
7.674,0.084
7.675,0.087
7.676,0.089
7.677,0.087
7.678,0.095
7.679,0.097
7.680,0.092
7.681,0.094
7.682,0.098
7.683,0.100
7.684,0.097
7.685,0.094
7.686,0.092
7.687,0.091
7.688,0.089
7.689,0.087
7.690,0.089
7.691,0.091
7.692,0.094
7.693,0.094
7.694,0.091
7.695,0.087
7.696,0.084
7.697,0.084
7.698,0.084
7.699,0.084
7.700,0.082
7.701,0.081
7.702,0.084
7.703,0.084
7.704,0.086
7.705,0.084
7.706,0.081
7.707,0.081
7.708,0.081
7.709,0.081
7.710,0.078
7.711,0.072
7.712,0.066
7.713,0.062
7.714,0.061
7.715,0.062
7.716,0.059
7.717,0.059
7.718,0.059
7.719,0.056
7.720,0.056
7.721,0.053
7.722,0.053
7.723,0.053
7.724,0.053
7.725,0.050
7.726,0.051
7.727,0.050
7.728,0.047
7.729,0.044
7.730,0.044
7.731,0.044
7.732,0.038
7.733,0.034
7.734,0.034
7.735,0.031
7.736,0.031
7.737,0.031
7.738,0.028
7.739,0.025
7.740,0.025
7.741,0.025
7.742,0.023
7.743,0.022
7.744,0.021
7.745,0.016
7.746,0.016
7.747,0.012
7.748,0.012
7.749,0.012
7.750,0.012
7.751,0.009
7.752,0.006
7.753,0.009
7.754,0.006
7.755,0.003
7.756,0.003
7.757,0.000
7.758,0.001
7.759,0.003
7.760,0.000
7.761,0.000
7.762,-0.006
7.763,-0.006
7.764,-0.008
7.765,-0.006
7.766,-0.008
7.767,-0.006
7.768,-0.009
7.769,-0.012
7.770,-0.012
7.771,-0.012
7.772,-0.014
7.773,-0.016
7.774,-0.016
7.775,-0.016
7.776,-0.018
7.777,-0.019
7.778,-0.020
7.779,-0.019
7.780,-0.022
7.781,-0.022
7.782,-0.021
7.783,-0.022
7.784,-0.023
7.785,-0.025
7.786,-0.024
7.787,-0.022
7.788,-0.025
7.789,-0.025
7.790,-0.025
7.791,-0.025
7.792,-0.025
7.793,-0.025
7.794,-0.028
7.795,-0.028
7.796,-0.029
7.797,-0.031
7.798,-0.031
7.799,-0.028
7.800,-0.030
7.801,-0.031
7.802,-0.031
7.803,-0.031
7.804,-0.031
7.805,-0.034
7.806,-0.030
7.807,-0.028
7.808,-0.027
7.809,-0.028
7.810,-0.029
7.811,-0.031
7.812,-0.027
7.813,-0.028
7.814,-0.034
7.815,-0.034
7.816,-0.034
7.817,-0.034
7.818,-0.033
7.819,-0.031
7.820,-0.036
7.821,-0.034
7.822,-0.036
7.823,-0.038
7.824,-0.038
7.825,-0.038
7.826,-0.033
7.827,-0.034
7.828,-0.034
7.829,-0.034
7.830,-0.036
7.831,-0.038
7.832,-0.036
7.833,-0.034
7.834,-0.034
7.835,-0.034
7.836,-0.033
7.837,-0.034
7.838,-0.038
7.839,-0.041
7.840,-0.039
7.841,-0.038
7.842,-0.038
7.843,-0.041
7.844,-0.038
7.845,-0.038
7.846,-0.042
7.847,-0.044
7.848,-0.044
7.849,-0.044
7.850,-0.044
7.851,-0.044
7.852,-0.044
7.853,-0.044
7.854,-0.044
7.855,-0.044
7.856,-0.045
7.857,-0.047
7.858,-0.047
7.859,-0.047
7.860,-0.049
7.861,-0.047
7.862,-0.047
7.863,-0.047
7.864,-0.043
7.865,-0.044
7.866,-0.041
7.867,-0.041
7.868,-0.044
7.869,-0.047
7.870,-0.045
7.871,-0.050
7.872,-0.050
7.873,-0.053
7.874,-0.050
7.875,-0.047
7.876,-0.047
7.877,-0.050
7.878,-0.050
7.879,-0.047
7.880,-0.050
7.881,-0.050
7.882,-0.048
7.883,-0.050
7.884,-0.053
7.885,-0.056
7.886,-0.058
7.887,-0.056
7.888,-0.055
7.889,-0.053
7.890,-0.052
7.891,-0.053
7.892,-0.052
7.893,-0.053
7.894,-0.056
7.895,-0.059
7.896,-0.061
7.897,-0.063
7.898,-0.059
7.899,-0.056
7.900,-0.056
7.901,-0.056
7.902,-0.056
7.903,-0.056
7.904,-0.052
7.905,-0.050
7.906,-0.052
7.907,-0.050
7.908,-0.054
7.909,-0.053
7.910,-0.054
7.911,-0.059
7.912,-0.061
7.913,-0.063
7.914,-0.063
7.915,-0.059
7.916,-0.061
7.917,-0.063
7.918,-0.061
7.919,-0.066
7.920,-0.064
7.921,-0.066
7.922,-0.064
7.923,-0.063
7.924,-0.066
7.925,-0.066
7.926,-0.066
7.927,-0.066
7.928,-0.066
7.929,-0.066
7.930,-0.066
7.931,-0.066
7.932,-0.069
7.933,-0.069
7.934,-0.070
7.935,-0.069
7.936,-0.069
7.937,-0.072
7.938,-0.072
7.939,-0.072
7.940,-0.072
7.941,-0.072
7.942,-0.072
7.943,-0.069
7.944,-0.069
7.945,-0.069
7.946,-0.069
7.947,-0.069
7.948,-0.069
7.949,-0.063
7.950,-0.066
7.951,-0.066
7.952,-0.064
7.953,-0.063
7.954,-0.063
7.955,-0.063
7.956,-0.064
7.957,-0.066
7.958,-0.064
7.959,-0.063
7.960,-0.069
7.961,-0.069
7.962,-0.069
7.963,-0.072
7.964,-0.070
7.965,-0.072
7.966,-0.075
7.967,-0.075
7.968,-0.076
7.969,-0.072
7.970,-0.071
7.971,-0.069
7.972,-0.072
7.973,-0.072
7.974,-0.073
7.975,-0.072
7.976,-0.072
7.977,-0.072
7.978,-0.073
7.979,-0.075
7.980,-0.072
7.981,-0.072
7.982,-0.074
7.983,-0.072
7.984,-0.079
7.985,-0.081
7.986,-0.080
7.987,-0.081
7.988,-0.078
7.989,-0.078
7.990,-0.078
7.991,-0.081
7.992,-0.083
7.993,-0.084
7.994,-0.083
7.995,-0.081
7.996,-0.080
7.997,-0.078
7.998,-0.078
7.999,-0.078
8.000,-0.080
8.001,-0.081
8.002,-0.081
8.003,-0.084
8.004,-0.083
8.005,-0.084
8.006,-0.083
8.007,-0.081
8.008,-0.084
8.009,-0.084
8.010,-0.081
8.011,-0.084
8.012,-0.086
8.013,-0.084
8.014,-0.087
8.015,-0.087
8.016,-0.084
8.017,-0.078
8.018,-0.081
8.019,-0.081
8.020,-0.083
8.021,-0.081
8.022,-0.083
8.023,-0.081
8.024,-0.078
8.025,-0.075
8.026,-0.076
8.027,-0.078
8.028,-0.078
8.029,-0.078
8.030,-0.078
8.031,-0.078
8.032,-0.081
8.033,-0.081
8.034,-0.084
8.035,-0.084
8.036,-0.084
8.037,-0.081
8.038,-0.080
8.039,-0.075
8.040,-0.079
8.041,-0.081
8.042,-0.080
8.043,-0.081
8.044,-0.078
8.045,-0.081
8.046,-0.081
8.047,-0.081
8.048,-0.078
8.049,-0.075
8.050,-0.075
8.051,-0.075
8.052,-0.076
8.053,-0.078
8.054,-0.077
8.055,-0.075
8.056,-0.072
8.057,-0.072
8.058,-0.075
8.059,-0.075
8.060,-0.073
8.061,-0.078
8.062,-0.079
8.063,-0.081
8.064,-0.081
8.065,-0.081
8.066,-0.080
8.067,-0.078
8.068,-0.077
8.069,-0.072
8.070,-0.073
8.071,-0.069
8.072,-0.061
8.073,-0.056
8.074,-0.047
8.075,-0.034
8.076,-0.034
8.077,-0.031
8.078,-0.029
8.079,-0.028
8.080,-0.026
8.081,-0.028
8.082,-0.022
8.083,-0.019
8.084,-0.020
8.085,-0.019
8.086,-0.022
8.087,-0.022
8.088,-0.021
8.089,-0.019
8.090,-0.025
8.091,-0.022
8.092,-0.022
8.093,-0.022
8.094,-0.020
8.095,-0.022
8.096,-0.018
8.097,-0.009
8.098,0.001
8.099,0.009
8.100,0.025
8.101,0.041
8.102,0.058
8.103,0.075
8.104,0.091
8.105,0.103
8.106,0.113
8.107,0.119
8.108,0.127
8.109,0.125
8.110,0.122
8.111,0.122
8.112,0.119
8.113,0.122
8.114,0.126
8.115,0.131
8.116,0.130
8.117,0.128
8.118,0.126
8.119,0.125
8.120,0.124
8.121,0.116
8.122,0.108
8.123,0.100
8.124,0.098
8.125,0.094
8.126,0.094
8.127,0.094
8.128,0.089
8.129,0.087
8.130,0.078
8.131,0.069
8.132,0.064
8.133,0.056
8.134,0.055
8.135,0.056
8.136,0.056
8.137,0.056
8.138,0.062
8.139,0.062
8.140,0.062
8.141,0.059
8.142,0.055
8.143,0.053
8.144,0.050
8.145,0.050
8.146,0.054
8.147,0.053
8.148,0.046
8.149,0.034
8.150,0.023
8.151,0.012
8.152,-0.001
8.153,-0.009
8.154,-0.012
8.155,-0.019
8.156,-0.024
8.157,-0.025
8.158,-0.030
8.159,-0.031
8.160,-0.032
8.161,-0.038
8.162,-0.047
8.163,-0.056
8.164,-0.056
8.165,-0.063
8.166,-0.068
8.167,-0.069
8.168,-0.075
8.169,-0.072
8.170,-0.074
8.171,-0.072
8.172,-0.074
8.173,-0.072
8.174,-0.071
8.175,-0.072
8.176,-0.073
8.177,-0.078
8.178,-0.078
8.179,-0.078
8.180,-0.079
8.181,-0.081
8.182,-0.086
8.183,-0.087
8.184,-0.091
8.185,-0.094
8.186,-0.096
8.187,-0.094
8.188,-0.094
8.189,-0.097
8.190,-0.094
8.191,-0.094
8.192,-0.098
8.193,-0.100
8.194,-0.101
8.195,-0.103
8.196,-0.102
8.197,-0.103
8.198,-0.105
8.199,-0.103
8.200,-0.099
8.201,-0.097
8.202,-0.099
8.203,-0.100
8.204,-0.100
8.205,-0.100
8.206,-0.098
8.207,-0.100
8.208,-0.103
8.209,-0.103
8.210,-0.100
8.211,-0.097
8.212,-0.095
8.213,-0.100
8.214,-0.101
8.215,-0.103
8.216,-0.106
8.217,-0.106
8.218,-0.105
8.219,-0.103
8.220,-0.106
8.221,-0.103
8.222,-0.103
8.223,-0.103
8.224,-0.099
8.225,-0.097
8.226,-0.094
8.227,-0.094
8.228,-0.093
8.229,-0.094
8.230,-0.096
8.231,-0.100
8.232,-0.109
8.233,-0.125
8.234,-0.137
8.235,-0.141
8.236,-0.134
8.237,-0.128
8.238,-0.120
8.239,-0.109
8.240,-0.094
8.241,-0.072
8.242,-0.041
8.243,-0.009
8.244,0.014
8.245,0.022
8.246,0.028
8.247,0.047
8.248,0.069
8.249,0.097
8.250,0.127
8.251,0.166
8.252,0.222
8.253,0.288
8.254,0.355
8.255,0.425
8.256,0.487
8.257,0.550
8.258,0.631
8.259,0.713
8.260,0.775
8.261,0.791
8.262,0.792
8.263,0.806
8.264,0.839
8.265,0.912
8.266,0.979
8.267,1.041
8.268,1.072
8.269,1.041
8.270,0.972
8.271,0.862
8.272,0.714
8.273,0.566
8.274,0.436
8.275,0.344
8.276,0.275
8.277,0.222
8.278,0.175
8.279,0.141
8.280,0.113
8.281,0.087
8.282,0.055
8.283,0.019
8.284,-0.009
8.285,-0.034
8.286,-0.043
8.287,-0.044
8.288,-0.038
8.289,-0.034
8.290,-0.034
8.291,-0.034
8.292,-0.025
8.293,-0.003
8.294,0.011
8.295,0.025
8.296,0.036
8.297,0.047
8.298,0.050
8.299,0.053
8.300,0.059
8.301,0.053
8.302,0.039
8.303,0.025
8.304,0.019
8.305,0.012
8.306,0.005
8.307,-0.003
8.308,-0.011
8.309,-0.012
8.310,-0.020
8.311,-0.025
8.312,-0.027
8.313,-0.031
8.314,-0.038
8.315,-0.041
8.316,-0.042
8.317,-0.044
8.318,-0.041
8.319,-0.038
8.320,-0.042
8.321,-0.044
8.322,-0.047
8.323,-0.050
8.324,-0.049
8.325,-0.050
8.326,-0.049
8.327,-0.047
8.328,-0.050
8.329,-0.050
8.330,-0.051
8.331,-0.053
8.332,-0.051
8.333,-0.053
8.334,-0.051
8.335,-0.056
8.336,-0.056
8.337,-0.056
8.338,-0.056
8.339,-0.056
8.340,-0.056
8.341,-0.059
8.342,-0.058
8.343,-0.056
8.344,-0.059
8.345,-0.059
8.346,-0.064
8.347,-0.063
8.348,-0.058
8.349,-0.059
8.350,-0.061
8.351,-0.063
8.352,-0.063
8.353,-0.063
8.354,-0.063
8.355,-0.063
8.356,-0.064
8.357,-0.066
8.358,-0.064
8.359,-0.059
8.360,-0.061
8.361,-0.059
8.362,-0.061
8.363,-0.063
8.364,-0.054
8.365,-0.056
8.366,-0.056
8.367,-0.056
8.368,-0.059
8.369,-0.059
8.370,-0.058
8.371,-0.059
8.372,-0.059
8.373,-0.059
8.374,-0.059
8.375,-0.059
8.376,-0.063
8.377,-0.063
8.378,-0.058
8.379,-0.056
8.380,-0.055
8.381,-0.056
8.382,-0.056
8.383,-0.056
8.384,-0.056
8.385,-0.059
8.386,-0.063
8.387,-0.059
8.388,-0.058
8.389,-0.059
8.390,-0.056
8.391,-0.056
8.392,-0.058
8.393,-0.059
8.394,-0.058
8.395,-0.056
8.396,-0.058
8.397,-0.063
8.398,-0.063
8.399,-0.063
8.400,-0.064
8.401,-0.066
8.402,-0.067
8.403,-0.066
8.404,-0.059
8.405,-0.056
8.406,-0.058
8.407,-0.059
8.408,-0.058
8.409,-0.059
8.410,-0.059
8.411,-0.063
8.412,-0.063
8.413,-0.063
8.414,-0.063
8.415,-0.063
8.416,-0.063
8.417,-0.063
8.418,-0.063
8.419,-0.063
8.420,-0.063
8.421,-0.063
8.422,-0.059
8.423,-0.059
8.424,-0.063
8.425,-0.059
8.426,-0.056
8.427,-0.056
8.428,-0.059
8.429,-0.059
8.430,-0.059
8.431,-0.059
8.432,-0.056
8.433,-0.053
8.434,-0.056
8.435,-0.053
8.436,-0.053
8.437,-0.053
8.438,-0.053
8.439,-0.053
8.440,-0.056
8.441,-0.053
8.442,-0.053
8.443,-0.053
8.444,-0.050
8.445,-0.050
8.446,-0.050
8.447,-0.047
8.448,-0.047
8.449,-0.044
8.450,-0.041
8.451,-0.038
8.452,-0.039
8.453,-0.041
8.454,-0.041
8.455,-0.044
8.456,-0.045
8.457,-0.044
8.458,-0.043
8.459,-0.041
8.460,-0.041
8.461,-0.038
8.462,-0.036
8.463,-0.038
8.464,-0.036
8.465,-0.038
8.466,-0.033
8.467,-0.031
8.468,-0.031
8.469,-0.031
8.470,-0.032
8.471,-0.034
8.472,-0.034
8.473,-0.034
8.474,-0.033
8.475,-0.028
8.476,-0.027
8.477,-0.028
8.478,-0.029
8.479,-0.031
8.480,-0.029
8.481,-0.028
8.482,-0.031
8.483,-0.028
8.484,-0.030
8.485,-0.031
8.486,-0.031
8.487,-0.031
8.488,-0.029
8.489,-0.028
8.490,-0.028
8.491,-0.028
8.492,-0.028
8.493,-0.028
8.494,-0.028
8.495,-0.028
8.496,-0.025
8.497,-0.022
8.498,-0.016
8.499,-0.012
8.500,-0.017
8.501,-0.019
8.502,-0.020
8.503,-0.022
8.504,-0.022
8.505,-0.022
8.506,-0.020
8.507,-0.025
8.508,-0.024
8.509,-0.022
8.510,-0.023
8.511,-0.025
8.512,-0.025
8.513,-0.022
8.514,-0.024
8.515,-0.019
8.516,-0.019
8.517,-0.022
8.518,-0.022
8.519,-0.022
8.520,-0.020
8.521,-0.022
8.522,-0.021
8.523,-0.022
8.524,-0.023
8.525,-0.025
8.526,-0.026
8.527,-0.025
8.528,-0.024
8.529,-0.025
8.530,-0.022
8.531,-0.019
8.532,-0.020
8.533,-0.019
8.534,-0.023
8.535,-0.025
8.536,-0.025
8.537,-0.025
8.538,-0.024
8.539,-0.022
8.540,-0.021
8.541,-0.019
8.542,-0.016
8.543,-0.012
8.544,-0.012
8.545,-0.012
8.546,-0.012
8.547,-0.012
8.548,-0.014
8.549,-0.012
8.550,-0.012
8.551,-0.012
8.552,-0.016
8.553,-0.012
8.554,-0.014
8.555,-0.016
8.556,-0.014
8.557,-0.016
8.558,-0.014
8.559,-0.012
8.560,-0.012
8.561,-0.012
8.562,-0.016
8.563,-0.016
8.564,-0.014
8.565,-0.012
8.566,-0.012
8.567,-0.012
8.568,-0.014
8.569,-0.012
8.570,-0.006
8.571,0.000
8.572,0.000
8.573,0.000
8.574,0.000
8.575,0.000
8.576,0.003
8.577,0.000
8.578,0.003
8.579,0.003
8.580,0.001
8.581,0.003
8.582,0.006
8.583,0.009
8.584,0.011
8.585,0.009
8.586,0.016
8.587,0.019
8.588,0.021
8.589,0.022
8.590,0.025
8.591,0.025
8.592,0.028
8.593,0.034
8.594,0.031
8.595,0.031
8.596,0.038
8.597,0.044
8.598,0.042
8.599,0.044
8.600,0.045
8.601,0.050
8.602,0.050
8.603,0.056
8.604,0.061
8.605,0.059
8.606,0.059
8.607,0.062
8.608,0.066
8.609,0.066
8.610,0.072
8.611,0.078
8.612,0.078
8.613,0.078
8.614,0.078
8.615,0.081
8.616,0.087
8.617,0.084
8.618,0.080
8.619,0.081
8.620,0.091
8.621,0.094
8.622,0.091
8.623,0.097
8.624,0.098
8.625,0.097
8.626,0.099
8.627,0.100
8.628,0.100
8.629,0.100
8.630,0.101
8.631,0.103
8.632,0.103
8.633,0.103
8.634,0.103
8.635,0.103
8.636,0.102
8.637,0.103
8.638,0.103
8.639,0.103
8.640,0.106
8.641,0.106
8.642,0.106
8.643,0.106
8.644,0.107
8.645,0.106
8.646,0.102
8.647,0.103
8.648,0.103
8.649,0.103
8.650,0.101
8.651,0.100
8.652,0.100
8.653,0.100
8.654,0.099
8.655,0.097
8.656,0.097
8.657,0.097
8.658,0.098
8.659,0.097
8.660,0.098
8.661,0.097
8.662,0.098
8.663,0.100
8.664,0.094
8.665,0.091
8.666,0.086
8.667,0.084
8.668,0.084
8.669,0.084
8.670,0.081
8.671,0.081
8.672,0.077
8.673,0.072
8.674,0.070
8.675,0.072
8.676,0.073
8.677,0.072
8.678,0.071
8.679,0.069
8.680,0.066
8.681,0.066
8.682,0.066
8.683,0.062
8.684,0.056
8.685,0.053
8.686,0.054
8.687,0.053
8.688,0.051
8.689,0.053
8.690,0.051
8.691,0.053
8.692,0.050
8.693,0.050
8.694,0.049
8.695,0.047
8.696,0.042
8.697,0.038
8.698,0.042
8.699,0.041
8.700,0.039
8.701,0.041
8.702,0.036
8.703,0.034
8.704,0.031
8.705,0.025
8.706,0.026
8.707,0.025
8.708,0.027
8.709,0.022
8.710,0.023
8.711,0.022
8.712,0.021
8.713,0.016
8.714,0.012
8.715,0.012
8.716,0.012
8.717,0.012
8.718,0.014
8.719,0.016
8.720,0.016
8.721,0.012
8.722,0.009
8.723,0.009
8.724,0.012
8.725,0.009
8.726,0.009
8.727,0.009
8.728,0.006
8.729,0.006
8.730,0.005
8.731,0.003
8.732,0.004
8.733,0.003
8.734,0.002
8.735,0.000
8.736,0.001
8.737,0.003
8.738,0.004
8.739,0.003
8.740,0.002
8.741,0.000
8.742,0.000
8.743,0.000
8.744,0.003
8.745,0.000
8.746,-0.004
8.747,-0.006
8.748,-0.005
8.749,-0.003
8.750,-0.008
8.751,-0.006
8.752,-0.006
8.753,-0.006
8.754,-0.009
8.755,-0.009
8.756,-0.009
8.757,-0.006
8.758,-0.008
8.759,-0.009
8.760,-0.008
8.761,-0.009
8.762,-0.011
8.763,-0.012
8.764,-0.012
8.765,-0.016
8.766,-0.014
8.767,-0.016
8.768,-0.014
8.769,-0.012
8.770,-0.012
8.771,-0.009
8.772,-0.012
8.773,-0.012
8.774,-0.012
8.775,-0.012
8.776,-0.012
8.777,-0.012
8.778,-0.012
8.779,-0.012
8.780,-0.012
8.781,-0.012
8.782,-0.016
8.783,-0.016
8.784,-0.019
8.785,-0.022
8.786,-0.021
8.787,-0.019
8.788,-0.022
8.789,-0.019
8.790,-0.018
8.791,-0.019
8.792,-0.020
8.793,-0.022
8.794,-0.021
8.795,-0.019
8.796,-0.020
8.797,-0.022
8.798,-0.023
8.799,-0.025
8.800,-0.026
8.801,-0.028
8.802,-0.029
8.803,-0.031
8.804,-0.025
8.805,-0.022
8.806,-0.021
8.807,-0.019
8.808,-0.020
8.809,-0.019
8.810,-0.022
8.811,-0.019
8.812,-0.016
8.813,-0.016
8.814,-0.019
8.815,-0.016
8.816,-0.020
8.817,-0.022
8.818,-0.028
8.819,-0.028
8.820,-0.026
8.821,-0.028
8.822,-0.030
8.823,-0.028
8.824,-0.022
8.825,-0.022
8.826,-0.025
8.827,-0.025
8.828,-0.028
8.829,-0.031
8.830,-0.028
8.831,-0.028
8.832,-0.029
8.833,-0.031
8.834,-0.031
8.835,-0.031
8.836,-0.031
8.837,-0.028
8.838,-0.030
8.839,-0.028
8.840,-0.025
8.841,-0.022
8.842,-0.023
8.843,-0.025
8.844,-0.026
8.845,-0.028
8.846,-0.029
8.847,-0.031
8.848,-0.034
8.849,-0.034
8.850,-0.036
8.851,-0.041
8.852,-0.041
8.853,-0.044
8.854,-0.038
8.855,-0.034
8.856,-0.038
8.857,-0.038
8.858,-0.038
8.859,-0.038
8.860,-0.033
8.861,-0.034
8.862,-0.038
8.863,-0.034
8.864,-0.038
8.865,-0.034
8.866,-0.034
8.867,-0.034
8.868,-0.036
8.869,-0.041
8.870,-0.038
8.871,-0.034
8.872,-0.034
8.873,-0.034
8.874,-0.034
8.875,-0.034
8.876,-0.036
8.877,-0.041
8.878,-0.042
8.879,-0.044
8.880,-0.041
8.881,-0.041
8.882,-0.044
8.883,-0.044
8.884,-0.045
8.885,-0.047
8.886,-0.046
8.887,-0.044
8.888,-0.042
8.889,-0.047
8.890,-0.049
8.891,-0.047
8.892,-0.048
8.893,-0.050
8.894,-0.045
8.895,-0.050
8.896,-0.047
8.897,-0.044
8.898,-0.044
8.899,-0.044
8.900,-0.044
8.901,-0.044
8.902,-0.045
8.903,-0.047
8.904,-0.046
8.905,-0.047
8.906,-0.044
8.907,-0.044
8.908,-0.048
8.909,-0.047
8.910,-0.046
8.911,-0.047
8.912,-0.048
8.913,-0.050
8.914,-0.045
8.915,-0.047
8.916,-0.047
8.917,-0.050
8.918,-0.051
8.919,-0.053
8.920,-0.049
8.921,-0.050
8.922,-0.052
8.923,-0.050
8.924,-0.053
8.925,-0.053
8.926,-0.052
8.927,-0.053
8.928,-0.052
8.929,-0.053
8.930,-0.050
8.931,-0.050
8.932,-0.058
8.933,-0.059
8.934,-0.058
8.935,-0.056
8.936,-0.059
8.937,-0.059
8.938,-0.059
8.939,-0.059
8.940,-0.059
8.941,-0.059
8.942,-0.061
8.943,-0.059
8.944,-0.055
8.945,-0.056
8.946,-0.058
8.947,-0.056
8.948,-0.061
8.949,-0.059
8.950,-0.059
8.951,-0.059
8.952,-0.059
8.953,-0.063
8.954,-0.066
8.955,-0.066
8.956,-0.069
8.957,-0.069
8.958,-0.064
8.959,-0.066
8.960,-0.067
8.961,-0.069
8.962,-0.064
8.963,-0.066
8.964,-0.066
8.965,-0.066
8.966,-0.064
8.967,-0.066
8.968,-0.064
8.969,-0.066
8.970,-0.070
8.971,-0.069
8.972,-0.069
8.973,-0.069
8.974,-0.070
8.975,-0.072
8.976,-0.072
8.977,-0.072
8.978,-0.072
8.979,-0.078
8.980,-0.079
8.981,-0.081
8.982,-0.077
8.983,-0.075
8.984,-0.074
8.985,-0.072
8.986,-0.072
8.987,-0.069
8.988,-0.072
8.989,-0.072
8.990,-0.070
8.991,-0.072
8.992,-0.072
8.993,-0.072
8.994,-0.071
8.995,-0.069
8.996,-0.072
8.997,-0.072
8.998,-0.073
8.999,-0.075
9.000,-0.075
9.001,-0.075
9.002,-0.074
9.003,-0.072
9.004,-0.072
9.005,-0.072
9.006,-0.072
9.007,-0.072
9.008,-0.072
9.009,-0.072
9.010,-0.072
9.011,-0.069
9.012,-0.072
9.013,-0.072
9.014,-0.073
9.015,-0.072
9.016,-0.072
9.017,-0.069
9.018,-0.072
9.019,-0.072
9.020,-0.071
9.021,-0.072
9.022,-0.069
9.023,-0.072
9.024,-0.072
9.025,-0.072
9.026,-0.072
9.027,-0.072
9.028,-0.073
9.029,-0.075
9.030,-0.075
9.031,-0.075
9.032,-0.075
9.033,-0.075
9.034,-0.073
9.035,-0.075
9.036,-0.077
9.037,-0.075
9.038,-0.071
9.039,-0.072
9.040,-0.073
9.041,-0.075
9.042,-0.075
9.043,-0.075
9.044,-0.075
9.045,-0.075
9.046,-0.076
9.047,-0.075
9.048,-0.072
9.049,-0.063
9.050,-0.058
9.051,-0.056
9.052,-0.051
9.053,-0.044
9.054,-0.042
9.055,-0.038
9.056,-0.036
9.057,-0.034
9.058,-0.031
9.059,-0.031
9.060,-0.028
9.061,-0.028
9.062,-0.031
9.063,-0.031
9.064,-0.032
9.065,-0.031
9.066,-0.030
9.067,-0.028
9.068,-0.034
9.069,-0.031
9.070,-0.032
9.071,-0.034
9.072,-0.030
9.073,-0.028
9.074,-0.024
9.075,-0.016
9.076,0.001
9.077,0.016
9.078,0.036
9.079,0.056
9.080,0.071
9.081,0.084
9.082,0.099
9.083,0.109
9.084,0.113
9.085,0.113
9.086,0.121
9.087,0.119
9.088,0.117
9.089,0.119
9.090,0.114
9.091,0.116
9.092,0.119
9.093,0.122
9.094,0.124
9.095,0.125
9.096,0.122
9.097,0.119
9.098,0.111
9.099,0.097
9.100,0.089
9.101,0.081
9.102,0.081
9.103,0.078
9.104,0.075
9.105,0.072
9.106,0.068
9.107,0.066
9.108,0.058
9.109,0.050
9.110,0.050
9.111,0.047
9.112,0.046
9.113,0.047
9.114,0.047
9.115,0.047
9.116,0.051
9.117,0.050
9.118,0.051
9.119,0.050
9.120,0.047
9.121,0.047
9.122,0.044
9.123,0.044
9.124,0.041
9.125,0.031
9.126,0.025
9.127,0.016
9.128,0.004
9.129,-0.006
9.130,-0.016
9.131,-0.019
9.132,-0.021
9.133,-0.025
9.134,-0.030
9.135,-0.031
9.136,-0.039
9.137,-0.044
9.138,-0.050
9.139,-0.059
9.140,-0.064
9.141,-0.069
9.142,-0.066
9.143,-0.069
9.144,-0.071
9.145,-0.069
9.146,-0.075
9.147,-0.072
9.148,-0.076
9.149,-0.078
9.150,-0.081
9.151,-0.081
9.152,-0.080
9.153,-0.081
9.154,-0.080
9.155,-0.081
9.156,-0.083
9.157,-0.084
9.158,-0.086
9.159,-0.087
9.160,-0.089
9.161,-0.087
9.162,-0.087
9.163,-0.087
9.164,-0.091
9.165,-0.091
9.166,-0.092
9.167,-0.097
9.168,-0.096
9.169,-0.097
9.170,-0.101
9.171,-0.103
9.172,-0.103
9.173,-0.103
9.174,-0.102
9.175,-0.103
9.176,-0.106
9.177,-0.106
9.178,-0.103
9.179,-0.103
9.180,-0.105
9.181,-0.106
9.182,-0.107
9.183,-0.109
9.184,-0.106
9.185,-0.106
9.186,-0.106
9.187,-0.103
9.188,-0.104
9.189,-0.106
9.190,-0.104
9.191,-0.109
9.192,-0.108
9.193,-0.106
9.194,-0.107
9.195,-0.106
9.196,-0.106
9.197,-0.106
9.198,-0.111
9.199,-0.109
9.200,-0.109
9.201,-0.109
9.202,-0.107
9.203,-0.109
9.204,-0.105
9.205,-0.103
9.206,-0.106
9.207,-0.113
9.208,-0.120
9.209,-0.131
9.210,-0.133
9.211,-0.141
9.212,-0.149
9.213,-0.147
9.214,-0.136
9.215,-0.125
9.216,-0.113
9.217,-0.097
9.218,-0.077
9.219,-0.050
9.220,-0.034
9.221,-0.019
9.222,0.003
9.223,0.009
9.224,0.023
9.225,0.050
9.226,0.082
9.227,0.122
9.228,0.167
9.229,0.222
9.230,0.282
9.231,0.353
9.232,0.422
9.233,0.494
9.234,0.562
9.235,0.631
9.236,0.692
9.237,0.753
9.238,0.793
9.239,0.784
9.240,0.794
9.241,0.816
9.242,0.859
9.243,0.944
9.244,0.974
9.245,0.997
9.246,0.981
9.247,0.903
9.248,0.802
9.249,0.659
9.250,0.537
9.251,0.416
9.252,0.301
9.253,0.225
9.254,0.169
9.255,0.128
9.256,0.095
9.257,0.075
9.258,0.051
9.259,0.031
9.260,0.011
9.261,-0.012
9.262,-0.030
9.263,-0.044
9.264,-0.053
9.265,-0.056
9.266,-0.054
9.267,-0.056
9.268,-0.052
9.269,-0.047
9.270,-0.039
9.271,-0.019
9.272,-0.008
9.273,0.003
9.274,0.014
9.275,0.025
9.276,0.032
9.277,0.041
9.278,0.046
9.279,0.038
9.280,0.028
9.281,0.019
9.282,0.011
9.283,0.003
9.284,-0.006
9.285,-0.016
9.286,-0.026
9.287,-0.031
9.288,-0.039
9.289,-0.044
9.290,-0.043
9.291,-0.044
9.292,-0.047
9.293,-0.047
9.294,-0.047
9.295,-0.047
9.296,-0.047
9.297,-0.047
9.298,-0.050
9.299,-0.050
9.300,-0.052
9.301,-0.053
9.302,-0.054
9.303,-0.059
9.304,-0.063
9.305,-0.066
9.306,-0.069
9.307,-0.069
9.308,-0.066
9.309,-0.063
9.310,-0.056
9.311,-0.053
9.312,-0.049
9.313,-0.050
9.314,-0.050
9.315,-0.050
9.316,-0.051
9.317,-0.053
9.318,-0.056
9.319,-0.063
9.320,-0.064
9.321,-0.066
9.322,-0.069
9.323,-0.069
9.324,-0.072
9.325,-0.069
9.326,-0.066
9.327,-0.069
9.328,-0.069
9.329,-0.069
9.330,-0.069
9.331,-0.069
9.332,-0.069
9.333,-0.069
9.334,-0.069
9.335,-0.069
9.336,-0.069
9.337,-0.066
9.338,-0.069
9.339,-0.069
9.340,-0.055
9.341,-0.041
9.342,-0.016
9.343,0.000
9.344,0.000
9.345,0.000
9.346,-0.003
9.347,-0.003
9.348,-0.012
9.349,-0.025
9.350,-0.042
9.351,-0.059
9.352,-0.059
9.353,-0.059
9.354,-0.063
9.355,-0.063
9.356,-0.061
9.357,-0.063
9.358,-0.061
9.359,-0.063
9.360,-0.064
9.361,-0.066
9.362,-0.064
9.363,-0.066
9.364,-0.068
9.365,-0.063
9.366,-0.061
9.367,-0.063
9.368,-0.059
9.369,-0.059
9.370,-0.059
9.371,-0.059
9.372,-0.063
9.373,-0.066
9.374,-0.061
9.375,-0.059
9.376,-0.058
9.377,-0.056
9.378,-0.056
9.379,-0.056
9.380,-0.056
9.381,-0.053
9.382,-0.052
9.383,-0.053
9.384,-0.054
9.385,-0.056
9.386,-0.055
9.387,-0.056
9.388,-0.054
9.389,-0.056
9.390,-0.059
9.391,-0.063
9.392,-0.063
9.393,-0.063
9.394,-0.059
9.395,-0.056
9.396,-0.058
9.397,-0.059
9.398,-0.061
9.399,-0.063
9.400,-0.058
9.401,-0.056
9.402,-0.059
9.403,-0.056
9.404,-0.053
9.405,-0.053
9.406,-0.056
9.407,-0.056
9.408,-0.054
9.409,-0.053
9.410,-0.052
9.411,-0.050
9.412,-0.054
9.413,-0.053
9.414,-0.053
9.415,-0.053
9.416,-0.053
9.417,-0.053
9.418,-0.055
9.419,-0.050
9.420,-0.050
9.421,-0.050
9.422,-0.048
9.423,-0.050
9.424,-0.051
9.425,-0.050
9.426,-0.046
9.427,-0.038
9.428,-0.039
9.429,-0.041
9.430,-0.041
9.431,-0.041
9.432,-0.038
9.433,-0.038
9.434,-0.034
9.435,-0.028
9.436,-0.028
9.437,-0.028
9.438,-0.031
9.439,-0.031
9.440,-0.031
9.441,-0.034
9.442,-0.031
9.443,-0.031
9.444,-0.028
