'Elapsed time','II'
'seconds','mV'
0.000,-0.046
0.001,-0.022
0.002,-0.020
0.003,-0.019
0.004,-0.020
0.005,-0.019
0.006,-0.019
0.007,-0.019
0.008,-0.018
0.009,-0.012
0.010,-0.012
0.011,-0.012
0.012,-0.012
0.013,-0.012
0.014,-0.016
0.015,-0.016
0.016,-0.017
0.017,-0.019
0.018,-0.016
0.019,-0.012
0.020,-0.011
0.021,0.006
0.022,0.026
0.023,0.044
0.024,0.063
0.025,0.081
0.026,0.102
0.027,0.113
0.028,0.127
0.029,0.128
0.030,0.133
0.031,0.128
0.032,0.125
0.033,0.122
0.034,0.121
0.035,0.119
0.036,0.114
0.037,0.113
0.038,0.108
0.039,0.109
0.040,0.111
0.041,0.109
0.042,0.109
0.043,0.103
0.044,0.099
0.045,0.091
0.046,0.081
0.047,0.084
0.048,0.086
0.049,0.084
0.050,0.081
0.051,0.072
0.052,0.069
0.053,0.066
0.054,0.059
0.055,0.063
0.056,0.056
0.057,0.059
0.058,0.063
0.059,0.063
0.060,0.063
0.061,0.059
0.062,0.056
0.063,0.056
0.064,0.053
0.065,0.059
0.066,0.059
0.067,0.059
0.068,0.061
0.069,0.053
0.070,0.044
0.071,0.031
0.072,0.019
0.073,0.012
0.074,0.000
0.075,-0.009
0.076,-0.014
0.077,-0.016
0.078,-0.019
0.079,-0.019
0.080,-0.022
0.081,-0.028
0.082,-0.031
0.083,-0.034
0.084,-0.034
0.085,-0.034
0.086,-0.036
0.087,-0.034
0.088,-0.042
0.089,-0.044
0.090,-0.047
0.091,-0.047
0.092,-0.048
0.093,-0.050
0.094,-0.049
0.095,-0.050
0.096,-0.051
0.097,-0.056
0.098,-0.061
0.099,-0.063
0.100,-0.059
0.101,-0.056
0.102,-0.055
0.103,-0.053
0.104,-0.057
0.105,-0.059
0.106,-0.063
0.107,-0.066
0.108,-0.069
0.109,-0.069
0.110,-0.072
0.111,-0.072
0.112,-0.072
0.113,-0.075
0.114,-0.071
0.115,-0.072
0.116,-0.079
0.117,-0.084
0.118,-0.077
0.119,-0.075
0.120,-0.075
0.121,-0.075
0.122,-0.075
0.123,-0.075
0.124,-0.074
0.125,-0.072
0.126,-0.074
0.127,-0.072
0.128,-0.072
0.129,-0.072
0.130,-0.072
0.131,-0.075
0.132,-0.072
0.133,-0.072
0.134,-0.073
0.135,-0.075
0.136,-0.075
0.137,-0.075
0.138,-0.078
0.139,-0.081
0.140,-0.083
0.141,-0.084
0.142,-0.081
0.143,-0.078
0.144,-0.078
0.145,-0.075
0.146,-0.075
0.147,-0.072
0.148,-0.073
0.149,-0.072
0.150,-0.071
0.151,-0.069
0.152,-0.068
0.153,-0.069
0.154,-0.075
0.155,-0.084
0.156,-0.091
0.157,-0.103
0.158,-0.108
0.159,-0.109
0.160,-0.113
0.161,-0.103
0.162,-0.089
0.163,-0.075
0.164,-0.056
0.165,-0.031
0.166,-0.014
0.167,0.009
0.168,0.036
0.169,0.047
0.170,0.059
0.171,0.078
0.172,0.101
0.173,0.128
0.174,0.158
0.175,0.206
0.176,0.263
0.177,0.331
0.178,0.403
0.179,0.472
0.180,0.541
0.181,0.609
0.182,0.675
0.183,0.744
0.184,0.799
0.185,0.806
0.186,0.817
0.187,0.850
0.188,0.880
0.189,0.950
0.190,1.024
0.191,1.056
0.192,1.061
0.193,0.994
0.194,0.908
0.195,0.775
0.196,0.656
0.197,0.534
0.198,0.404
0.199,0.331
0.200,0.263
0.201,0.206
0.202,0.161
0.203,0.131
0.204,0.100
0.205,0.072
0.206,0.038
0.207,0.009
0.208,-0.012
0.209,-0.022
0.210,-0.038
0.211,-0.038
0.212,-0.031
0.213,-0.028
0.214,-0.018
0.215,-0.009
0.216,0.001
0.217,0.022
0.218,0.044
0.219,0.056
0.220,0.069
0.221,0.075
0.222,0.078
0.223,0.075
0.224,0.078
0.225,0.072
0.226,0.063
0.227,0.053
0.228,0.047
0.229,0.041
0.230,0.039
0.231,0.034
0.232,0.026
0.233,0.022
0.234,0.019
0.235,0.012
0.236,0.003
0.237,0.000
0.238,-0.006
0.239,-0.009
0.240,-0.011
0.241,-0.012
0.242,-0.011
0.243,-0.012
0.244,-0.014
0.245,-0.012
0.246,-0.016
0.247,-0.016
0.248,-0.014
0.249,-0.019
0.250,-0.023
0.251,-0.025
0.252,-0.025
0.253,-0.022
0.254,-0.023
0.255,-0.025
0.256,-0.029
0.257,-0.028
0.258,-0.029
0.259,-0.028
0.260,-0.028
0.261,-0.031
0.262,-0.031
0.263,-0.031
0.264,-0.033
0.265,-0.031
0.266,-0.036
0.267,-0.034
0.268,-0.031
0.269,-0.028
0.270,-0.029
0.271,-0.031
0.272,-0.031
0.273,-0.031
0.274,-0.027
0.275,-0.022
0.276,-0.021
0.277,-0.019
0.278,-0.019
0.279,-0.022
0.280,-0.023
0.281,-0.028
0.282,-0.026
0.283,-0.028
0.284,-0.029
0.285,-0.031
0.286,-0.034
0.287,-0.034
0.288,-0.033
0.289,-0.034
0.290,-0.034
0.291,-0.034
0.292,-0.036
0.293,-0.034
0.294,-0.031
0.295,-0.028
0.296,-0.031
0.297,-0.028
0.298,-0.028
0.299,-0.028
0.300,-0.029
0.301,-0.031
0.302,-0.028
0.303,-0.025
0.304,-0.023
0.305,-0.025
0.306,-0.024
0.307,-0.019
0.308,-0.021
0.309,-0.019
0.310,-0.019
0.311,-0.019
0.312,-0.018
0.313,-0.016
0.314,-0.016
0.315,-0.012
0.316,-0.016
0.317,-0.016
0.318,-0.014
0.319,-0.016
0.320,-0.016
0.321,-0.012
0.322,-0.012
0.323,-0.012
0.324,-0.012
0.325,-0.012
0.326,-0.012
0.327,-0.012
0.328,-0.014
0.329,-0.016
0.330,-0.012
0.331,-0.012
0.332,-0.014
0.333,-0.016
0.334,-0.016
0.335,-0.016
0.336,-0.014
0.337,-0.012
0.338,-0.009
0.339,-0.009
0.340,-0.007
0.341,-0.009
0.342,-0.009
0.343,-0.009
0.344,-0.008
0.345,-0.006
0.346,-0.011
0.347,-0.009
0.348,-0.005
0.349,0.000
0.350,0.001
0.351,0.003
0.352,0.003
0.353,0.003
0.354,-0.001
0.355,-0.003
0.356,-0.003
0.357,-0.003
0.358,-0.002
0.359,0.000
0.360,-0.001
0.361,-0.003
0.362,-0.001
0.363,-0.003
0.364,-0.002
0.365,0.003
0.366,0.003
0.367,0.003
0.368,0.002
0.369,0.000
0.370,0.001
0.371,0.003
0.372,0.002
0.373,0.000
0.374,0.000
0.375,-0.003
0.376,-0.003
0.377,-0.003
0.378,0.001
0.379,0.003
0.380,0.006
0.381,0.009
0.382,0.008
0.383,0.009
0.384,0.005
0.385,0.006
0.386,0.008
0.387,0.009
0.388,0.009
0.389,0.009
0.390,0.009
0.391,0.009
0.392,0.008
0.393,0.009
0.394,0.005
0.395,0.006
0.396,0.011
0.397,0.012
0.398,0.022
0.399,0.025
0.400,0.026
0.401,0.025
0.402,0.024
0.403,0.022
0.404,0.018
0.405,0.016
0.406,0.019
0.407,0.016
0.408,0.017
0.409,0.019
0.410,0.021
0.411,0.019
0.412,0.020
0.413,0.019
0.414,0.022
0.415,0.022
0.416,0.023
0.417,0.025
0.418,0.025
0.419,0.028
0.420,0.025
0.421,0.025
0.422,0.027
0.423,0.025
0.424,0.025
0.425,0.025
0.426,0.021
0.427,0.022
0.428,0.025
0.429,0.022
0.430,0.028
0.431,0.028
0.432,0.024
0.433,0.025
0.434,0.025
0.435,0.025
0.436,0.025
0.437,0.025
0.438,0.027
0.439,0.022
0.440,0.025
0.441,0.025
0.442,0.024
0.443,0.022
0.444,0.021
0.445,0.022
0.446,0.025
0.447,0.028
0.448,0.024
0.449,0.022
0.450,0.025
0.451,0.025
0.452,0.025
0.453,0.025
0.454,0.026
0.455,0.028
0.456,0.027
0.457,0.025
0.458,0.026
0.459,0.028
0.460,0.027
0.461,0.028
0.462,0.033
0.463,0.031
0.464,0.030
0.465,0.028
0.466,0.031
0.467,0.028
0.468,0.028
0.469,0.028
0.470,0.030
0.471,0.028
0.472,0.028
0.473,0.028
0.474,0.029
0.475,0.031
0.476,0.027
0.477,0.028
0.478,0.030
0.479,0.028
0.480,0.029
0.481,0.031
0.482,0.033
0.483,0.031
0.484,0.034
0.485,0.034
0.486,0.030
0.487,0.031
0.488,0.030
0.489,0.031
0.490,0.029
0.491,0.031
0.492,0.030
0.493,0.028
0.494,0.029
0.495,0.034
0.496,0.038
0.497,0.041
0.498,0.041
0.499,0.038
0.500,0.039
0.501,0.041
0.502,0.044
0.503,0.047
0.504,0.046
0.505,0.047
0.506,0.047
0.507,0.047
0.508,0.048
0.509,0.053
0.510,0.047
0.511,0.050
0.512,0.051
0.513,0.056
0.514,0.052
0.515,0.053
0.516,0.053
0.517,0.056
0.518,0.057
0.519,0.059
0.520,0.064
0.521,0.069
0.522,0.066
0.523,0.066
0.524,0.068
0.525,0.066
0.526,0.066
0.527,0.066
0.528,0.067
0.529,0.072
0.530,0.078
0.531,0.081
0.532,0.078
0.533,0.078
0.534,0.080
0.535,0.081
0.536,0.089
0.537,0.091
0.538,0.093
0.539,0.094
0.540,0.096
0.541,0.094
0.542,0.097
0.543,0.097
0.544,0.099
0.545,0.100
0.546,0.100
0.547,0.103
0.548,0.104
0.549,0.109
0.550,0.111
0.551,0.113
0.552,0.119
0.553,0.122
0.554,0.119
0.555,0.122
0.556,0.122
0.557,0.122
0.558,0.123
0.559,0.128
0.560,0.129
0.561,0.134
0.562,0.141
0.563,0.141
0.564,0.145
0.565,0.147
0.566,0.146
0.567,0.147
0.568,0.151
0.569,0.153
0.570,0.150
0.571,0.150
0.572,0.150
0.573,0.150
0.574,0.153
0.575,0.153
0.576,0.153
0.577,0.153
0.578,0.156
0.579,0.153
0.580,0.154
0.581,0.159
0.582,0.156
0.583,0.159
0.584,0.158
0.585,0.159
0.586,0.159
0.587,0.159
0.588,0.155
0.589,0.156
0.590,0.156
0.591,0.156
0.592,0.156
0.593,0.153
0.594,0.152
0.595,0.150
0.596,0.151
0.597,0.150
0.598,0.146
0.599,0.144
0.600,0.142
0.601,0.141
0.602,0.142
0.603,0.141
0.604,0.141
0.605,0.141
0.606,0.142
0.607,0.141
0.608,0.139
0.609,0.137
0.610,0.134
0.611,0.134
0.612,0.141
0.613,0.137
0.614,0.133
0.615,0.128
0.616,0.124
0.617,0.119
0.618,0.119
0.619,0.116
0.620,0.117
0.621,0.116
0.622,0.113
0.623,0.106
0.624,0.104
0.625,0.100
0.626,0.099
0.627,0.097
0.628,0.089
0.629,0.087
0.630,0.091
0.631,0.087
0.632,0.087
0.633,0.084
0.634,0.080
0.635,0.078
0.636,0.076
0.637,0.075
0.638,0.071
0.639,0.069
0.640,0.070
0.641,0.069
0.642,0.066
0.643,0.063
0.644,0.063
0.645,0.059
0.646,0.056
0.647,0.053
0.648,0.050
0.649,0.047
0.650,0.041
0.651,0.034
0.652,0.033
0.653,0.031
0.654,0.027
0.655,0.025
0.656,0.023
0.657,0.025
0.658,0.021
0.659,0.016
0.660,0.014
0.661,0.009
0.662,0.012
0.663,0.012
0.664,0.008
0.665,0.009
0.666,0.006
0.667,0.003
0.668,0.004
0.669,0.003
0.670,0.004
0.671,0.003
0.672,-0.001
0.673,-0.003
0.674,0.000
0.675,0.000
0.676,-0.007
0.677,-0.009
0.678,-0.009
0.679,-0.009
0.680,-0.011
0.681,-0.012
0.682,-0.012
0.683,-0.016
0.684,-0.016
0.685,-0.016
0.686,-0.012
0.687,-0.012
0.688,-0.016
0.689,-0.016
0.690,-0.016
0.691,-0.016
0.692,-0.016
0.693,-0.019
0.694,-0.016
0.695,-0.019
0.696,-0.019
0.697,-0.019
0.698,-0.022
0.699,-0.022
0.700,-0.025
0.701,-0.022
0.702,-0.020
0.703,-0.025
0.704,-0.027
0.705,-0.025
0.706,-0.026
0.707,-0.031
0.708,-0.029
0.709,-0.031
0.710,-0.030
0.711,-0.031
0.712,-0.030
0.713,-0.028
0.714,-0.029
0.715,-0.031
0.716,-0.030
0.717,-0.028
0.718,-0.030
0.719,-0.028
0.720,-0.029
0.721,-0.031
0.722,-0.031
0.723,-0.028
0.724,-0.031
0.725,-0.031
0.726,-0.031
0.727,-0.031
0.728,-0.031
0.729,-0.031
0.730,-0.034
0.731,-0.038
0.732,-0.034
0.733,-0.034
0.734,-0.031
0.735,-0.028
0.736,-0.031
0.737,-0.031
0.738,-0.031
0.739,-0.028
0.740,-0.028
0.741,-0.031
0.742,-0.031
0.743,-0.031
0.744,-0.033
0.745,-0.038
0.746,-0.033
0.747,-0.034
0.748,-0.038
0.749,-0.038
0.750,-0.038
0.751,-0.044
0.752,-0.044
0.753,-0.044
0.754,-0.041
0.755,-0.038
0.756,-0.036
0.757,-0.041
0.758,-0.042
0.759,-0.044
0.760,-0.042
0.761,-0.041
0.762,-0.041
0.763,-0.041
0.764,-0.038
0.765,-0.034
0.766,-0.039
0.767,-0.041
0.768,-0.042
0.769,-0.044
0.770,-0.042
0.771,-0.041
0.772,-0.045
0.773,-0.044
0.774,-0.036
0.775,-0.034
0.776,-0.034
0.777,-0.034
0.778,-0.033
0.779,-0.034
0.780,-0.039
0.781,-0.041
0.782,-0.041
0.783,-0.041
0.784,-0.042
0.785,-0.047
0.786,-0.044
0.787,-0.044
0.788,-0.041
0.789,-0.041
0.790,-0.045
0.791,-0.044
0.792,-0.038
0.793,-0.038
0.794,-0.042
0.795,-0.044
0.796,-0.044
0.797,-0.044
0.798,-0.045
0.799,-0.044
0.800,-0.047
0.801,-0.047
0.802,-0.044
0.803,-0.047
0.804,-0.047
0.805,-0.047
0.806,-0.051
0.807,-0.050
0.808,-0.047
0.809,-0.044
0.810,-0.042
0.811,-0.041
0.812,-0.041
0.813,-0.041
0.814,-0.039
0.815,-0.041
0.816,-0.042
0.817,-0.044
0.818,-0.041
0.819,-0.044
0.820,-0.041
0.821,-0.038
0.822,-0.038
0.823,-0.038
0.824,-0.041
0.825,-0.041
0.826,-0.039
0.827,-0.047
0.828,-0.048
0.829,-0.047
0.830,-0.046
0.831,-0.044
0.832,-0.044
0.833,-0.044
0.834,-0.041
0.835,-0.044
0.836,-0.044
0.837,-0.044
0.838,-0.044
0.839,-0.044
0.840,-0.048
0.841,-0.047
0.842,-0.047
0.843,-0.047
0.844,-0.045
0.845,-0.047
0.846,-0.050
0.847,-0.050
0.848,-0.047
0.849,-0.044
0.850,-0.047
0.851,-0.050
0.852,-0.047
0.853,-0.047
0.854,-0.047
0.855,-0.047
0.856,-0.047
0.857,-0.047
0.858,-0.044
0.859,-0.047
0.860,-0.047
0.861,-0.047
0.862,-0.045
0.863,-0.050
0.864,-0.051
0.865,-0.053
0.866,-0.053
0.867,-0.053
0.868,-0.050
0.869,-0.050
0.870,-0.052
0.871,-0.050
0.872,-0.053
0.873,-0.053
0.874,-0.050
0.875,-0.050
0.876,-0.051
0.877,-0.056
0.878,-0.056
0.879,-0.056
0.880,-0.053
0.881,-0.053
0.882,-0.053
0.883,-0.056
0.884,-0.055
0.885,-0.053
0.886,-0.050
0.887,-0.050
0.888,-0.050
0.889,-0.050
0.890,-0.051
0.891,-0.053
0.892,-0.052
0.893,-0.053
0.894,-0.054
0.895,-0.053
0.896,-0.053
0.897,-0.053
0.898,-0.056
0.899,-0.053
0.900,-0.053
0.901,-0.056
0.902,-0.052
0.903,-0.050
0.904,-0.051
0.905,-0.053
0.906,-0.050
0.907,-0.053
0.908,-0.056
0.909,-0.053
0.910,-0.056
0.911,-0.063
0.912,-0.067
0.913,-0.066
0.914,-0.063
0.915,-0.063
0.916,-0.063
0.917,-0.063
0.918,-0.061
0.919,-0.059
0.920,-0.058
0.921,-0.056
0.922,-0.053
0.923,-0.056
0.924,-0.056
0.925,-0.056
0.926,-0.056
0.927,-0.056
0.928,-0.059
0.929,-0.063
0.930,-0.061
0.931,-0.063
0.932,-0.064
0.933,-0.063
0.934,-0.063
0.935,-0.063
0.936,-0.066
0.937,-0.063
0.938,-0.061
0.939,-0.063
0.940,-0.061
0.941,-0.059
0.942,-0.063
0.943,-0.059
0.944,-0.061
0.945,-0.063
0.946,-0.064
0.947,-0.066
0.948,-0.066
0.949,-0.066
0.950,-0.059
0.951,-0.059
0.952,-0.058
0.953,-0.056
0.954,-0.056
0.955,-0.059
0.956,-0.061
0.957,-0.066
0.958,-0.068
0.959,-0.066
0.960,-0.067
0.961,-0.066
0.962,-0.063
0.963,-0.063
0.964,-0.066
0.965,-0.066
0.966,-0.066
0.967,-0.066
0.968,-0.067
0.969,-0.069
0.970,-0.063
0.971,-0.063
0.972,-0.063
0.973,-0.063
0.974,-0.063
0.975,-0.063
0.976,-0.070
0.977,-0.069
0.978,-0.069
0.979,-0.072
0.980,-0.064
0.981,-0.063
0.982,-0.069
0.983,-0.066
0.984,-0.069
0.985,-0.069
0.986,-0.069
0.987,-0.072
0.988,-0.073
0.989,-0.075
0.990,-0.068
0.991,-0.072
0.992,-0.073
0.993,-0.072
0.994,-0.072
0.995,-0.072
0.996,-0.073
0.997,-0.075
0.998,-0.075
0.999,-0.075
1.000,-0.074
1.001,-0.072
1.002,-0.071
1.003,-0.069
1.004,-0.073
1.005,-0.072
1.006,-0.069
1.007,-0.072
1.008,-0.075
1.009,-0.072
1.010,-0.072
1.011,-0.072
1.012,-0.074
1.013,-0.072
1.014,-0.075
1.015,-0.078
1.016,-0.079
1.017,-0.078
1.018,-0.072
1.019,-0.072
1.020,-0.073
1.021,-0.075
1.022,-0.075
1.023,-0.078
1.024,-0.078
1.025,-0.078
1.026,-0.077
1.027,-0.075
1.028,-0.078
1.029,-0.075
1.030,-0.074
1.031,-0.075
1.032,-0.076
1.033,-0.078
1.034,-0.078
1.035,-0.078
1.036,-0.075
1.037,-0.072
1.038,-0.073
1.039,-0.075
1.040,-0.073
1.041,-0.075
1.042,-0.074
1.043,-0.072
1.044,-0.075
1.045,-0.072
1.046,-0.075
1.047,-0.075
1.048,-0.078
1.049,-0.081
1.050,-0.078
1.051,-0.078
1.052,-0.078
1.053,-0.078
1.054,-0.077
1.055,-0.075
1.056,-0.081
1.057,-0.078
1.058,-0.076
1.059,-0.078
1.060,-0.083
1.061,-0.081
1.062,-0.081
1.063,-0.081
1.064,-0.080
1.065,-0.078
1.066,-0.077
1.067,-0.078
1.068,-0.078
1.069,-0.078
1.070,-0.077
1.071,-0.075
1.072,-0.083
1.073,-0.081
1.074,-0.080
1.075,-0.078
1.076,-0.081
1.077,-0.081
1.078,-0.081
1.079,-0.081
1.080,-0.081
1.081,-0.078
1.082,-0.083
1.083,-0.081
1.084,-0.081
1.085,-0.081
1.086,-0.080
1.087,-0.078
1.088,-0.078
1.089,-0.078
1.090,-0.077
1.091,-0.075
1.092,-0.078
1.093,-0.078
1.094,-0.081
1.095,-0.081
1.096,-0.083
1.097,-0.081
1.098,-0.080
1.099,-0.078
1.100,-0.072
1.101,-0.069
1.102,-0.063
1.103,-0.056
1.104,-0.050
1.105,-0.047
1.106,-0.038
1.107,-0.038
1.108,-0.033
1.109,-0.028
1.110,-0.029
1.111,-0.028
1.112,-0.031
1.113,-0.034
1.114,-0.036
1.115,-0.034
1.116,-0.034
1.117,-0.034
1.118,-0.034
1.119,-0.034
1.120,-0.036
1.121,-0.034
1.122,-0.036
1.123,-0.038
1.124,-0.034
1.125,-0.031
1.126,-0.034
1.127,-0.022
1.128,-0.005
1.129,0.009
1.130,0.028
1.131,0.047
1.132,0.069
1.133,0.081
1.134,0.096
1.135,0.097
1.136,0.106
1.137,0.106
1.138,0.104
1.139,0.103
1.140,0.103
1.141,0.103
1.142,0.103
1.143,0.106
1.144,0.103
1.145,0.106
1.146,0.106
1.147,0.103
1.148,0.104
1.149,0.100
1.150,0.093
1.151,0.081
1.152,0.069
1.153,0.069
1.154,0.068
1.155,0.063
1.156,0.063
1.157,0.056
1.158,0.051
1.159,0.047
1.160,0.036
1.161,0.034
1.162,0.029
1.163,0.034
1.164,0.039
1.165,0.041
1.166,0.039
1.167,0.034
1.168,0.033
1.169,0.034
1.170,0.033
1.171,0.041
1.172,0.044
1.173,0.047
1.174,0.050
1.175,0.044
1.176,0.038
1.177,0.028
1.178,0.014
1.179,0.006
1.180,-0.003
1.181,-0.009
1.182,-0.020
1.183,-0.028
1.184,-0.038
1.185,-0.044
1.186,-0.046
1.187,-0.050
1.188,-0.053
1.189,-0.056
1.190,-0.059
1.191,-0.063
1.192,-0.068
1.193,-0.069
1.194,-0.072
1.195,-0.069
1.196,-0.073
1.197,-0.075
1.198,-0.075
1.199,-0.075
1.200,-0.075
1.201,-0.078
1.202,-0.077
1.203,-0.078
1.204,-0.081
1.205,-0.081
1.206,-0.081
1.207,-0.081
1.208,-0.078
1.209,-0.075
1.210,-0.079
1.211,-0.081
1.212,-0.081
1.213,-0.081
1.214,-0.083
1.215,-0.081
1.216,-0.086
1.217,-0.087
1.218,-0.087
1.219,-0.091
1.220,-0.087
1.221,-0.091
1.222,-0.094
1.223,-0.094
1.224,-0.091
1.225,-0.094
1.226,-0.095
1.227,-0.097
1.228,-0.098
1.229,-0.100
1.230,-0.099
1.231,-0.097
1.232,-0.100
1.233,-0.100
1.234,-0.097
1.235,-0.094
1.236,-0.094
1.237,-0.097
1.238,-0.098
1.239,-0.103
1.240,-0.103
1.241,-0.103
1.242,-0.104
1.243,-0.106
1.244,-0.105
1.245,-0.103
1.246,-0.099
1.247,-0.094
1.248,-0.094
1.249,-0.094
1.250,-0.097
1.251,-0.097
1.252,-0.097
1.253,-0.094
1.254,-0.097
1.255,-0.097
1.256,-0.097
1.257,-0.097
1.258,-0.094
1.259,-0.094
1.260,-0.097
1.261,-0.103
1.262,-0.111
1.263,-0.125
1.264,-0.133
1.265,-0.137
1.266,-0.142
1.267,-0.134
1.268,-0.119
1.269,-0.103
1.270,-0.083
1.271,-0.056
1.272,-0.034
1.273,-0.006
1.274,0.018
1.275,0.025
1.276,0.041
1.277,0.063
1.278,0.091
1.279,0.122
1.280,0.159
1.281,0.216
1.282,0.275
1.283,0.347
1.284,0.414
1.285,0.478
1.286,0.542
1.287,0.606
1.288,0.675
1.289,0.747
1.290,0.803
1.291,0.812
1.292,0.814
1.293,0.838
1.294,0.855
1.295,0.913
1.296,0.978
1.297,1.003
1.298,1.003
1.299,0.931
1.300,0.842
1.301,0.706
1.302,0.584
1.303,0.459
1.304,0.321
1.305,0.238
1.306,0.170
1.307,0.116
1.308,0.073
1.309,0.047
1.310,0.033
1.311,0.022
1.312,-0.009
1.313,-0.034
1.314,-0.053
1.315,-0.059
1.316,-0.071
1.317,-0.066
1.318,-0.057
1.319,-0.053
1.320,-0.042
1.321,-0.034
1.322,-0.021
1.323,0.003
1.324,0.022
1.325,0.031
1.326,0.038
1.327,0.038
1.328,0.048
1.329,0.053
1.330,0.057
1.331,0.053
1.332,0.041
1.333,0.028
1.334,0.022
1.335,0.016
1.336,0.011
1.337,0.003
1.338,-0.003
1.339,-0.006
1.340,-0.011
1.341,-0.019
1.342,-0.028
1.343,-0.031
1.344,-0.034
1.345,-0.034
1.346,-0.034
1.347,-0.034
1.348,-0.031
1.349,-0.031
1.350,-0.034
1.351,-0.034
1.352,-0.038
1.353,-0.038
1.354,-0.038
1.355,-0.044
1.356,-0.047
1.357,-0.047
1.358,-0.050
1.359,-0.050
1.360,-0.050
1.361,-0.050
1.362,-0.054
1.363,-0.053
1.364,-0.053
1.365,-0.050
1.366,-0.049
1.367,-0.050
1.368,-0.050
1.369,-0.050
1.370,-0.053
1.371,-0.053
1.372,-0.057
1.373,-0.056
1.374,-0.055
1.375,-0.053
1.376,-0.053
1.377,-0.053
1.378,-0.053
1.379,-0.053
1.380,-0.053
1.381,-0.053
1.382,-0.054
1.383,-0.056
1.384,-0.054
1.385,-0.056
1.386,-0.055
1.387,-0.056
1.388,-0.054
1.389,-0.056
1.390,-0.055
1.391,-0.053
1.392,-0.056
1.393,-0.056
1.394,-0.054
1.395,-0.056
1.396,-0.053
1.397,-0.050
1.398,-0.051
1.399,-0.050
1.400,-0.050
1.401,-0.050
1.402,-0.054
1.403,-0.053
1.404,-0.052
1.405,-0.050
1.406,-0.050
1.407,-0.050
1.408,-0.050
1.409,-0.050
1.410,-0.048
1.411,-0.050
1.412,-0.049
1.413,-0.044
1.414,-0.046
1.415,-0.044
1.416,-0.047
1.417,-0.050
1.418,-0.050
1.419,-0.050
1.420,-0.047
1.421,-0.041
1.422,-0.041
1.423,-0.038
1.424,-0.036
1.425,-0.038
1.426,-0.041
1.427,-0.041
1.428,-0.042
1.429,-0.044
1.430,-0.044
1.431,-0.044
1.432,-0.044
1.433,-0.044
1.434,-0.041
1.435,-0.038
1.436,-0.036
1.437,-0.038
1.438,-0.036
1.439,-0.034
1.440,-0.036
1.441,-0.038
1.442,-0.034
1.443,-0.031
1.444,-0.031
1.445,-0.034
1.446,-0.031
1.447,-0.031
1.448,-0.030
1.449,-0.028
1.450,-0.029
1.451,-0.031
1.452,-0.034
1.453,-0.031
1.454,-0.031
1.455,-0.031
1.456,-0.030
1.457,-0.028
1.458,-0.024
1.459,-0.019
1.460,-0.022
1.461,-0.022
1.462,-0.023
1.463,-0.025
1.464,-0.024
1.465,-0.022
1.466,-0.023
1.467,-0.025
1.468,-0.023
1.469,-0.025
1.470,-0.026
1.471,-0.025
1.472,-0.025
1.473,-0.025
1.474,-0.025
1.475,-0.025
1.476,-0.021
1.477,-0.016
1.478,-0.017
1.479,-0.019
1.480,-0.014
1.481,-0.012
1.482,-0.012
1.483,-0.012
1.484,-0.011
1.485,-0.012
1.486,-0.012
1.487,-0.012
1.488,-0.014
1.489,-0.012
1.490,-0.016
1.491,-0.012
1.492,-0.014
1.493,-0.016
1.494,-0.016
1.495,-0.016
1.496,-0.014
1.497,-0.012
1.498,-0.014
1.499,-0.012
1.500,-0.017
1.501,-0.016
1.502,-0.014
1.503,-0.016
1.504,-0.012
1.505,-0.016
1.506,-0.012
1.507,-0.012
1.508,-0.011
1.509,-0.009
1.510,-0.011
1.511,-0.009
1.512,-0.006
1.513,-0.009
1.514,-0.011
1.515,-0.012
1.516,-0.009
1.517,-0.009
1.518,-0.009
1.519,-0.012
1.520,-0.008
1.521,-0.006
1.522,-0.006
1.523,-0.006
1.524,-0.007
1.525,-0.006
1.526,-0.011
1.527,-0.012
1.528,-0.009
1.529,-0.009
1.530,-0.005
1.531,0.000
1.532,-0.004
1.533,-0.003
1.534,0.000
1.535,-0.003
1.536,0.001
1.537,0.000
1.538,-0.004
1.539,-0.003
1.540,-0.003
1.541,-0.003
1.542,-0.003
1.543,-0.003
1.544,0.000
1.545,-0.003
1.546,0.001
1.547,0.003
1.548,0.003
1.549,0.003
1.550,0.000
1.551,0.000
1.552,0.001
1.553,0.003
1.554,0.000
1.555,0.000
1.556,0.003
1.557,0.003
1.558,0.003
1.559,0.003
1.560,0.003
1.561,0.003
1.562,0.003
1.563,0.003
1.564,0.004
1.565,0.006
1.566,0.005
1.567,0.006
1.568,0.009
1.569,0.006
1.570,0.006
1.571,0.006
1.572,0.011
1.573,0.009
1.574,0.009
1.575,0.009
1.576,0.011
1.577,0.009
1.578,0.009
1.579,0.009
1.580,0.012
1.581,0.016
1.582,0.011
1.583,0.012
1.584,0.014
1.585,0.012
1.586,0.014
1.587,0.016
1.588,0.019
1.589,0.019
1.590,0.022
1.591,0.022
1.592,0.020
1.593,0.025
1.594,0.024
1.595,0.025
1.596,0.022
1.597,0.022
1.598,0.023
1.599,0.025
1.600,0.022
1.601,0.022
1.602,0.024
1.603,0.025
1.604,0.028
1.605,0.028
1.606,0.030
1.607,0.031
1.608,0.033
1.609,0.034
1.610,0.034
1.611,0.038
1.612,0.038
1.613,0.038
1.614,0.039
1.615,0.044
1.616,0.038
1.617,0.041
1.618,0.041
1.619,0.044
1.620,0.042
1.621,0.047
1.622,0.046
1.623,0.047
1.624,0.047
1.625,0.047
1.626,0.053
1.627,0.059
1.628,0.058
1.629,0.059
1.630,0.064
1.631,0.066
1.632,0.066
1.633,0.066
1.634,0.064
1.635,0.066
1.636,0.070
1.637,0.072
1.638,0.073
1.639,0.078
1.640,0.080
1.641,0.081
1.642,0.086
1.643,0.084
1.644,0.086
1.645,0.087
1.646,0.091
1.647,0.091
1.648,0.094
1.649,0.094
1.650,0.096
1.651,0.097
1.652,0.097
1.653,0.100
1.654,0.100
1.655,0.103
1.656,0.106
1.657,0.109
1.658,0.114
1.659,0.116
1.660,0.113
1.661,0.116
1.662,0.119
1.663,0.122
1.664,0.125
1.665,0.131
1.666,0.131
1.667,0.134
1.668,0.137
1.669,0.134
1.670,0.136
1.671,0.134
1.672,0.133
1.673,0.134
1.674,0.137
1.675,0.137
1.676,0.139
1.677,0.144
1.678,0.147
1.679,0.150
1.680,0.153
1.681,0.153
1.682,0.152
1.683,0.150
1.684,0.152
1.685,0.147
1.686,0.148
1.687,0.153
1.688,0.150
1.689,0.153
1.690,0.149
1.691,0.147
1.692,0.146
1.693,0.144
1.694,0.139
1.695,0.141
1.696,0.141
1.697,0.141
1.698,0.141
1.699,0.137
1.700,0.137
1.701,0.137
1.702,0.141
1.703,0.141
1.704,0.136
1.705,0.134
1.706,0.130
1.707,0.125
1.708,0.125
1.709,0.122
1.710,0.122
1.711,0.122
1.712,0.123
1.713,0.122
1.714,0.119
1.715,0.116
1.716,0.108
1.717,0.103
1.718,0.106
1.719,0.100
1.720,0.100
1.721,0.100
1.722,0.097
1.723,0.094
1.724,0.093
1.725,0.087
1.726,0.084
1.727,0.078
1.728,0.079
1.729,0.078
1.730,0.075
1.731,0.069
1.732,0.070
1.733,0.072
1.734,0.064
1.735,0.063
1.736,0.064
1.737,0.059
1.738,0.061
1.739,0.059
1.740,0.055
1.741,0.053
1.742,0.053
1.743,0.053
1.744,0.050
1.745,0.050
1.746,0.050
1.747,0.047
1.748,0.045
1.749,0.044
1.750,0.042
1.751,0.038
1.752,0.034
1.753,0.031
1.754,0.028
1.755,0.025
1.756,0.025
1.757,0.025
1.758,0.022
1.759,0.019
1.760,0.017
1.761,0.019
1.762,0.016
1.763,0.016
1.764,0.012
1.765,0.009
1.766,0.009
1.767,0.006
1.768,0.006
1.769,0.003
1.770,0.000
1.771,0.003
1.772,-0.001
1.773,-0.006
1.774,-0.006
1.775,-0.009
1.776,-0.008
1.777,-0.009
1.778,-0.014
1.779,-0.016
1.780,-0.012
1.781,-0.012
1.782,-0.016
1.783,-0.012
1.784,-0.017
1.785,-0.022
1.786,-0.021
1.787,-0.019
1.788,-0.018
1.789,-0.019
1.790,-0.022
1.791,-0.025
1.792,-0.025
1.793,-0.028
1.794,-0.031
1.795,-0.031
1.796,-0.030
1.797,-0.028
1.798,-0.028
1.799,-0.031
1.800,-0.028
1.801,-0.031
1.802,-0.030
1.803,-0.028
1.804,-0.030
1.805,-0.028
1.806,-0.036
1.807,-0.038
1.808,-0.033
1.809,-0.034
1.810,-0.038
1.811,-0.038
1.812,-0.038
1.813,-0.041
1.814,-0.039
1.815,-0.041
1.816,-0.039
1.817,-0.041
1.818,-0.041
1.819,-0.041
1.820,-0.041
1.821,-0.041
1.822,-0.039
1.823,-0.038
1.824,-0.041
1.825,-0.041
1.826,-0.039
1.827,-0.038
1.828,-0.039
1.829,-0.038
1.830,-0.041
1.831,-0.041
1.832,-0.044
1.833,-0.047
1.834,-0.047
1.835,-0.047
1.836,-0.046
1.837,-0.044
1.838,-0.041
1.839,-0.041
1.840,-0.042
1.841,-0.044
1.842,-0.046
1.843,-0.044
1.844,-0.047
1.845,-0.047
1.846,-0.048
1.847,-0.053
1.848,-0.053
1.849,-0.053
1.850,-0.053
1.851,-0.056
1.852,-0.052
1.853,-0.053
1.854,-0.055
1.855,-0.053
1.856,-0.049
1.857,-0.050
1.858,-0.051
1.859,-0.053
1.860,-0.056
1.861,-0.059
1.862,-0.055
1.863,-0.056
1.864,-0.057
1.865,-0.059
1.866,-0.058
1.867,-0.056
1.868,-0.056
1.869,-0.056
1.870,-0.056
1.871,-0.056
1.872,-0.061
1.873,-0.063
1.874,-0.063
1.875,-0.063
1.876,-0.061
1.877,-0.059
1.878,-0.064
1.879,-0.063
1.880,-0.059
1.881,-0.063
1.882,-0.061
1.883,-0.059
1.884,-0.056
1.885,-0.056
1.886,-0.059
1.887,-0.059
1.888,-0.061
1.889,-0.063
1.890,-0.064
1.891,-0.069
1.892,-0.066
1.893,-0.066
1.894,-0.064
1.895,-0.066
1.896,-0.070
1.897,-0.069
1.898,-0.061
1.899,-0.059
1.900,-0.063
1.901,-0.063
1.902,-0.064
1.903,-0.066
1.904,-0.066
1.905,-0.063
1.906,-0.067
1.907,-0.069
1.908,-0.064
1.909,-0.066
1.910,-0.066
1.911,-0.066
1.912,-0.069
1.913,-0.066
1.914,-0.066
1.915,-0.066
1.916,-0.067
1.917,-0.069
1.918,-0.070
1.919,-0.072
1.920,-0.071
1.921,-0.072
1.922,-0.073
1.923,-0.075
1.924,-0.071
1.925,-0.072
1.926,-0.072
1.927,-0.072
1.928,-0.072
1.929,-0.072
1.930,-0.075
1.931,-0.075
1.932,-0.071
1.933,-0.075
1.934,-0.075
1.935,-0.072
1.936,-0.071
1.937,-0.069
1.938,-0.070
1.939,-0.072
1.940,-0.069
1.941,-0.072
1.942,-0.072
1.943,-0.072
1.944,-0.072
1.945,-0.072
1.946,-0.074
1.947,-0.069
1.948,-0.070
1.949,-0.072
1.950,-0.069
1.951,-0.069
1.952,-0.072
1.953,-0.072
1.954,-0.072
1.955,-0.072
1.956,-0.072
1.957,-0.072
1.958,-0.071
1.959,-0.072
1.960,-0.072
1.961,-0.072
1.962,-0.073
1.963,-0.075
1.964,-0.071
1.965,-0.072
1.966,-0.072
1.967,-0.072
1.968,-0.069
1.969,-0.072
1.970,-0.072
1.971,-0.072
1.972,-0.073
1.973,-0.075
1.974,-0.072
1.975,-0.072
1.976,-0.074
1.977,-0.072
1.978,-0.075
1.979,-0.075
1.980,-0.072
1.981,-0.072
1.982,-0.071
1.983,-0.072
1.984,-0.073
1.985,-0.075
1.986,-0.072
1.987,-0.072
1.988,-0.071
1.989,-0.072
1.990,-0.073
1.991,-0.075
1.992,-0.071
1.993,-0.069
1.994,-0.069
1.995,-0.069
1.996,-0.070
1.997,-0.072
1.998,-0.072
1.999,-0.072
2.000,-0.072
2.001,-0.072
2.002,-0.072
2.003,-0.072
2.004,-0.072
2.005,-0.072
2.006,-0.073
2.007,-0.075
2.008,-0.069
2.009,-0.069
2.010,-0.069
2.011,-0.069
2.012,-0.070
2.013,-0.072
2.014,-0.071
2.015,-0.069
2.016,-0.064
2.017,-0.066
2.018,-0.067
2.019,-0.069
2.020,-0.069
2.021,-0.069
2.022,-0.069
2.023,-0.069
2.024,-0.069
2.025,-0.072
2.026,-0.073
2.027,-0.072
2.028,-0.071
2.029,-0.069
2.030,-0.071
2.031,-0.066
2.032,-0.064
2.033,-0.066
2.034,-0.066
2.035,-0.069
2.036,-0.070
2.037,-0.072
2.038,-0.069
2.039,-0.072
2.040,-0.075
2.041,-0.072
2.042,-0.069
2.043,-0.069
2.044,-0.072
2.045,-0.069
2.046,-0.066
2.047,-0.066
2.048,-0.067
2.049,-0.069
2.050,-0.069
2.051,-0.069
2.052,-0.069
2.053,-0.069
2.054,-0.066
2.055,-0.069
2.056,-0.070
2.057,-0.072
2.058,-0.071
2.059,-0.069
2.060,-0.069
2.061,-0.069
2.062,-0.068
2.063,-0.069
2.064,-0.070
2.065,-0.069
2.066,-0.069
2.067,-0.069
2.068,-0.073
2.069,-0.072
2.070,-0.071
2.071,-0.072
2.072,-0.072
2.073,-0.072
2.074,-0.075
2.075,-0.072
2.076,-0.073
2.077,-0.075
2.078,-0.075
2.079,-0.075
2.080,-0.075
2.081,-0.075
2.082,-0.072
2.083,-0.075
2.084,-0.075
2.085,-0.075
2.086,-0.072
2.087,-0.072
2.088,-0.071
2.089,-0.072
2.090,-0.074
2.091,-0.072
2.092,-0.072
2.093,-0.069
2.094,-0.067
2.095,-0.069
2.096,-0.071
2.097,-0.069
2.098,-0.070
2.099,-0.072
2.100,-0.073
2.101,-0.075
2.102,-0.071
2.103,-0.072
2.104,-0.072
2.105,-0.072
2.106,-0.071
2.107,-0.069
2.108,-0.076
2.109,-0.075
2.110,-0.072
2.111,-0.072
2.112,-0.068
2.113,-0.069
2.114,-0.073
2.115,-0.069
2.116,-0.072
2.117,-0.072
2.118,-0.072
2.119,-0.075
2.120,-0.075
2.121,-0.075
2.122,-0.069
2.123,-0.075
2.124,-0.075
2.125,-0.072
2.126,-0.073
2.127,-0.075
2.128,-0.075
2.129,-0.075
2.130,-0.075
2.131,-0.075
2.132,-0.074
2.133,-0.072
2.134,-0.072
2.135,-0.072
2.136,-0.076
2.137,-0.075
2.138,-0.071
2.139,-0.072
2.140,-0.078
2.141,-0.078
2.142,-0.077
2.143,-0.075
2.144,-0.078
2.145,-0.078
2.146,-0.078
2.147,-0.078
2.148,-0.079
2.149,-0.078
2.150,-0.075
2.151,-0.078
2.152,-0.077
2.153,-0.075
2.154,-0.072
2.155,-0.072
2.156,-0.073
2.157,-0.075
2.158,-0.074
2.159,-0.072
2.160,-0.075
2.161,-0.072
2.162,-0.071
2.163,-0.072
2.164,-0.072
2.165,-0.072
2.166,-0.071
2.167,-0.069
2.168,-0.069
2.169,-0.069
2.170,-0.070
2.171,-0.072
2.172,-0.070
2.173,-0.072
2.174,-0.071
2.175,-0.069
2.176,-0.073
2.177,-0.072
2.178,-0.074
2.179,-0.072
2.180,-0.072
2.181,-0.072
2.182,-0.069
2.183,-0.069
2.184,-0.069
2.185,-0.069
2.186,-0.069
2.187,-0.069
2.188,-0.076
2.189,-0.075
2.190,-0.072
2.191,-0.072
2.192,-0.074
2.193,-0.069
2.194,-0.069
2.195,-0.069
2.196,-0.070
2.197,-0.072
2.198,-0.071
2.199,-0.072
2.200,-0.072
2.201,-0.072
2.202,-0.072
2.203,-0.072
2.204,-0.076
2.205,-0.072
2.206,-0.072
2.207,-0.072
2.208,-0.075
2.209,-0.075
2.210,-0.075
2.211,-0.075
2.212,-0.075
2.213,-0.072
2.214,-0.076
2.215,-0.075
2.216,-0.075
2.217,-0.075
2.218,-0.075
2.219,-0.075
2.220,-0.074
2.221,-0.072
2.222,-0.073
2.223,-0.075
2.224,-0.075
2.225,-0.072
2.226,-0.073
2.227,-0.072
2.228,-0.073
2.229,-0.072
2.230,-0.072
2.231,-0.072
2.232,-0.069
2.233,-0.069
2.234,-0.064
2.235,-0.059
2.236,-0.052
2.237,-0.047
2.238,-0.039
2.239,-0.041
2.240,-0.036
2.241,-0.031
2.242,-0.027
2.243,-0.019
2.244,-0.020
2.245,-0.022
2.246,-0.021
2.247,-0.016
2.248,-0.011
2.249,-0.006
2.250,-0.006
2.251,-0.006
2.252,-0.011
2.253,-0.012
2.254,-0.014
2.255,-0.016
2.256,-0.017
2.257,-0.019
2.258,-0.025
2.259,-0.016
2.260,-0.003
2.261,0.006
2.262,0.023
2.263,0.041
2.264,0.066
2.265,0.081
2.266,0.100
2.267,0.106
2.268,0.119
2.269,0.122
2.270,0.120
2.271,0.119
2.272,0.114
2.273,0.109
2.274,0.106
2.275,0.106
2.276,0.102
2.277,0.103
2.278,0.103
2.279,0.100
2.280,0.103
2.281,0.100
2.282,0.101
2.283,0.100
2.284,0.081
2.285,0.075
2.286,0.074
2.287,0.069
2.288,0.073
2.289,0.072
2.290,0.066
2.291,0.059
2.292,0.047
2.293,0.044
2.294,0.034
2.295,0.034
2.296,0.039
2.297,0.041
2.298,0.044
2.299,0.044
2.300,0.038
2.301,0.034
2.302,0.028
2.303,0.031
2.304,0.036
2.305,0.041
2.306,0.048
2.307,0.047
2.308,0.050
2.309,0.050
2.310,0.033
2.311,0.022
2.312,0.009
2.313,0.000
2.314,-0.006
2.315,-0.009
2.316,-0.019
2.317,-0.025
2.318,-0.025
2.319,-0.028
2.320,-0.028
2.321,-0.028
2.322,-0.036
2.323,-0.044
2.324,-0.049
2.325,-0.050
2.326,-0.059
2.327,-0.063
2.328,-0.064
2.329,-0.063
2.330,-0.064
2.331,-0.066
2.332,-0.064
2.333,-0.066
2.334,-0.066
2.335,-0.069
2.336,-0.071
2.337,-0.069
2.338,-0.070
2.339,-0.072
2.340,-0.071
2.341,-0.069
2.342,-0.072
2.343,-0.072
2.344,-0.073
2.345,-0.075
2.346,-0.079
2.347,-0.081
2.348,-0.084
2.349,-0.084
2.350,-0.084
2.351,-0.087
2.352,-0.083
2.353,-0.084
2.354,-0.087
2.355,-0.087
2.356,-0.084
2.357,-0.087
2.358,-0.087
2.359,-0.087
2.360,-0.089
2.361,-0.091
2.362,-0.091
2.363,-0.091
2.364,-0.094
2.365,-0.094
2.366,-0.094
2.367,-0.094
2.368,-0.093
2.369,-0.094
2.370,-0.092
2.371,-0.094
2.372,-0.093
2.373,-0.091
2.374,-0.092
2.375,-0.094
2.376,-0.094
2.377,-0.094
2.378,-0.093
2.379,-0.091
2.380,-0.091
2.381,-0.091
2.382,-0.092
2.383,-0.091
2.384,-0.092
2.385,-0.091
2.386,-0.091
2.387,-0.087
2.388,-0.087
2.389,-0.087
2.390,-0.086
2.391,-0.087
2.392,-0.089
2.393,-0.094
2.394,-0.094
2.395,-0.100
2.396,-0.109
2.397,-0.116
2.398,-0.120
2.399,-0.113
2.400,-0.104
2.401,-0.097
2.402,-0.081
2.403,-0.059
2.404,-0.038
2.405,-0.009
2.406,0.019
2.407,0.031
2.408,0.042
2.409,0.059
2.410,0.075
2.411,0.094
2.412,0.113
2.413,0.150
2.414,0.191
2.415,0.244
2.416,0.329
2.417,0.412
2.418,0.472
2.419,0.531
2.420,0.597
2.421,0.666
2.422,0.759
2.423,0.806
2.424,0.806
2.425,0.828
2.426,0.870
2.427,0.953
2.428,1.061
2.429,1.128
2.430,1.192
2.431,1.184
2.432,1.136
2.433,1.041
2.434,0.896
2.435,0.747
2.436,0.599
2.437,0.506
2.438,0.406
2.439,0.319
2.440,0.238
2.441,0.172
2.442,0.125
2.443,0.081
2.444,0.051
2.445,0.028
2.446,-0.001
2.447,-0.019
2.448,-0.031
2.449,-0.028
2.450,-0.016
2.451,-0.006
2.452,-0.001
2.453,0.000
2.454,0.006
2.455,0.022
2.456,0.045
2.457,0.059
2.458,0.073
2.459,0.081
2.460,0.089
2.461,0.091
2.462,0.095
2.463,0.091
2.464,0.078
2.465,0.066
2.466,0.053
2.467,0.041
2.468,0.034
2.469,0.025
2.470,0.019
2.471,0.016
2.472,0.009
2.473,0.000
2.474,-0.009
2.475,-0.012
2.476,-0.016
2.477,-0.016
2.478,-0.016
2.479,-0.016
2.480,-0.011
2.481,-0.009
2.482,-0.016
2.483,-0.019
2.484,-0.025
2.485,-0.028
2.486,-0.025
2.487,-0.028
2.488,-0.033
2.489,-0.034
2.490,-0.039
2.491,-0.041
2.492,-0.039
2.493,-0.038
2.494,-0.041
2.495,-0.038
2.496,-0.038
2.497,-0.034
2.498,-0.033
2.499,-0.034
2.500,-0.036
2.501,-0.038
2.502,-0.042
2.503,-0.044
2.504,-0.047
2.505,-0.044
2.506,-0.044
2.507,-0.044
2.508,-0.045
2.509,-0.047
2.510,-0.046
2.511,-0.044
2.512,-0.042
2.513,-0.041
2.514,-0.041
2.515,-0.041
2.516,-0.041
2.517,-0.044
2.518,-0.042
2.519,-0.044
2.520,-0.041
2.521,-0.041
2.522,-0.039
2.523,-0.038
2.524,-0.041
2.525,-0.041
2.526,-0.041
2.527,-0.044
2.528,-0.044
2.529,-0.044
2.530,-0.042
2.531,-0.038
2.532,-0.038
2.533,-0.038
2.534,-0.041
2.535,-0.038
2.536,-0.038
2.537,-0.038
2.538,-0.036
2.539,-0.034
2.540,-0.036
2.541,-0.038
2.542,-0.034
2.543,-0.034
2.544,-0.036
2.545,-0.034
2.546,-0.038
2.547,-0.038
2.548,-0.038
2.549,-0.038
2.550,-0.038
2.551,-0.038
2.552,-0.039
2.553,-0.038
2.554,-0.038
2.555,-0.034
2.556,-0.033
2.557,-0.034
2.558,-0.036
2.559,-0.034
2.560,-0.034
2.561,-0.034
2.562,-0.033
2.563,-0.031
2.564,-0.030
2.565,-0.028
2.566,-0.029
2.567,-0.031
2.568,-0.028
2.569,-0.028
2.570,-0.029
2.571,-0.031
2.572,-0.033
2.573,-0.034
2.574,-0.036
2.575,-0.038
2.576,-0.033
2.577,-0.031
2.578,-0.028
2.579,-0.028
2.580,-0.028
2.581,-0.028
2.582,-0.027
2.583,-0.025
2.584,-0.029
2.585,-0.028
2.586,-0.029
2.587,-0.031
2.588,-0.030
2.589,-0.028
2.590,-0.028
2.591,-0.028
2.592,-0.028
2.593,-0.025
2.594,-0.026
2.595,-0.028
2.596,-0.029
2.597,-0.031
2.598,-0.028
2.599,-0.025
2.600,-0.021
2.601,-0.019
2.602,-0.020
2.603,-0.019
2.604,-0.018
2.605,-0.016
2.606,-0.016
2.607,-0.016
2.608,-0.016
2.609,-0.016
2.610,-0.017
2.611,-0.019
2.612,-0.017
2.613,-0.019
2.614,-0.020
2.615,-0.022
2.616,-0.019
2.617,-0.019
2.618,-0.018
2.619,-0.016
2.620,-0.014
2.621,-0.009
2.622,-0.014
2.623,-0.012
2.624,-0.012
2.625,-0.012
2.626,-0.012
2.627,-0.012
2.628,-0.012
2.629,-0.012
2.630,-0.011
2.631,-0.006
2.632,-0.011
2.633,-0.009
2.634,-0.009
2.635,-0.012
2.636,-0.007
2.637,-0.009
2.638,-0.008
2.639,-0.009
2.640,-0.009
2.641,-0.009
2.642,-0.009
2.643,-0.006
2.644,-0.003
2.645,-0.006
2.646,-0.007
2.647,-0.009
2.648,-0.002
2.649,0.003
2.650,0.002
2.651,-0.003
2.652,-0.003
2.653,-0.006
2.654,-0.003
2.655,0.000
2.656,-0.003
2.657,-0.003
2.658,-0.003
2.659,0.000
2.660,0.002
2.661,0.000
2.662,0.000
2.663,0.000
2.664,-0.002
2.665,0.003
2.666,0.005
2.667,0.000
2.668,0.004
2.669,0.003
2.670,-0.003
2.671,-0.003
2.672,-0.004
2.673,-0.006
2.674,-0.006
2.675,-0.006
2.676,0.000
2.677,0.000
2.678,0.003
2.679,0.003
2.680,0.002
2.681,0.000
2.682,0.000
2.683,0.003
2.684,0.003
2.685,0.003
2.686,0.000
2.687,0.000
2.688,0.002
2.689,0.000
2.690,0.001
2.691,0.003
2.692,0.003
2.693,0.003
2.694,0.003
2.695,0.003
2.696,0.006
2.697,0.009
2.698,0.008
2.699,0.009
2.700,0.012
2.701,0.009
2.702,0.008
2.703,0.006
2.704,0.011
2.705,0.009
2.706,0.008
2.707,0.006
2.708,0.009
2.709,0.009
2.710,0.009
2.711,0.009
2.712,0.011
2.713,0.012
2.714,0.011
2.715,0.016
2.716,0.018
2.717,0.016
2.718,0.014
2.719,0.012
2.720,0.014
2.721,0.012
2.722,0.019
2.723,0.022
2.724,0.019
2.725,0.022
2.726,0.021
2.727,0.022
2.728,0.019
2.729,0.019
2.730,0.022
2.731,0.025
2.732,0.025
2.733,0.028
2.734,0.030
2.735,0.031
2.736,0.031
2.737,0.028
2.738,0.030
2.739,0.031
2.740,0.031
2.741,0.031
2.742,0.030
2.743,0.031
2.744,0.031
2.745,0.031
2.746,0.034
2.747,0.041
2.748,0.039
2.749,0.047
2.750,0.046
2.751,0.047
2.752,0.042
2.753,0.044
2.754,0.045
2.755,0.050
2.756,0.049
2.757,0.047
2.758,0.050
2.759,0.053
2.760,0.053
2.761,0.056
2.762,0.058
2.763,0.056
2.764,0.059
2.765,0.063
2.766,0.061
2.767,0.063
2.768,0.067
2.769,0.069
2.770,0.069
2.771,0.072
2.772,0.074
2.773,0.075
2.774,0.079
2.775,0.078
2.776,0.080
2.777,0.081
2.778,0.084
2.779,0.084
2.780,0.087
2.781,0.087
2.782,0.092
2.783,0.097
2.784,0.097
2.785,0.100
2.786,0.100
2.787,0.103
2.788,0.105
2.789,0.106
2.790,0.108
2.791,0.106
2.792,0.107
2.793,0.116
2.794,0.116
2.795,0.116
2.796,0.117
2.797,0.122
2.798,0.121
2.799,0.122
2.800,0.128
2.801,0.128
2.802,0.132
2.803,0.134
2.804,0.133
2.805,0.134
2.806,0.136
2.807,0.134
2.808,0.133
2.809,0.134
2.810,0.136
2.811,0.137
2.812,0.142
2.813,0.144
2.814,0.144
2.815,0.144
2.816,0.146
2.817,0.141
2.818,0.139
2.819,0.141
2.820,0.137
2.821,0.141
2.822,0.137
2.823,0.137
2.824,0.137
2.825,0.137
2.826,0.134
2.827,0.137
2.828,0.139
2.829,0.141
2.830,0.142
2.831,0.141
2.832,0.139
2.833,0.137
2.834,0.139
2.835,0.137
2.836,0.130
2.837,0.125
2.838,0.123
2.839,0.122
2.840,0.122
2.841,0.119
2.842,0.119
2.843,0.119
2.844,0.119
2.845,0.116
2.846,0.111
2.847,0.106
2.848,0.103
2.849,0.103
2.850,0.107
2.851,0.103
2.852,0.101
2.853,0.100
2.854,0.097
2.855,0.094
2.856,0.093
2.857,0.087
2.858,0.089
2.859,0.087
2.860,0.089
2.861,0.087
2.862,0.080
2.863,0.069
2.864,0.070
2.865,0.072
2.866,0.067
2.867,0.069
2.868,0.070
2.869,0.066
2.870,0.067
2.871,0.066
2.872,0.063
2.873,0.063
2.874,0.058
2.875,0.053
2.876,0.050
2.877,0.050
2.878,0.047
2.879,0.041
2.880,0.036
2.881,0.031
2.882,0.033
2.883,0.031
2.884,0.028
2.885,0.025
2.886,0.021
2.887,0.016
2.888,0.017
2.889,0.019
2.890,0.016
2.891,0.012
2.892,0.009
2.893,0.009
2.894,0.006
2.895,0.006
2.896,0.004
2.897,0.003
2.898,0.003
2.899,0.000
2.900,0.000
2.901,-0.003
2.902,-0.009
2.903,-0.009
2.904,-0.011
2.905,-0.012
2.906,-0.011
2.907,-0.012
2.908,-0.012
2.909,-0.016
2.910,-0.019
2.911,-0.019
2.912,-0.018
2.913,-0.019
2.914,-0.022
2.915,-0.019
2.916,-0.022
2.917,-0.025
2.918,-0.026
2.919,-0.028
2.920,-0.027
2.921,-0.028
2.922,-0.029
2.923,-0.031
2.924,-0.031
2.925,-0.034
2.926,-0.038
2.927,-0.038
2.928,-0.039
2.929,-0.041
2.930,-0.041
2.931,-0.044
2.932,-0.041
2.933,-0.044
2.934,-0.042
2.935,-0.041
2.936,-0.041
2.937,-0.038
2.938,-0.042
2.939,-0.041
2.940,-0.039
2.941,-0.044
2.942,-0.048
2.943,-0.050
2.944,-0.050
2.945,-0.053
2.946,-0.049
2.947,-0.047
2.948,-0.047
2.949,-0.050
2.950,-0.053
2.951,-0.056
2.952,-0.056
2.953,-0.056
2.954,-0.053
2.955,-0.050
2.956,-0.053
2.957,-0.053
2.958,-0.053
2.959,-0.053
2.960,-0.053
2.961,-0.050
2.962,-0.052
2.963,-0.050
2.964,-0.050
2.965,-0.050
2.966,-0.053
2.967,-0.056
2.968,-0.059
2.969,-0.063
2.970,-0.058
2.971,-0.056
2.972,-0.057
2.973,-0.059
2.974,-0.063
2.975,-0.063
2.976,-0.063
2.977,-0.059
2.978,-0.059
2.979,-0.063
2.980,-0.063
2.981,-0.063
2.982,-0.063
2.983,-0.066
2.984,-0.063
2.985,-0.066
2.986,-0.069
2.987,-0.069
2.988,-0.063
2.989,-0.063
2.990,-0.063
2.991,-0.063
2.992,-0.063
2.993,-0.063
2.994,-0.059
2.995,-0.063
2.996,-0.063
2.997,-0.063
2.998,-0.063
2.999,-0.063
3.000,-0.064
3.001,-0.066
3.002,-0.066
3.003,-0.066
3.004,-0.068
3.005,-0.066
3.006,-0.066
3.007,-0.066
3.008,-0.066
3.009,-0.066
3.010,-0.070
3.011,-0.069
3.012,-0.067
3.013,-0.072
3.014,-0.072
3.015,-0.072
3.016,-0.069
3.017,-0.069
3.018,-0.071
3.019,-0.069
3.020,-0.069
3.021,-0.069
3.022,-0.068
3.023,-0.069
3.024,-0.067
3.025,-0.069
3.026,-0.068
3.027,-0.069
3.028,-0.072
3.029,-0.069
3.030,-0.064
3.031,-0.066
3.032,-0.069
3.033,-0.069
3.034,-0.070
3.035,-0.072
3.036,-0.072
3.037,-0.069
3.038,-0.071
3.039,-0.069
3.040,-0.064
3.041,-0.066
3.042,-0.069
3.043,-0.072
3.044,-0.076
3.045,-0.075
3.046,-0.075
3.047,-0.075
3.048,-0.074
3.049,-0.072
3.050,-0.072
3.051,-0.072
3.052,-0.071
3.053,-0.072
3.054,-0.072
3.055,-0.072
3.056,-0.069
3.057,-0.072
3.058,-0.073
3.059,-0.075
3.060,-0.075
3.061,-0.075
3.062,-0.078
3.063,-0.078
3.064,-0.074
3.065,-0.078
3.066,-0.079
3.067,-0.078
3.068,-0.078
3.069,-0.078
3.070,-0.078
3.071,-0.078
3.072,-0.074
3.073,-0.075
3.074,-0.075
3.075,-0.075
3.076,-0.075
3.077,-0.075
3.078,-0.079
3.079,-0.078
3.080,-0.077
3.081,-0.075
3.082,-0.072
3.083,-0.072
3.084,-0.076
3.085,-0.078
3.086,-0.077
3.087,-0.075
3.088,-0.075
3.089,-0.075
3.090,-0.075
3.091,-0.078
3.092,-0.077
3.093,-0.075
3.094,-0.075
3.095,-0.075
3.096,-0.072
3.097,-0.075
3.098,-0.075
3.099,-0.075
3.100,-0.072
3.101,-0.075
3.102,-0.075
3.103,-0.075
3.104,-0.076
3.105,-0.078
3.106,-0.075
3.107,-0.075
3.108,-0.077
3.109,-0.075
3.110,-0.077
3.111,-0.075
3.112,-0.073
3.113,-0.075
3.114,-0.074
3.115,-0.075
3.116,-0.075
3.117,-0.075
3.118,-0.073
3.119,-0.075
3.120,-0.074
3.121,-0.075
3.122,-0.076
3.123,-0.078
3.124,-0.076
3.125,-0.078
3.126,-0.078
3.127,-0.078
3.128,-0.079
3.129,-0.078
3.130,-0.077
3.131,-0.078
3.132,-0.075
3.133,-0.075
3.134,-0.073
3.135,-0.072
3.136,-0.078
3.137,-0.081
3.138,-0.081
3.139,-0.084
3.140,-0.084
3.141,-0.084
3.142,-0.084
3.143,-0.084
3.144,-0.087
3.145,-0.087
3.146,-0.083
3.147,-0.081
3.148,-0.078
3.149,-0.078
3.150,-0.079
3.151,-0.081
3.152,-0.084
3.153,-0.084
3.154,-0.083
3.155,-0.081
3.156,-0.083
3.157,-0.084
3.158,-0.083
3.159,-0.081
3.160,-0.080
3.161,-0.078
3.162,-0.079
3.163,-0.081
3.164,-0.081
3.165,-0.081
3.166,-0.081
3.167,-0.081
3.168,-0.083
3.169,-0.084
3.170,-0.086
3.171,-0.084
3.172,-0.087
3.173,-0.087
3.174,-0.087
3.175,-0.087
3.176,-0.089
3.177,-0.091
3.178,-0.091
3.179,-0.087
3.180,-0.091
3.181,-0.091
3.182,-0.089
3.183,-0.087
3.184,-0.087
3.185,-0.087
3.186,-0.087
3.187,-0.087
3.188,-0.091
3.189,-0.091
3.190,-0.087
3.191,-0.087
3.192,-0.086
3.193,-0.087
3.194,-0.086
3.195,-0.087
3.196,-0.089
3.197,-0.084
3.198,-0.083
3.199,-0.081
3.200,-0.084
3.201,-0.084
3.202,-0.087
3.203,-0.091
3.204,-0.086
3.205,-0.084
3.206,-0.086
3.207,-0.087
3.208,-0.087
3.209,-0.087
3.210,-0.087
3.211,-0.087
3.212,-0.087
3.213,-0.087
3.214,-0.084
3.215,-0.081
3.216,-0.083
3.217,-0.081
3.218,-0.084
3.219,-0.084
3.220,-0.084
3.221,-0.084
3.222,-0.086
3.223,-0.087
3.224,-0.087
3.225,-0.087
3.226,-0.087
3.227,-0.084
3.228,-0.081
3.229,-0.081
3.230,-0.080
3.231,-0.081
3.232,-0.079
3.233,-0.081
3.234,-0.086
3.235,-0.087
3.236,-0.087
3.237,-0.091
3.238,-0.087
3.239,-0.087
3.240,-0.087
3.241,-0.087
3.242,-0.087
3.243,-0.087
3.244,-0.087
3.245,-0.084
3.246,-0.086
3.247,-0.084
3.248,-0.084
3.249,-0.081
3.250,-0.081
3.251,-0.081
3.252,-0.083
3.253,-0.084
3.254,-0.083
3.255,-0.081
3.256,-0.083
3.257,-0.084
3.258,-0.084
3.259,-0.087
3.260,-0.087
3.261,-0.087
3.262,-0.087
3.263,-0.087
3.264,-0.086
3.265,-0.081
3.266,-0.084
3.267,-0.084
3.268,-0.084
3.269,-0.084
3.270,-0.081
3.271,-0.084
3.272,-0.083
3.273,-0.081
3.274,-0.081
3.275,-0.078
3.276,-0.081
3.277,-0.084
3.278,-0.078
3.279,-0.081
3.280,-0.081
3.281,-0.081
3.282,-0.086
3.283,-0.087
3.284,-0.089
3.285,-0.084
3.286,-0.091
3.287,-0.091
3.288,-0.086
3.289,-0.084
3.290,-0.086
3.291,-0.087
3.292,-0.086
3.293,-0.084
3.294,-0.084
3.295,-0.084
3.296,-0.083
3.297,-0.081
3.298,-0.078
3.299,-0.078
3.300,-0.079
3.301,-0.081
3.302,-0.083
3.303,-0.084
3.304,-0.084
3.305,-0.087
3.306,-0.087
3.307,-0.091
3.308,-0.089
3.309,-0.087
3.310,-0.086
3.311,-0.084
3.312,-0.081
3.313,-0.078
3.314,-0.078
3.315,-0.075
3.316,-0.076
3.317,-0.075
3.318,-0.076
3.319,-0.078
3.320,-0.078
3.321,-0.078
3.322,-0.079
3.323,-0.084
3.324,-0.080
3.325,-0.078
3.326,-0.081
3.327,-0.081
3.328,-0.081
3.329,-0.081
3.330,-0.081
3.331,-0.081
3.332,-0.078
3.333,-0.075
3.334,-0.079
3.335,-0.081
3.336,-0.081
3.337,-0.081
3.338,-0.078
3.339,-0.078
3.340,-0.075
3.341,-0.078
3.342,-0.078
3.343,-0.078
3.344,-0.081
3.345,-0.081
3.346,-0.081
3.347,-0.081
3.348,-0.078
3.349,-0.075
3.350,-0.074
3.351,-0.078
3.352,-0.078
3.353,-0.078
3.354,-0.075
3.355,-0.075
3.356,-0.072
3.357,-0.072
3.358,-0.075
3.359,-0.078
3.360,-0.077
3.361,-0.075
3.362,-0.078
3.363,-0.078
3.364,-0.078
3.365,-0.078
3.366,-0.078
3.367,-0.081
3.368,-0.076
3.369,-0.078
3.370,-0.074
3.371,-0.072
3.372,-0.075
3.373,-0.078
3.374,-0.078
3.375,-0.078
3.376,-0.074
3.377,-0.075
3.378,-0.072
3.379,-0.072
3.380,-0.072
3.381,-0.072
3.382,-0.072
3.383,-0.072
3.384,-0.072
3.385,-0.072
3.386,-0.072
3.387,-0.075
3.388,-0.076
3.389,-0.078
3.390,-0.075
3.391,-0.075
3.392,-0.071
3.393,-0.069
3.394,-0.070
3.395,-0.066
3.396,-0.061
3.397,-0.053
3.398,-0.047
3.399,-0.041
3.400,-0.039
3.401,-0.034
3.402,-0.036
3.403,-0.031
3.404,-0.029
3.405,-0.031
3.406,-0.028
3.407,-0.028
3.408,-0.028
3.409,-0.028
3.410,-0.026
3.411,-0.028
3.412,-0.028
3.413,-0.028
3.414,-0.028
3.415,-0.031
3.416,-0.030
3.417,-0.028
3.418,-0.027
3.419,-0.022
3.420,-0.011
3.421,-0.003
3.422,0.012
3.423,0.028
3.424,0.044
3.425,0.063
3.426,0.078
3.427,0.100
3.428,0.103
3.429,0.109
3.430,0.108
3.431,0.109
3.432,0.109
3.433,0.109
3.434,0.103
3.435,0.100
3.436,0.101
3.437,0.100
3.438,0.101
3.439,0.100
3.440,0.103
3.441,0.103
3.442,0.101
3.443,0.103
3.444,0.089
3.445,0.078
3.446,0.076
3.447,0.069
3.448,0.069
3.449,0.069
3.450,0.067
3.451,0.069
3.452,0.064
3.453,0.059
3.454,0.054
3.455,0.047
3.456,0.046
3.457,0.038
3.458,0.039
3.459,0.041
3.460,0.038
3.461,0.034
3.462,0.030
3.463,0.025
3.464,0.026
3.465,0.025
3.466,0.034
3.467,0.041
3.468,0.042
3.469,0.044
3.470,0.036
3.471,0.028
3.472,0.020
3.473,0.009
3.474,0.002
3.475,-0.012
3.476,-0.022
3.477,-0.028
3.478,-0.030
3.479,-0.034
3.480,-0.034
3.481,-0.034
3.482,-0.036
3.483,-0.034
3.484,-0.041
3.485,-0.047
3.486,-0.053
3.487,-0.063
3.488,-0.066
3.489,-0.069
3.490,-0.066
3.491,-0.069
3.492,-0.069
3.493,-0.069
3.494,-0.069
3.495,-0.069
3.496,-0.072
3.497,-0.072
3.498,-0.074
3.499,-0.075
3.500,-0.078
3.501,-0.081
3.502,-0.078
3.503,-0.075
3.504,-0.075
3.505,-0.078
3.506,-0.079
3.507,-0.081
3.508,-0.083
3.509,-0.087
3.510,-0.089
3.511,-0.094
3.512,-0.094
3.513,-0.094
3.514,-0.094
3.515,-0.087
3.516,-0.089
3.517,-0.091
3.518,-0.092
3.519,-0.091
3.520,-0.094
3.521,-0.094
3.522,-0.093
3.523,-0.091
3.524,-0.091
3.525,-0.091
3.526,-0.089
3.527,-0.091
3.528,-0.095
3.529,-0.100
3.530,-0.099
3.531,-0.097
3.532,-0.097
3.533,-0.091
3.534,-0.092
3.535,-0.094
3.536,-0.094
3.537,-0.094
3.538,-0.094
3.539,-0.094
3.540,-0.094
3.541,-0.094
3.542,-0.097
3.543,-0.100
3.544,-0.099
3.545,-0.097
3.546,-0.094
3.547,-0.094
3.548,-0.089
3.549,-0.087
3.550,-0.086
3.551,-0.087
3.552,-0.087
3.553,-0.087
3.554,-0.087
3.555,-0.087
3.556,-0.094
3.557,-0.097
3.558,-0.106
3.559,-0.116
3.560,-0.119
3.561,-0.116
3.562,-0.107
3.563,-0.100
3.564,-0.087
3.565,-0.072
3.566,-0.049
3.567,-0.025
3.568,0.000
3.569,0.022
3.570,0.034
3.571,0.050
3.572,0.066
3.573,0.084
3.574,0.108
3.575,0.134
3.576,0.177
3.577,0.225
3.578,0.291
3.579,0.366
3.580,0.436
3.581,0.497
3.582,0.563
3.583,0.631
3.584,0.701
3.585,0.772
3.586,0.798
3.587,0.809
3.588,0.854
3.589,0.909
3.590,0.989
3.591,1.075
3.592,1.125
3.593,1.150
3.594,1.103
3.595,1.031
3.596,0.891
3.597,0.747
3.598,0.633
3.599,0.516
3.600,0.424
3.601,0.331
3.602,0.261
3.603,0.203
3.604,0.158
3.605,0.113
3.606,0.078
3.607,0.047
3.608,0.023
3.609,0.000
3.610,-0.008
3.611,-0.016
3.612,-0.014
3.613,-0.006
3.614,-0.003
3.615,0.003
3.616,0.008
3.617,0.016
3.618,0.031
3.619,0.050
3.620,0.064
3.621,0.078
3.622,0.084
3.623,0.091
3.624,0.091
3.625,0.091
3.626,0.080
3.627,0.069
3.628,0.056
3.629,0.044
3.630,0.033
3.631,0.025
3.632,0.020
3.633,0.016
3.634,0.009
3.635,0.003
3.636,-0.006
3.637,-0.012
3.638,-0.012
3.639,-0.016
3.640,-0.016
3.641,-0.016
3.642,-0.016
3.643,-0.016
3.644,-0.019
3.645,-0.022
3.646,-0.023
3.647,-0.028
3.648,-0.028
3.649,-0.028
3.650,-0.034
3.651,-0.038
3.652,-0.038
3.653,-0.041
3.654,-0.041
3.655,-0.041
3.656,-0.041
3.657,-0.044
3.658,-0.039
3.659,-0.038
3.660,-0.038
3.661,-0.041
3.662,-0.045
3.663,-0.047
3.664,-0.046
3.665,-0.047
3.666,-0.047
3.667,-0.050
3.668,-0.048
3.669,-0.050
3.670,-0.047
3.671,-0.044
3.672,-0.044
3.673,-0.044
3.674,-0.045
3.675,-0.047
3.676,-0.047
3.677,-0.047
3.678,-0.048
3.679,-0.047
3.680,-0.042
3.681,-0.038
3.682,-0.042
3.683,-0.041
3.684,-0.041
3.685,-0.041
3.686,-0.039
3.687,-0.041
3.688,-0.042
3.689,-0.041
3.690,-0.041
3.691,-0.041
3.692,-0.041
3.693,-0.041
3.694,-0.038
3.695,-0.038
3.696,-0.036
3.697,-0.038
3.698,-0.033
3.699,-0.031
3.700,-0.031
3.701,-0.031
3.702,-0.033
3.703,-0.034
3.704,-0.036
3.705,-0.034
3.706,-0.036
3.707,-0.038
3.708,-0.031
3.709,-0.031
3.710,-0.031
3.711,-0.031
3.712,-0.031
3.713,-0.031
3.714,-0.033
3.715,-0.034
3.716,-0.031
3.717,-0.031
3.718,-0.027
3.719,-0.025
3.720,-0.025
3.721,-0.022
3.722,-0.020
3.723,-0.022
3.724,-0.023
3.725,-0.025
3.726,-0.026
3.727,-0.028
3.728,-0.028
3.729,-0.028
3.730,-0.027
3.731,-0.022
3.732,-0.021
3.733,-0.019
3.734,-0.020
3.735,-0.022
3.736,-0.021
3.737,-0.019
3.738,-0.022
3.739,-0.022
3.740,-0.022
3.741,-0.019
3.742,-0.014
3.743,-0.009
3.744,-0.011
3.745,-0.012
3.746,-0.012
3.747,-0.016
3.748,-0.012
3.749,-0.012
3.750,-0.014
3.751,-0.016
3.752,-0.016
3.753,-0.016
3.754,-0.017
3.755,-0.019
3.756,-0.014
3.757,-0.012
3.758,-0.011
3.759,-0.009
3.760,-0.009
3.761,-0.009
3.762,-0.012
3.763,-0.012
3.764,-0.011
3.765,-0.009
3.766,-0.007
3.767,-0.009
3.768,-0.009
3.769,-0.009
3.770,-0.008
3.771,-0.006
3.772,-0.006
3.773,-0.006
3.774,-0.007
3.775,-0.006
3.776,-0.003
3.777,0.000
3.778,-0.001
3.779,0.000
3.780,0.000
3.781,0.000
3.782,0.000
3.783,0.000
3.784,0.002
3.785,-0.003
3.786,0.000
3.787,0.000
3.788,0.000
3.789,0.000
3.790,0.000
3.791,0.000
3.792,0.001
3.793,0.003
3.794,0.006
3.795,0.003
3.796,0.006
3.797,0.006
3.798,0.000
3.799,0.003
3.800,0.003
3.801,0.003
3.802,0.003
3.803,0.006
3.804,0.005
3.805,0.003
3.806,0.006
3.807,0.009
3.808,0.008
3.809,0.009
3.810,0.008
3.811,0.009
3.812,0.011
3.813,0.012
3.814,0.009
3.815,0.012
3.816,0.014
3.817,0.016
3.818,0.017
3.819,0.019
3.820,0.021
3.821,0.016
3.822,0.014
3.823,0.016
3.824,0.019
3.825,0.022
3.826,0.022
3.827,0.019
3.828,0.021
3.829,0.022
3.830,0.016
3.831,0.016
3.832,0.016
3.833,0.016
3.834,0.018
3.835,0.016
3.836,0.016
3.837,0.016
3.838,0.019
3.839,0.025
3.840,0.022
3.841,0.025
3.842,0.025
3.843,0.025
3.844,0.025
3.845,0.025
3.846,0.028
3.847,0.028
3.848,0.031
3.849,0.031
3.850,0.030
3.851,0.031
3.852,0.030
3.853,0.028
3.854,0.027
3.855,0.025
3.856,0.025
3.857,0.025
3.858,0.025
3.859,0.025
3.860,0.025
3.861,0.025
3.862,0.027
3.863,0.028
3.864,0.025
3.865,0.025
3.866,0.025
3.867,0.028
3.868,0.025
3.869,0.025
3.870,0.024
3.871,0.025
3.872,0.028
3.873,0.031
3.874,0.030
3.875,0.028
3.876,0.029
3.877,0.028
3.878,0.031
3.879,0.034
3.880,0.034
3.881,0.034
3.882,0.033
3.883,0.034
3.884,0.033
3.885,0.034
3.886,0.038
3.887,0.038
3.888,0.041
3.889,0.041
3.890,0.044
3.891,0.041
3.892,0.044
3.893,0.047
3.894,0.044
3.895,0.041
3.896,0.041
3.897,0.041
3.898,0.044
3.899,0.044
3.900,0.041
3.901,0.044
3.902,0.047
3.903,0.047
3.904,0.047
3.905,0.047
3.906,0.049
3.907,0.047
3.908,0.050
3.909,0.053
3.910,0.056
3.911,0.053
3.912,0.059
3.913,0.059
3.914,0.064
3.915,0.063
3.916,0.063
3.917,0.059
3.918,0.064
3.919,0.066
3.920,0.066
3.921,0.069
3.922,0.072
3.923,0.072
3.924,0.075
3.925,0.078
3.926,0.079
3.927,0.081
3.928,0.080
3.929,0.078
3.930,0.080
3.931,0.081
3.932,0.083
3.933,0.084
3.934,0.084
3.935,0.084
3.936,0.089
3.937,0.094
3.938,0.092
3.939,0.097
3.940,0.099
3.941,0.100
3.942,0.100
3.943,0.103
3.944,0.100
3.945,0.100
3.946,0.106
3.947,0.109
3.948,0.114
3.949,0.116
3.950,0.117
3.951,0.119
3.952,0.121
3.953,0.122
3.954,0.122
3.955,0.122
3.956,0.129
3.957,0.131
3.958,0.132
3.959,0.134
3.960,0.134
3.961,0.131
3.962,0.134
3.963,0.141
3.964,0.141
3.965,0.144
3.966,0.144
3.967,0.144
3.968,0.147
3.969,0.150
3.970,0.150
3.971,0.150
3.972,0.154
3.973,0.156
3.974,0.153
3.975,0.153
3.976,0.153
3.977,0.153
3.978,0.153
3.979,0.156
3.980,0.153
3.981,0.153
3.982,0.156
3.983,0.153
3.984,0.156
3.985,0.153
3.986,0.154
3.987,0.156
3.988,0.156
3.989,0.153
3.990,0.155
3.991,0.153
3.992,0.153
3.993,0.153
3.994,0.150
3.995,0.150
3.996,0.150
3.997,0.150
3.998,0.148
3.999,0.147
4.000,0.147
4.001,0.144
4.002,0.141
4.003,0.141
4.004,0.139
4.005,0.141
4.006,0.139
4.007,0.137
4.008,0.136
4.009,0.134
4.010,0.131
4.011,0.128
4.012,0.125
4.013,0.125
4.014,0.120
4.015,0.119
4.016,0.113
4.017,0.106
4.018,0.104
4.019,0.106
4.020,0.104
4.021,0.106
4.022,0.104
4.023,0.106
4.024,0.102
4.025,0.097
4.026,0.091
4.027,0.091
4.028,0.092
4.029,0.087
4.030,0.087
4.031,0.087
4.032,0.080
4.033,0.078
4.034,0.074
4.035,0.069
4.036,0.072
4.037,0.072
4.038,0.068
4.039,0.063
4.040,0.058
4.041,0.053
4.042,0.054
4.043,0.056
4.044,0.052
4.045,0.050
4.046,0.048
4.047,0.047
4.048,0.045
4.049,0.044
4.050,0.041
4.051,0.041
4.052,0.041
4.053,0.038
4.054,0.034
4.055,0.031
4.056,0.031
4.057,0.028
4.058,0.028
4.059,0.025
4.060,0.018
4.061,0.012
4.062,0.009
4.063,0.009
4.064,0.006
4.065,0.003
4.066,0.008
4.067,0.006
4.068,0.006
4.069,0.009
4.070,0.005
4.071,0.003
4.072,-0.001
4.073,-0.006
4.074,-0.006
4.075,-0.006
4.076,-0.009
4.077,-0.012
4.078,-0.008
4.079,-0.009
4.080,-0.014
4.081,-0.016
4.082,-0.016
4.083,-0.016
4.084,-0.019
4.085,-0.019
4.086,-0.019
4.087,-0.019
4.088,-0.023
4.089,-0.028
4.090,-0.028
4.091,-0.028
4.092,-0.027
4.093,-0.025
4.094,-0.028
4.095,-0.025
4.096,-0.029
4.097,-0.031
4.098,-0.030
4.099,-0.031
4.100,-0.031
4.101,-0.034
4.102,-0.033
4.103,-0.031
4.104,-0.033
4.105,-0.034
4.106,-0.034
4.107,-0.034
4.108,-0.038
4.109,-0.034
4.110,-0.034
4.111,-0.034
4.112,-0.036
4.113,-0.034
4.114,-0.034
4.115,-0.034
4.116,-0.034
4.117,-0.034
4.118,-0.034
4.119,-0.038
4.120,-0.041
4.121,-0.044
4.122,-0.045
4.123,-0.047
4.124,-0.044
4.125,-0.047
4.126,-0.048
4.127,-0.050
4.128,-0.050
4.129,-0.050
4.130,-0.049
4.131,-0.050
4.132,-0.050
4.133,-0.044
4.134,-0.045
4.135,-0.047
4.136,-0.044
4.137,-0.044
4.138,-0.045
4.139,-0.047
4.140,-0.044
4.141,-0.044
4.142,-0.047
4.143,-0.047
4.144,-0.047
4.145,-0.047
4.146,-0.050
4.147,-0.047
4.148,-0.050
4.149,-0.053
4.150,-0.056
4.151,-0.056
4.152,-0.059
4.153,-0.059
4.154,-0.059
4.155,-0.059
4.156,-0.059
4.157,-0.056
4.158,-0.058
4.159,-0.056
4.160,-0.056
4.161,-0.056
4.162,-0.056
4.163,-0.056
4.164,-0.055
4.165,-0.053
4.166,-0.052
4.167,-0.053
4.168,-0.053
4.169,-0.053
4.170,-0.054
4.171,-0.056
4.172,-0.055
4.173,-0.056
4.174,-0.054
4.175,-0.053
4.176,-0.056
4.177,-0.056
4.178,-0.057
4.179,-0.056
4.180,-0.056
4.181,-0.059
4.182,-0.058
4.183,-0.056
4.184,-0.056
4.185,-0.056
4.186,-0.061
4.187,-0.059
4.188,-0.059
4.189,-0.059
4.190,-0.064
4.191,-0.069
4.192,-0.067
4.193,-0.066
4.194,-0.066
4.195,-0.066
4.196,-0.066
4.197,-0.066
4.198,-0.064
4.199,-0.063
4.200,-0.059
4.201,-0.063
4.202,-0.063
4.203,-0.059
4.204,-0.061
4.205,-0.059
4.206,-0.058
4.207,-0.059
4.208,-0.059
4.209,-0.063
4.210,-0.063
4.211,-0.063
4.212,-0.059
4.213,-0.056
4.214,-0.056
4.215,-0.056
4.216,-0.059
4.217,-0.059
4.218,-0.059
4.219,-0.056
4.220,-0.061
4.221,-0.063
4.222,-0.066
4.223,-0.069
4.224,-0.069
4.225,-0.072
4.226,-0.071
4.227,-0.066
4.228,-0.072
4.229,-0.072
4.230,-0.070
4.231,-0.072
4.232,-0.072
4.233,-0.072
4.234,-0.072
4.235,-0.069
4.236,-0.072
4.237,-0.072
4.238,-0.069
4.239,-0.066
4.240,-0.066
4.241,-0.069
4.242,-0.066
4.243,-0.066
4.244,-0.069
4.245,-0.069
4.246,-0.066
4.247,-0.066
4.248,-0.066
4.249,-0.066
4.250,-0.066
4.251,-0.066
4.252,-0.066
4.253,-0.066
4.254,-0.070
4.255,-0.072
4.256,-0.071
4.257,-0.069
4.258,-0.069
4.259,-0.066
4.260,-0.068
4.261,-0.066
4.262,-0.070
4.263,-0.072
4.264,-0.075
4.265,-0.075
4.266,-0.075
4.267,-0.075
4.268,-0.078
4.269,-0.078
4.270,-0.075
4.271,-0.075
4.272,-0.074
4.273,-0.075
4.274,-0.076
4.275,-0.075
4.276,-0.074
4.277,-0.072
4.278,-0.075
4.279,-0.075
4.280,-0.079
4.281,-0.081
4.282,-0.080
4.283,-0.078
4.284,-0.080
4.285,-0.078
4.286,-0.077
4.287,-0.072
4.288,-0.073
4.289,-0.075
4.290,-0.075
4.291,-0.075
4.292,-0.078
4.293,-0.078
4.294,-0.078
4.295,-0.078
4.296,-0.078
4.297,-0.078
4.298,-0.075
4.299,-0.075
4.300,-0.079
4.301,-0.078
4.302,-0.078
4.303,-0.078
4.304,-0.078
4.305,-0.081
4.306,-0.083
4.307,-0.084
4.308,-0.084
4.309,-0.084
4.310,-0.086
4.311,-0.087
4.312,-0.084
4.313,-0.081
4.314,-0.084
4.315,-0.087
4.316,-0.084
4.317,-0.081
4.318,-0.083
4.319,-0.084
4.320,-0.080
4.321,-0.075
4.322,-0.076
4.323,-0.078
4.324,-0.075
4.325,-0.078
4.326,-0.078
4.327,-0.078
4.328,-0.078
4.329,-0.078
4.330,-0.078
4.331,-0.078
4.332,-0.075
4.333,-0.078
4.334,-0.079
4.335,-0.081
4.336,-0.078
4.337,-0.075
4.338,-0.075
4.339,-0.075
4.340,-0.074
4.341,-0.075
4.342,-0.076
4.343,-0.075
4.344,-0.074
4.345,-0.072
4.346,-0.079
4.347,-0.081
4.348,-0.080
4.349,-0.081
4.350,-0.079
4.351,-0.081
4.352,-0.083
4.353,-0.084
4.354,-0.081
4.355,-0.084
4.356,-0.087
4.357,-0.084
4.358,-0.083
4.359,-0.084
4.360,-0.086
4.361,-0.081
4.362,-0.077
4.363,-0.075
4.364,-0.074
4.365,-0.072
4.366,-0.072
4.367,-0.072
4.368,-0.073
4.369,-0.075
4.370,-0.072
4.371,-0.075
4.372,-0.078
4.373,-0.081
4.374,-0.083
4.375,-0.084
4.376,-0.083
4.377,-0.081
4.378,-0.080
4.379,-0.081
4.380,-0.084
4.381,-0.084
4.382,-0.083
4.383,-0.081
4.384,-0.086
4.385,-0.084
4.386,-0.084
4.387,-0.087
4.388,-0.087
4.389,-0.087
4.390,-0.092
4.391,-0.091
4.392,-0.086
4.393,-0.081
4.394,-0.081
4.395,-0.081
4.396,-0.083
4.397,-0.084
4.398,-0.081
4.399,-0.084
4.400,-0.084
4.401,-0.084
4.402,-0.083
4.403,-0.084
4.404,-0.084
4.405,-0.087
4.406,-0.092
4.407,-0.094
4.408,-0.095
4.409,-0.094
4.410,-0.089
4.411,-0.087
4.412,-0.091
4.413,-0.091
4.414,-0.091
4.415,-0.091
4.416,-0.091
4.417,-0.091
4.418,-0.087
4.419,-0.091
4.420,-0.089
4.421,-0.087
4.422,-0.087
4.423,-0.087
4.424,-0.095
4.425,-0.094
4.426,-0.091
4.427,-0.091
4.428,-0.086
4.429,-0.087
4.430,-0.092
4.431,-0.087
4.432,-0.091
4.433,-0.091
4.434,-0.091
4.435,-0.094
4.436,-0.095
4.437,-0.097
4.438,-0.087
4.439,-0.091
4.440,-0.094
4.441,-0.094
4.442,-0.093
4.443,-0.091
4.444,-0.091
4.445,-0.091
4.446,-0.091
4.447,-0.091
4.448,-0.091
4.449,-0.091
4.450,-0.092
4.451,-0.094
4.452,-0.097
4.453,-0.094
4.454,-0.087
4.455,-0.087
4.456,-0.091
4.457,-0.087
4.458,-0.086
4.459,-0.084
4.460,-0.086
4.461,-0.084
4.462,-0.084
4.463,-0.084
4.464,-0.087
4.465,-0.087
4.466,-0.084
4.467,-0.087
4.468,-0.089
4.469,-0.091
4.470,-0.089
4.471,-0.091
4.472,-0.091
4.473,-0.091
4.474,-0.089
4.475,-0.087
4.476,-0.092
4.477,-0.091
4.478,-0.089
4.479,-0.091
4.480,-0.089
4.481,-0.087
4.482,-0.087
4.483,-0.087
4.484,-0.089
4.485,-0.091
4.486,-0.091
4.487,-0.091
4.488,-0.089
4.489,-0.091
4.490,-0.089
4.491,-0.087
4.492,-0.089
4.493,-0.084
4.494,-0.087
4.495,-0.087
4.496,-0.086
4.497,-0.084
4.498,-0.083
4.499,-0.084
4.500,-0.086
4.501,-0.087
4.502,-0.086
4.503,-0.084
4.504,-0.091
4.505,-0.087
4.506,-0.086
4.507,-0.087
4.508,-0.091
4.509,-0.087
4.510,-0.089
4.511,-0.091
4.512,-0.089
4.513,-0.087
4.514,-0.087
4.515,-0.091
4.516,-0.091
4.517,-0.091
4.518,-0.091
4.519,-0.091
4.520,-0.095
4.521,-0.091
4.522,-0.091
4.523,-0.091
4.524,-0.094
4.525,-0.094
4.526,-0.093
4.527,-0.091
4.528,-0.092
4.529,-0.091
4.530,-0.095
4.531,-0.094
4.532,-0.091
4.533,-0.087
4.534,-0.087
4.535,-0.087
4.536,-0.087
4.537,-0.087
4.538,-0.087
4.539,-0.087
4.540,-0.091
4.541,-0.091
4.542,-0.091
4.543,-0.087
4.544,-0.091
4.545,-0.091
4.546,-0.092
4.547,-0.094
4.548,-0.083
4.549,-0.075
4.550,-0.068
4.551,-0.059
4.552,-0.053
4.553,-0.050
4.554,-0.041
4.555,-0.041
4.556,-0.041
4.557,-0.041
4.558,-0.042
4.559,-0.041
4.560,-0.038
4.561,-0.034
4.562,-0.036
4.563,-0.034
4.564,-0.034
4.565,-0.034
4.566,-0.033
4.567,-0.031
4.568,-0.034
4.569,-0.034
4.570,-0.033
4.571,-0.031
4.572,-0.025
4.573,-0.019
4.574,-0.020
4.575,-0.006
4.576,0.009
4.577,0.022
4.578,0.031
4.579,0.041
4.580,0.063
4.581,0.075
4.582,0.091
4.583,0.094
4.584,0.100
4.585,0.097
4.586,0.094
4.587,0.091
4.588,0.092
4.589,0.094
4.590,0.094
4.591,0.097
4.592,0.091
4.593,0.091
4.594,0.091
4.595,0.087
4.596,0.086
4.597,0.078
4.598,0.075
4.599,0.069
4.600,0.059
4.601,0.063
4.602,0.064
4.603,0.063
4.604,0.061
4.605,0.053
4.606,0.047
4.607,0.041
4.608,0.028
4.609,0.025
4.610,0.019
4.611,0.022
4.612,0.025
4.613,0.025
4.614,0.028
4.615,0.028
4.616,0.026
4.617,0.028
4.618,0.022
4.619,0.025
4.620,0.029
4.621,0.034
4.622,0.039
4.623,0.034
4.624,0.025
4.625,0.012
4.626,0.000
4.627,-0.006
4.628,-0.018
4.629,-0.025
4.630,-0.031
4.631,-0.034
4.632,-0.041
4.633,-0.044
4.634,-0.046
4.635,-0.050
4.636,-0.053
4.637,-0.056
4.638,-0.059
4.639,-0.063
4.640,-0.072
4.641,-0.078
4.642,-0.081
4.643,-0.078
4.644,-0.081
4.645,-0.081
4.646,-0.081
4.647,-0.081
4.648,-0.081
4.649,-0.084
4.650,-0.083
4.651,-0.084
4.652,-0.087
4.653,-0.087
4.654,-0.087
4.655,-0.087
4.656,-0.087
4.657,-0.087
4.658,-0.091
4.659,-0.091
4.660,-0.091
4.661,-0.091
4.662,-0.093
4.663,-0.091
4.664,-0.097
4.665,-0.100
4.666,-0.099
4.667,-0.100
4.668,-0.098
4.669,-0.103
4.670,-0.106
4.671,-0.106
4.672,-0.103
4.673,-0.106
4.674,-0.105
4.675,-0.103
4.676,-0.103
4.677,-0.103
4.678,-0.106
4.679,-0.109
4.680,-0.113
4.681,-0.113
4.682,-0.113
4.683,-0.113
4.684,-0.111
4.685,-0.113
4.686,-0.109
4.687,-0.109
4.688,-0.109
4.689,-0.109
4.690,-0.109
4.691,-0.109
4.692,-0.109
4.693,-0.109
4.694,-0.109
4.695,-0.109
4.696,-0.109
4.697,-0.109
4.698,-0.108
4.699,-0.103
4.700,-0.100
4.701,-0.094
4.702,-0.095
4.703,-0.094
4.704,-0.094
4.705,-0.094
4.706,-0.094
4.707,-0.097
4.708,-0.100
4.709,-0.106
4.710,-0.109
4.711,-0.119
4.712,-0.125
4.713,-0.128
4.714,-0.134
4.715,-0.128
4.716,-0.117
4.717,-0.106
4.718,-0.092
4.719,-0.072
4.720,-0.047
4.721,-0.016
4.722,0.008
4.723,0.016
4.724,0.027
4.725,0.044
4.726,0.061
4.727,0.081
4.728,0.106
4.729,0.150
4.730,0.200
4.731,0.263
4.732,0.337
4.733,0.409
4.734,0.466
4.735,0.522
4.736,0.592
4.737,0.666
4.738,0.741
4.739,0.769
4.740,0.778
4.741,0.809
4.742,0.851
4.743,0.934
4.744,1.031
4.745,1.088
4.746,1.125
4.747,1.091
4.748,1.019
4.749,0.900
4.750,0.764
4.751,0.625
4.752,0.494
4.753,0.419
4.754,0.336
4.755,0.266
4.756,0.206
4.757,0.163
4.758,0.121
4.759,0.081
4.760,0.046
4.761,0.016
4.762,-0.008
4.763,-0.019
4.764,-0.033
4.765,-0.031
4.766,-0.026
4.767,-0.025
4.768,-0.019
4.769,-0.016
4.770,-0.002
4.771,0.022
4.772,0.042
4.773,0.053
4.774,0.066
4.775,0.072
4.776,0.078
4.777,0.078
4.778,0.075
4.779,0.063
4.780,0.053
4.781,0.044
4.782,0.036
4.783,0.028
4.784,0.023
4.785,0.016
4.786,0.003
4.787,-0.006
4.788,-0.011
4.789,-0.019
4.790,-0.028
4.791,-0.031
4.792,-0.033
4.793,-0.031
4.794,-0.033
4.795,-0.034
4.796,-0.031
4.797,-0.031
4.798,-0.034
4.799,-0.034
4.800,-0.036
4.801,-0.034
4.802,-0.036
4.803,-0.044
4.804,-0.048
4.805,-0.050
4.806,-0.053
4.807,-0.053
4.808,-0.054
4.809,-0.056
4.810,-0.059
4.811,-0.056
4.812,-0.056
4.813,-0.053
4.814,-0.050
4.815,-0.050
4.816,-0.050
4.817,-0.050
4.818,-0.053
4.819,-0.053
4.820,-0.056
4.821,-0.053
4.822,-0.054
4.823,-0.056
4.824,-0.057
4.825,-0.059
4.826,-0.058
4.827,-0.056
4.828,-0.056
4.829,-0.056
4.830,-0.055
4.831,-0.053
4.832,-0.050
4.833,-0.050
4.834,-0.051
4.835,-0.056
4.836,-0.053
4.837,-0.053
4.838,-0.053
4.839,-0.053
4.840,-0.055
4.841,-0.053
4.842,-0.050
4.843,-0.050
4.844,-0.050
4.845,-0.050
4.846,-0.051
4.847,-0.050
4.848,-0.046
4.849,-0.041
4.850,-0.045
4.851,-0.044
4.852,-0.044
4.853,-0.044
4.854,-0.042
4.855,-0.041
4.856,-0.041
4.857,-0.041
4.858,-0.041
4.859,-0.044
4.860,-0.044
4.861,-0.041
4.862,-0.044
4.863,-0.044
4.864,-0.041
4.865,-0.038
4.866,-0.036
4.867,-0.034
4.868,-0.036
4.869,-0.034
4.870,-0.034
4.871,-0.031
4.872,-0.030
4.873,-0.031
4.874,-0.033
4.875,-0.031
4.876,-0.030
4.877,-0.028
4.878,-0.029
4.879,-0.031
4.880,-0.031
4.881,-0.031
4.882,-0.031
4.883,-0.031
4.884,-0.029
4.885,-0.031
4.886,-0.028
4.887,-0.025
4.888,-0.025
4.889,-0.025
4.890,-0.025
4.891,-0.025
4.892,-0.023
4.893,-0.025
4.894,-0.023
4.895,-0.025
4.896,-0.025
4.897,-0.025
4.898,-0.024
4.899,-0.022
4.900,-0.026
4.901,-0.025
4.902,-0.025
4.903,-0.025
4.904,-0.026
4.905,-0.028
4.906,-0.028
4.907,-0.028
4.908,-0.025
4.909,-0.019
4.910,-0.020
4.911,-0.022
4.912,-0.022
4.913,-0.022
4.914,-0.022
4.915,-0.022
4.916,-0.018
4.917,-0.016
4.918,-0.019
4.919,-0.019
4.920,-0.016
4.921,-0.012
4.922,-0.012
4.923,-0.012
4.924,-0.012
4.925,-0.012
4.926,-0.011
4.927,-0.009
4.928,-0.007
4.929,-0.009
4.930,-0.009
4.931,-0.009
4.932,-0.005
4.933,-0.003
4.934,-0.003
4.935,-0.003
4.936,-0.004
4.937,-0.003
4.938,-0.006
4.939,-0.003
4.940,-0.004
4.941,-0.006
4.942,-0.006
4.943,-0.006
4.944,-0.002
4.945,0.003
4.946,0.002
4.947,0.003
4.948,0.000
4.949,0.003
4.950,0.002
4.951,-0.003
4.952,0.002
4.953,0.000
4.954,0.001
4.955,0.000
4.956,0.000
4.957,0.000
4.958,-0.001
4.959,0.000
4.960,0.004
4.961,0.003
4.962,0.003
4.963,0.003
4.964,0.005
4.965,0.003
4.966,0.006
4.967,0.006
4.968,0.009
4.969,0.009
4.970,0.009
4.971,0.009
4.972,0.008
4.973,0.009
4.974,0.006
4.975,0.006
4.976,0.012
4.977,0.016
4.978,0.016
4.979,0.016
4.980,0.009
4.981,0.009
4.982,0.012
4.983,0.009
4.984,0.014
4.985,0.012
4.986,0.009
4.987,0.012
4.988,0.016
4.989,0.019
4.990,0.019
4.991,0.019
4.992,0.022
4.993,0.019
4.994,0.021
4.995,0.019
4.996,0.019
4.997,0.019
4.998,0.019
4.999,0.022
5.000,0.022
5.001,0.022
5.002,0.016
5.003,0.012
5.004,0.014
5.005,0.012
5.006,0.014
5.007,0.016
5.008,0.017
5.009,0.019
5.010,0.019
5.011,0.019
5.012,0.019
5.013,0.019
5.014,0.019
5.015,0.022
5.016,0.026
5.017,0.025
5.018,0.024
5.019,0.022
5.020,0.025
5.021,0.022
5.022,0.021
5.023,0.019
5.024,0.022
5.025,0.022
5.026,0.023
5.027,0.025
5.028,0.025
5.029,0.025
5.030,0.021
5.031,0.022
5.032,0.025
5.033,0.025
5.034,0.024
5.035,0.022
5.036,0.026
5.037,0.028
5.038,0.033
5.039,0.034
5.040,0.030
5.041,0.031
5.042,0.030
5.043,0.031
5.044,0.028
5.045,0.028
5.046,0.029
5.047,0.031
5.048,0.030
5.049,0.031
5.050,0.031
5.051,0.031
5.052,0.031
5.053,0.028
5.054,0.034
5.055,0.041
5.056,0.039
5.057,0.038
5.058,0.041
5.059,0.047
5.060,0.047
5.061,0.047
5.062,0.046
5.063,0.047
5.064,0.044
5.065,0.050
5.066,0.049
5.067,0.050
5.068,0.046
5.069,0.047
5.070,0.048
5.071,0.053
5.072,0.056
5.073,0.059
5.074,0.061
5.075,0.063
5.076,0.059
5.077,0.059
5.078,0.061
5.079,0.059
5.080,0.059
5.081,0.059
5.082,0.061
5.083,0.066
5.084,0.068
5.085,0.066
5.086,0.063
5.087,0.063
5.088,0.064
5.089,0.066
5.090,0.073
5.091,0.075
5.092,0.079
5.093,0.084
5.094,0.086
5.095,0.084
5.096,0.091
5.097,0.094
5.098,0.097
5.099,0.100
5.100,0.097
5.101,0.097
5.102,0.098
5.103,0.103
5.104,0.106
5.105,0.109
5.106,0.114
5.107,0.116
5.108,0.114
5.109,0.119
5.110,0.120
5.111,0.122
5.112,0.121
5.113,0.122
5.114,0.121
5.115,0.122
5.116,0.129
5.117,0.131
5.118,0.133
5.119,0.131
5.120,0.132
5.121,0.137
5.122,0.139
5.123,0.137
5.124,0.136
5.125,0.137
5.126,0.137
5.127,0.137
5.128,0.145
5.129,0.150
5.130,0.150
5.131,0.150
5.132,0.154
5.133,0.153
5.134,0.152
5.135,0.153
5.136,0.151
5.137,0.156
5.138,0.153
5.139,0.153
5.140,0.153
5.141,0.153
5.142,0.149
5.143,0.150
5.144,0.151
5.145,0.153
5.146,0.153
5.147,0.150
5.148,0.151
5.149,0.153
5.150,0.154
5.151,0.153
5.152,0.147
5.153,0.144
5.154,0.142
5.155,0.141
5.156,0.141
5.157,0.137
5.158,0.136
5.159,0.134
5.160,0.134
5.161,0.131
5.162,0.128
5.163,0.125
5.164,0.122
5.165,0.122
5.166,0.128
5.167,0.125
5.168,0.123
5.169,0.122
5.170,0.117
5.171,0.113
5.172,0.111
5.173,0.106
5.174,0.106
5.175,0.103
5.176,0.106
5.177,0.106
5.178,0.102
5.179,0.094
5.180,0.093
5.181,0.091
5.182,0.084
5.183,0.084
5.184,0.087
5.185,0.084
5.186,0.083
5.187,0.078
5.188,0.075
5.189,0.075
5.190,0.072
5.191,0.069
5.192,0.066
5.193,0.066
5.194,0.067
5.195,0.066
5.196,0.061
5.197,0.056
5.198,0.055
5.199,0.050
5.200,0.048
5.201,0.047
5.202,0.045
5.203,0.044
5.204,0.044
5.205,0.044
5.206,0.042
5.207,0.041
5.208,0.036
5.209,0.034
5.210,0.031
5.211,0.031
5.212,0.029
5.213,0.028
5.214,0.029
5.215,0.028
5.216,0.028
5.217,0.025
5.218,0.021
5.219,0.022
5.220,0.019
5.221,0.016
5.222,0.016
5.223,0.012
5.224,0.012
5.225,0.009
5.226,0.006
5.227,0.006
5.228,0.008
5.229,0.006
5.230,0.000
5.231,0.000
5.232,-0.004
5.233,-0.009
5.234,-0.011
5.235,-0.012
5.236,-0.011
5.237,-0.012
5.238,-0.014
5.239,-0.016
5.240,-0.014
5.241,-0.016
5.242,-0.019
5.243,-0.019
5.244,-0.018
5.245,-0.016
5.246,-0.014
5.247,-0.016
5.248,-0.011
5.249,-0.012
5.250,-0.012
5.251,-0.012
5.252,-0.020
5.253,-0.025
5.254,-0.029
5.255,-0.028
5.256,-0.025
5.257,-0.028
5.258,-0.028
5.259,-0.025
5.260,-0.022
5.261,-0.022
5.262,-0.022
5.263,-0.025
5.264,-0.024
5.265,-0.025
5.266,-0.025
5.267,-0.025
5.268,-0.028
5.269,-0.031
5.270,-0.031
5.271,-0.031
5.272,-0.033
5.273,-0.031
5.274,-0.030
5.275,-0.028
5.276,-0.028
5.277,-0.025
5.278,-0.028
5.279,-0.028
5.280,-0.028
5.281,-0.028
5.282,-0.028
5.283,-0.028
5.284,-0.031
5.285,-0.034
5.286,-0.033
5.287,-0.034
5.288,-0.034
5.289,-0.034
5.290,-0.038
5.291,-0.038
5.292,-0.038
5.293,-0.034
5.294,-0.034
5.295,-0.038
5.296,-0.038
5.297,-0.038
5.298,-0.036
5.299,-0.038
5.300,-0.033
5.301,-0.034
5.302,-0.038
5.303,-0.038
5.304,-0.034
5.305,-0.038
5.306,-0.036
5.307,-0.034
5.308,-0.034
5.309,-0.034
5.310,-0.030
5.311,-0.031
5.312,-0.031
5.313,-0.031
5.314,-0.031
5.315,-0.031
5.316,-0.030
5.317,-0.028
5.318,-0.029
5.319,-0.031
5.320,-0.039
5.321,-0.044
5.322,-0.044
5.323,-0.044
5.324,-0.044
5.325,-0.044
5.326,-0.047
5.327,-0.044
5.328,-0.041
5.329,-0.044
5.330,-0.044
5.331,-0.044
5.332,-0.039
5.333,-0.038
5.334,-0.042
5.335,-0.044
5.336,-0.045
5.337,-0.047
5.338,-0.044
5.339,-0.044
5.340,-0.042
5.341,-0.044
5.342,-0.042
5.343,-0.044
5.344,-0.048
5.345,-0.047
5.346,-0.042
5.347,-0.044
5.348,-0.047
5.349,-0.047
5.350,-0.047
5.351,-0.047
5.352,-0.050
5.353,-0.050
5.354,-0.053
5.355,-0.053
5.356,-0.049
5.357,-0.050
5.358,-0.050
5.359,-0.050
5.360,-0.053
5.361,-0.050
5.362,-0.050
5.363,-0.050
5.364,-0.050
5.365,-0.050
5.366,-0.051
5.367,-0.053
5.368,-0.052
5.369,-0.053
5.370,-0.054
5.371,-0.056
5.372,-0.052
5.373,-0.053
5.374,-0.052
5.375,-0.050
5.376,-0.050
5.377,-0.050
5.378,-0.053
5.379,-0.053
5.380,-0.049
5.381,-0.053
5.382,-0.050
5.383,-0.044
5.384,-0.047
5.385,-0.050
5.386,-0.051
5.387,-0.053
5.388,-0.050
5.389,-0.053
5.390,-0.053
5.391,-0.053
5.392,-0.053
5.393,-0.053
5.394,-0.056
5.395,-0.053
5.396,-0.054
5.397,-0.056
5.398,-0.052
5.399,-0.050
5.400,-0.053
5.401,-0.053
5.402,-0.053
5.403,-0.053
5.404,-0.053
5.405,-0.053
5.406,-0.052
5.407,-0.053
5.408,-0.056
5.409,-0.059
5.410,-0.059
5.411,-0.059
5.412,-0.056
5.413,-0.059
5.414,-0.058
5.415,-0.056
5.416,-0.053
5.417,-0.056
5.418,-0.059
5.419,-0.063
5.420,-0.061
5.421,-0.059
5.422,-0.056
5.423,-0.056
5.424,-0.063
5.425,-0.066
5.426,-0.069
5.427,-0.069
5.428,-0.066
5.429,-0.066
5.430,-0.059
5.431,-0.056
5.432,-0.057
5.433,-0.059
5.434,-0.059
5.435,-0.063
5.436,-0.058
5.437,-0.056
5.438,-0.057
5.439,-0.059
5.440,-0.057
5.441,-0.059
5.442,-0.058
5.443,-0.056
5.444,-0.055
5.445,-0.056
5.446,-0.057
5.447,-0.059
5.448,-0.058
5.449,-0.056
5.450,-0.056
5.451,-0.056
5.452,-0.057
5.453,-0.059
5.454,-0.063
5.455,-0.066
5.456,-0.066
5.457,-0.066
5.458,-0.066
5.459,-0.066
5.460,-0.067
5.461,-0.069
5.462,-0.066
5.463,-0.063
5.464,-0.059
5.465,-0.063
5.466,-0.059
5.467,-0.056
5.468,-0.061
5.469,-0.066
5.470,-0.064
5.471,-0.063
5.472,-0.058
5.473,-0.059
5.474,-0.058
5.475,-0.056
5.476,-0.056
5.477,-0.056
5.478,-0.059
5.479,-0.063
5.480,-0.064
5.481,-0.069
5.482,-0.068
5.483,-0.063
5.484,-0.063
5.485,-0.063
5.486,-0.066
5.487,-0.063
5.488,-0.059
5.489,-0.059
5.490,-0.059
5.491,-0.063
5.492,-0.063
5.493,-0.063
5.494,-0.058
5.495,-0.059
5.496,-0.064
5.497,-0.063
5.498,-0.063
5.499,-0.066
5.500,-0.070
5.501,-0.069
5.502,-0.066
5.503,-0.066
5.504,-0.063
5.505,-0.059
5.506,-0.061
5.507,-0.063
5.508,-0.063
5.509,-0.063
5.510,-0.059
5.511,-0.063
5.512,-0.059
5.513,-0.056
5.514,-0.057
5.515,-0.059
5.516,-0.059
5.517,-0.059
5.518,-0.058
5.519,-0.059
5.520,-0.063
5.521,-0.063
5.522,-0.059
5.523,-0.056
5.524,-0.061
5.525,-0.059
5.526,-0.058
5.527,-0.059
5.528,-0.061
5.529,-0.063
5.530,-0.066
5.531,-0.063
5.532,-0.063
5.533,-0.063
5.534,-0.064
5.535,-0.066
5.536,-0.064
5.537,-0.063
5.538,-0.059
5.539,-0.063
5.540,-0.064
5.541,-0.066
5.542,-0.063
5.543,-0.063
5.544,-0.058
5.545,-0.056
5.546,-0.061
5.547,-0.063
5.548,-0.064
5.549,-0.063
5.550,-0.056
5.551,-0.053
5.552,-0.057
5.553,-0.059
5.554,-0.058
5.555,-0.056
5.556,-0.057
5.557,-0.059
5.558,-0.057
5.559,-0.063
5.560,-0.064
5.561,-0.066
5.562,-0.061
5.563,-0.056
5.564,-0.064
5.565,-0.063
5.566,-0.059
5.567,-0.059
5.568,-0.057
5.569,-0.063
5.570,-0.064
5.571,-0.056
5.572,-0.058
5.573,-0.056
5.574,-0.057
5.575,-0.063
5.576,-0.066
5.577,-0.069
5.578,-0.061
5.579,-0.066
5.580,-0.069
5.581,-0.069
5.582,-0.068
5.583,-0.066
5.584,-0.066
5.585,-0.066
5.586,-0.066
5.587,-0.066
5.588,-0.066
5.589,-0.066
5.590,-0.064
5.591,-0.063
5.592,-0.067
5.593,-0.066
5.594,-0.061
5.595,-0.063
5.596,-0.067
5.597,-0.066
5.598,-0.066
5.599,-0.066
5.600,-0.068
5.601,-0.066
5.602,-0.066
5.603,-0.066
5.604,-0.066
5.605,-0.063
5.606,-0.059
5.607,-0.063
5.608,-0.063
5.609,-0.063
5.610,-0.058
5.611,-0.056
5.612,-0.056
5.613,-0.056
5.614,-0.056
5.615,-0.056
5.616,-0.061
5.617,-0.059
5.618,-0.059
5.619,-0.063
5.620,-0.064
5.621,-0.066
5.622,-0.066
5.623,-0.066
5.624,-0.067
5.625,-0.069
5.626,-0.070
5.627,-0.072
5.628,-0.069
5.629,-0.069
5.630,-0.068
5.631,-0.066
5.632,-0.068
5.633,-0.063
5.634,-0.066
5.635,-0.066
5.636,-0.067
5.637,-0.069
5.638,-0.067
5.639,-0.069
5.640,-0.068
5.641,-0.066
5.642,-0.064
5.643,-0.063
5.644,-0.070
5.645,-0.069
5.646,-0.066
5.647,-0.066
5.648,-0.069
5.649,-0.066
5.650,-0.067
5.651,-0.069
5.652,-0.069
5.653,-0.069
5.654,-0.068
5.655,-0.069
5.656,-0.069
5.657,-0.069
5.658,-0.068
5.659,-0.066
5.660,-0.070
5.661,-0.066
5.662,-0.066
5.663,-0.066
5.664,-0.066
5.665,-0.063
5.666,-0.063
5.667,-0.063
5.668,-0.063
5.669,-0.059
5.670,-0.064
5.671,-0.063
5.672,-0.064
5.673,-0.066
5.674,-0.066
5.675,-0.066
5.676,-0.066
5.677,-0.066
5.678,-0.066
5.679,-0.066
5.680,-0.069
5.681,-0.069
5.682,-0.069
5.683,-0.066
5.684,-0.063
5.685,-0.056
5.686,-0.055
5.687,-0.053
5.688,-0.047
5.689,-0.044
5.690,-0.039
5.691,-0.034
5.692,-0.028
5.693,-0.025
5.694,-0.022
5.695,-0.028
5.696,-0.024
5.697,-0.019
5.698,-0.019
5.699,-0.016
5.700,-0.016
5.701,-0.016
5.702,-0.017
5.703,-0.016
5.704,-0.016
5.705,-0.016
5.706,-0.017
5.707,-0.019
5.708,-0.023
5.709,-0.025
5.710,-0.025
5.711,-0.025
5.712,-0.021
5.713,-0.016
5.714,-0.016
5.715,0.000
5.716,0.019
5.717,0.034
5.718,0.054
5.719,0.075
5.720,0.096
5.721,0.106
5.722,0.119
5.723,0.119
5.724,0.122
5.725,0.116
5.726,0.116
5.727,0.116
5.728,0.113
5.729,0.109
5.730,0.106
5.731,0.106
5.732,0.104
5.733,0.109
5.734,0.109
5.735,0.106
5.736,0.107
5.737,0.103
5.738,0.100
5.739,0.094
5.740,0.083
5.741,0.084
5.742,0.083
5.743,0.078
5.744,0.075
5.745,0.066
5.746,0.058
5.747,0.050
5.748,0.045
5.749,0.050
5.750,0.047
5.751,0.053
5.752,0.053
5.753,0.050
5.754,0.050
5.755,0.047
5.756,0.044
5.757,0.044
5.758,0.039
5.759,0.044
5.760,0.046
5.761,0.047
5.762,0.051
5.763,0.047
5.764,0.042
5.765,0.034
5.766,0.022
5.767,0.016
5.768,0.004
5.769,-0.003
5.770,-0.011
5.771,-0.016
5.772,-0.023
5.773,-0.028
5.774,-0.036
5.775,-0.047
5.776,-0.050
5.777,-0.053
5.778,-0.056
5.779,-0.059
5.780,-0.063
5.781,-0.063
5.782,-0.066
5.783,-0.063
5.784,-0.061
5.785,-0.056
5.786,-0.057
5.787,-0.059
5.788,-0.061
5.789,-0.066
5.790,-0.064
5.791,-0.066
5.792,-0.070
5.793,-0.072
5.794,-0.073
5.795,-0.075
5.796,-0.074
5.797,-0.072
5.798,-0.075
5.799,-0.075
5.800,-0.078
5.801,-0.081
5.802,-0.083
5.803,-0.081
5.804,-0.084
5.805,-0.084
5.806,-0.084
5.807,-0.087
5.808,-0.083
5.809,-0.084
5.810,-0.087
5.811,-0.087
5.812,-0.084
5.813,-0.087
5.814,-0.089
5.815,-0.091
5.816,-0.091
5.817,-0.091
5.818,-0.091
5.819,-0.091
5.820,-0.094
5.821,-0.094
5.822,-0.094
5.823,-0.094
5.824,-0.094
5.825,-0.097
5.826,-0.094
5.827,-0.094
5.828,-0.094
5.829,-0.094
5.830,-0.093
5.831,-0.091
5.832,-0.091
5.833,-0.091
5.834,-0.092
5.835,-0.094
5.836,-0.094
5.837,-0.094
5.838,-0.094
5.839,-0.091
5.840,-0.091
5.841,-0.087
5.842,-0.089
5.843,-0.087
5.844,-0.084
5.845,-0.081
5.846,-0.081
5.847,-0.084
5.848,-0.087
5.849,-0.094
5.850,-0.100
5.851,-0.113
5.852,-0.122
5.853,-0.128
5.854,-0.128
5.855,-0.116
5.856,-0.102
5.857,-0.087
5.858,-0.069
5.859,-0.044
5.860,-0.026
5.861,-0.003
5.862,0.021
5.863,0.028
5.864,0.042
5.865,0.063
5.866,0.091
5.867,0.122
5.868,0.159
5.869,0.216
5.870,0.273
5.871,0.344
5.872,0.418
5.873,0.487
5.874,0.556
5.875,0.625
5.876,0.687
5.877,0.753
5.878,0.800
5.879,0.800
5.880,0.805
5.881,0.831
5.882,0.858
5.883,0.925
5.884,0.989
5.885,1.012
5.886,1.003
5.887,0.922
5.888,0.834
5.889,0.700
5.890,0.582
5.891,0.463
5.892,0.331
5.893,0.256
5.894,0.194
5.895,0.144
5.896,0.103
5.897,0.078
5.898,0.057
5.899,0.041
5.900,0.008
5.901,-0.019
5.902,-0.036
5.903,-0.041
5.904,-0.054
5.905,-0.053
5.906,-0.047
5.907,-0.044
5.908,-0.033
5.909,-0.025
5.910,-0.012
5.911,0.009
5.912,0.027
5.913,0.034
5.914,0.046
5.915,0.050
5.916,0.057
5.917,0.059
5.918,0.066
5.919,0.063
5.920,0.054
5.921,0.047
5.922,0.039
5.923,0.031
5.924,0.025
5.925,0.016
5.926,0.009
5.927,0.006
5.928,0.000
5.929,-0.009
5.930,-0.016
5.931,-0.016
5.932,-0.019
5.933,-0.019
5.934,-0.022
5.935,-0.025
5.936,-0.024
5.937,-0.025
5.938,-0.025
5.939,-0.022
5.940,-0.025
5.941,-0.025
5.942,-0.025
5.943,-0.031
5.944,-0.034
5.945,-0.034
5.946,-0.039
5.947,-0.041
5.948,-0.039
5.949,-0.038
5.950,-0.041
5.951,-0.038
5.952,-0.038
5.953,-0.034
5.954,-0.034
5.955,-0.038
5.956,-0.036
5.957,-0.034
5.958,-0.036
5.959,-0.034
5.960,-0.038
5.961,-0.034
5.962,-0.034
5.963,-0.034
5.964,-0.036
5.965,-0.038
5.966,-0.038
5.967,-0.038
5.968,-0.038
5.969,-0.038
5.970,-0.038
5.971,-0.038
5.972,-0.038
5.973,-0.041
5.974,-0.039
5.975,-0.041
5.976,-0.036
5.977,-0.034
5.978,-0.033
5.979,-0.031
5.980,-0.036
5.981,-0.038
5.982,-0.036
5.983,-0.038
5.984,-0.036
5.985,-0.034
5.986,-0.036
5.987,-0.034
5.988,-0.038
5.989,-0.041
5.990,-0.045
5.991,-0.044
5.992,-0.041
5.993,-0.038
5.994,-0.038
5.995,-0.038
5.996,-0.038
5.997,-0.038
5.998,-0.031
5.999,-0.028
6.000,-0.029
6.001,-0.028
6.002,-0.031
6.003,-0.031
6.004,-0.033
6.005,-0.034
6.006,-0.033
6.007,-0.031
6.008,-0.031
6.009,-0.028
6.010,-0.025
6.011,-0.019
6.012,-0.020
6.013,-0.025
6.014,-0.026
6.015,-0.025
6.016,-0.022
6.017,-0.019
6.018,-0.019
6.019,-0.019
6.020,-0.019
6.021,-0.019
6.022,-0.019
6.023,-0.019
6.024,-0.017
6.025,-0.019
6.026,-0.019
6.027,-0.019
6.028,-0.019
6.029,-0.019
6.030,-0.020
6.031,-0.022
6.032,-0.019
6.033,-0.019
6.034,-0.017
6.035,-0.019
6.036,-0.019
6.037,-0.019
6.038,-0.018
6.039,-0.016
6.040,-0.020
6.041,-0.019
6.042,-0.019
6.043,-0.019
6.044,-0.018
6.045,-0.016
6.046,-0.016
6.047,-0.016
6.048,-0.016
6.049,-0.012
6.050,-0.012
6.051,-0.012
6.052,-0.012
6.053,-0.012
6.054,-0.009
6.055,-0.006
6.056,-0.004
6.057,-0.006
6.058,-0.007
6.059,-0.006
6.060,-0.007
6.061,-0.009
6.062,-0.008
6.063,-0.006
6.064,-0.006
6.065,-0.006
6.066,-0.007
6.067,-0.009
6.068,-0.007
6.069,-0.009
6.070,-0.008
6.071,-0.006
6.072,-0.004
6.073,-0.006
6.074,-0.005
6.075,-0.003
6.076,-0.002
6.077,0.003
6.078,-0.001
6.079,0.000
6.080,0.000
6.081,0.000
6.082,0.000
6.083,0.000
6.084,0.000
6.085,0.000
6.086,0.001
6.087,0.006
6.088,0.002
6.089,0.003
6.090,0.003
6.091,0.000
6.092,0.006
6.093,0.006
6.094,0.008
6.095,0.006
6.096,0.005
6.097,0.003
6.098,0.003
6.099,0.006
6.100,0.011
6.101,0.009
6.102,0.009
6.103,0.009
6.104,0.011
6.105,0.009
6.106,0.012
6.107,0.012
6.108,0.014
6.109,0.012
6.110,0.011
6.111,0.009
6.112,0.009
6.113,0.012
6.114,0.009
6.115,0.009
6.116,0.011
6.117,0.009
6.118,0.009
6.119,0.009
6.120,0.005
6.121,0.006
6.122,0.011
6.123,0.009
6.124,0.012
6.125,0.009
6.126,0.005
6.127,0.006
6.128,0.006
6.129,0.006
6.130,0.005
6.131,0.003
6.132,0.006
6.133,0.003
6.134,0.008
6.135,0.009
6.136,0.009
6.137,0.009
6.138,0.009
6.139,0.012
6.140,0.012
6.141,0.012
6.142,0.012
6.143,0.016
6.144,0.018
6.145,0.016
6.146,0.014
6.147,0.012
6.148,0.012
6.149,0.012
6.150,0.012
6.151,0.012
6.152,0.009
6.153,0.006
6.154,0.003
6.155,0.003
6.156,0.006
6.157,0.003
6.158,0.004
6.159,0.006
6.160,0.011
6.161,0.009
6.162,0.009
6.163,0.009
6.164,0.012
6.165,0.012
6.166,0.012
6.167,0.012
6.168,0.011
6.169,0.009
6.170,0.005
6.171,0.006
6.172,0.009
6.173,0.009
6.174,0.012
6.175,0.016
6.176,0.019
6.177,0.019
6.178,0.022
6.179,0.022
6.180,0.019
6.181,0.022
6.182,0.022
6.183,0.025
6.184,0.021
6.185,0.019
6.186,0.018
6.187,0.016
6.188,0.014
6.189,0.016
6.190,0.020
6.191,0.025
6.192,0.028
6.193,0.028
6.194,0.030
6.195,0.031
6.196,0.031
6.197,0.031
6.198,0.033
6.199,0.038
6.200,0.036
6.201,0.034
6.202,0.033
6.203,0.034
6.204,0.028
6.205,0.031
6.206,0.031
6.207,0.034
6.208,0.034
6.209,0.041
6.210,0.041
6.211,0.044
6.212,0.044
6.213,0.044
6.214,0.046
6.215,0.047
6.216,0.048
6.217,0.053
6.218,0.056
6.219,0.056
6.220,0.055
6.221,0.053
6.222,0.053
6.223,0.056
6.224,0.058
6.225,0.056
6.226,0.059
6.227,0.066
6.228,0.068
6.229,0.069
6.230,0.075
6.231,0.075
6.232,0.077
6.233,0.078
6.234,0.081
6.235,0.081
6.236,0.084
6.237,0.084
6.238,0.086
6.239,0.087
6.240,0.089
6.241,0.094
6.242,0.094
6.243,0.097
6.244,0.099
6.245,0.100
6.246,0.103
6.247,0.103
6.248,0.106
6.249,0.116
6.250,0.114
6.251,0.113
6.252,0.111
6.253,0.113
6.254,0.114
6.255,0.119
6.256,0.128
6.257,0.131
6.258,0.134
6.259,0.134
6.260,0.134
6.261,0.137
6.262,0.141
6.263,0.141
6.264,0.141
6.265,0.144
6.266,0.145
6.267,0.147
6.268,0.149
6.269,0.147
6.270,0.147
6.271,0.147
6.272,0.150
6.273,0.147
6.274,0.148
6.275,0.153
6.276,0.151
6.277,0.156
6.278,0.153
6.279,0.153
6.280,0.156
6.281,0.159
6.282,0.155
6.283,0.156
6.284,0.153
6.285,0.150
6.286,0.150
6.287,0.147
6.288,0.147
6.289,0.147
6.290,0.147
6.291,0.144
6.292,0.142
6.293,0.144
6.294,0.142
6.295,0.141
6.296,0.142
6.297,0.141
6.298,0.141
6.299,0.141
6.300,0.142
6.301,0.141
6.302,0.139
6.303,0.137
6.304,0.134
6.305,0.134
6.306,0.134
6.307,0.125
6.308,0.122
6.309,0.119
6.310,0.119
6.311,0.119
6.312,0.114
6.313,0.106
6.314,0.107
6.315,0.106
6.316,0.106
6.317,0.103
6.318,0.101
6.319,0.097
6.320,0.096
6.321,0.094
6.322,0.086
6.323,0.084
6.324,0.086
6.325,0.081
6.326,0.081
6.327,0.078
6.328,0.074
6.329,0.072
6.330,0.070
6.331,0.069
6.332,0.067
6.333,0.069
6.334,0.066
6.335,0.059
6.336,0.057
6.337,0.056
6.338,0.056
6.339,0.053
6.340,0.050
6.341,0.047
6.342,0.042
6.343,0.038
6.344,0.038
6.345,0.038
6.346,0.034
6.347,0.031
6.348,0.028
6.349,0.028
6.350,0.026
6.351,0.028
6.352,0.025
6.353,0.022
6.354,0.021
6.355,0.016
6.356,0.016
6.357,0.012
6.358,0.008
6.359,0.009
6.360,0.008
6.361,0.006
6.362,0.006
6.363,0.003
6.364,0.000
6.365,-0.006
6.366,-0.008
6.367,-0.006
6.368,-0.006
6.369,-0.009
6.370,-0.014
6.371,-0.012
6.372,-0.014
6.373,-0.016
6.374,-0.016
6.375,-0.016
6.376,-0.014
6.377,-0.016
6.378,-0.022
6.379,-0.028
6.380,-0.027
6.381,-0.028
6.382,-0.030
6.383,-0.028
6.384,-0.028
6.385,-0.028
6.386,-0.028
6.387,-0.031
6.388,-0.028
6.389,-0.031
6.390,-0.030
6.391,-0.028
6.392,-0.030
6.393,-0.028
6.394,-0.033
6.395,-0.031
6.396,-0.028
6.397,-0.031
6.398,-0.034
6.399,-0.034
6.400,-0.034
6.401,-0.038
6.402,-0.036
6.403,-0.038
6.404,-0.036
6.405,-0.038
6.406,-0.036
6.407,-0.034
6.408,-0.034
6.409,-0.034
6.410,-0.034
6.411,-0.034
6.412,-0.038
6.413,-0.038
6.414,-0.038
6.415,-0.038
6.416,-0.038
6.417,-0.034
6.418,-0.038
6.419,-0.038
6.420,-0.038
6.421,-0.038
6.422,-0.036
6.423,-0.034
6.424,-0.039
6.425,-0.044
6.426,-0.041
6.427,-0.041
6.428,-0.042
6.429,-0.044
6.430,-0.047
6.431,-0.047
6.432,-0.048
6.433,-0.047
6.434,-0.046
6.435,-0.047
6.436,-0.047
6.437,-0.047
6.438,-0.046
6.439,-0.047
6.440,-0.044
6.441,-0.047
6.442,-0.050
6.443,-0.050
6.444,-0.047
6.445,-0.050
6.446,-0.051
6.447,-0.053
6.448,-0.053
6.449,-0.053
6.450,-0.050
6.451,-0.053
6.452,-0.053
6.453,-0.053
6.454,-0.053
6.455,-0.053
6.456,-0.056
6.457,-0.059
6.458,-0.061
6.459,-0.063
6.460,-0.064
6.461,-0.063
6.462,-0.059
6.463,-0.056
6.464,-0.056
6.465,-0.056
6.466,-0.061
6.467,-0.059
6.468,-0.055
6.469,-0.056
6.470,-0.056
6.471,-0.056
6.472,-0.054
6.473,-0.056
6.474,-0.061
6.475,-0.063
6.476,-0.063
6.477,-0.063
6.478,-0.061
6.479,-0.063
6.480,-0.058
6.481,-0.056
6.482,-0.055
6.483,-0.056
6.484,-0.066
6.485,-0.069
6.486,-0.066
6.487,-0.069
6.488,-0.071
6.489,-0.069
6.490,-0.069
6.491,-0.069
6.492,-0.069
6.493,-0.066
6.494,-0.068
6.495,-0.066
6.496,-0.063
6.497,-0.066
6.498,-0.066
6.499,-0.066
6.500,-0.070
6.501,-0.069
6.502,-0.069
6.503,-0.069
6.504,-0.069
6.505,-0.069
6.506,-0.070
6.507,-0.072
6.508,-0.071
6.509,-0.072
6.510,-0.072
6.511,-0.072
6.512,-0.066
6.513,-0.066
6.514,-0.066
6.515,-0.066
6.516,-0.066
6.517,-0.066
6.518,-0.069
6.519,-0.069
6.520,-0.064
6.521,-0.069
6.522,-0.072
6.523,-0.072
6.524,-0.075
6.525,-0.078
6.526,-0.078
6.527,-0.078
6.528,-0.074
6.529,-0.075
6.530,-0.074
6.531,-0.072
6.532,-0.072
6.533,-0.072
6.534,-0.078
6.535,-0.078
6.536,-0.078
6.537,-0.078
6.538,-0.075
6.539,-0.075
6.540,-0.078
6.541,-0.078
6.542,-0.078
6.543,-0.078
6.544,-0.077
6.545,-0.075
6.546,-0.074
6.547,-0.075
6.548,-0.074
6.549,-0.072
6.550,-0.072
6.551,-0.072
6.552,-0.072
6.553,-0.078
6.554,-0.078
6.555,-0.078
6.556,-0.075
6.557,-0.078
6.558,-0.079
6.559,-0.081
6.560,-0.081
6.561,-0.081
6.562,-0.078
6.563,-0.078
6.564,-0.077
6.565,-0.072
6.566,-0.076
6.567,-0.078
6.568,-0.078
6.569,-0.081
6.570,-0.081
6.571,-0.084
6.572,-0.083
6.573,-0.081
6.574,-0.078
6.575,-0.078
6.576,-0.075
6.577,-0.075
6.578,-0.075
6.579,-0.075
6.580,-0.073
6.581,-0.075
6.582,-0.074
6.583,-0.072
6.584,-0.073
6.585,-0.075
6.586,-0.072
6.587,-0.075
6.588,-0.075
6.589,-0.075
6.590,-0.075
6.591,-0.075
6.592,-0.076
6.593,-0.078
6.594,-0.074
6.595,-0.075
6.596,-0.078
6.597,-0.081
6.598,-0.081
6.599,-0.081
6.600,-0.081
6.601,-0.081
6.602,-0.080
6.603,-0.081
6.604,-0.083
6.605,-0.081
6.606,-0.078
6.607,-0.075
6.608,-0.079
6.609,-0.078
6.610,-0.077
6.611,-0.078
6.612,-0.078
6.613,-0.081
6.614,-0.081
6.615,-0.081
6.616,-0.075
6.617,-0.075
6.618,-0.079
6.619,-0.078
6.620,-0.077
6.621,-0.078
6.622,-0.081
6.623,-0.078
6.624,-0.076
6.625,-0.078
6.626,-0.078
6.627,-0.078
6.628,-0.078
6.629,-0.078
6.630,-0.078
6.631,-0.078
6.632,-0.075
6.633,-0.078
6.634,-0.075
6.635,-0.072
6.636,-0.072
6.637,-0.072
6.638,-0.072
6.639,-0.072
6.640,-0.073
6.641,-0.078
6.642,-0.079
6.643,-0.078
6.644,-0.077
6.645,-0.075
6.646,-0.078
6.647,-0.075
6.648,-0.072
6.649,-0.072
6.650,-0.072
6.651,-0.072
6.652,-0.076
6.653,-0.075
6.654,-0.075
6.655,-0.075
6.656,-0.075
6.657,-0.075
6.658,-0.075
6.659,-0.075
6.660,-0.072
6.661,-0.075
6.662,-0.076
6.663,-0.078
6.664,-0.074
6.665,-0.072
6.666,-0.071
6.667,-0.072
6.668,-0.076
6.669,-0.078
6.670,-0.079
6.671,-0.078
6.672,-0.075
6.673,-0.075
6.674,-0.078
6.675,-0.078
6.676,-0.078
6.677,-0.078
6.678,-0.075
6.679,-0.072
6.680,-0.069
6.681,-0.072
6.682,-0.072
6.683,-0.072
6.684,-0.072
6.685,-0.072
6.686,-0.081
6.687,-0.081
6.688,-0.078
6.689,-0.078
6.690,-0.074
6.691,-0.075
6.692,-0.079
6.693,-0.075
6.694,-0.078
6.695,-0.078
6.696,-0.075
6.697,-0.075
6.698,-0.075
6.699,-0.075
6.700,-0.068
6.701,-0.072
6.702,-0.073
6.703,-0.072
6.704,-0.072
6.705,-0.072
6.706,-0.072
6.707,-0.072
6.708,-0.072
6.709,-0.072
6.710,-0.072
6.711,-0.072
6.712,-0.071
6.713,-0.069
6.714,-0.075
6.715,-0.075
6.716,-0.071
6.717,-0.072
6.718,-0.076
6.719,-0.075
6.720,-0.074
6.721,-0.072
6.722,-0.075
6.723,-0.075
6.724,-0.076
6.725,-0.078
6.726,-0.079
6.727,-0.078
6.728,-0.074
6.729,-0.075
6.730,-0.075
6.731,-0.075
6.732,-0.072
6.733,-0.072
6.734,-0.072
6.735,-0.072
6.736,-0.072
6.737,-0.072
6.738,-0.076
6.739,-0.075
6.740,-0.075
6.741,-0.078
6.742,-0.077
6.743,-0.075
6.744,-0.074
6.745,-0.072
6.746,-0.072
6.747,-0.072
6.748,-0.073
6.749,-0.075
6.750,-0.071
6.751,-0.069
6.752,-0.069
6.753,-0.069
6.754,-0.072
6.755,-0.069
6.756,-0.072
6.757,-0.072
6.758,-0.073
6.759,-0.075
6.760,-0.073
6.761,-0.075
6.762,-0.076
6.763,-0.078
6.764,-0.077
6.765,-0.075
6.766,-0.081
6.767,-0.078
6.768,-0.074
6.769,-0.072
6.770,-0.078
6.771,-0.078
6.772,-0.078
6.773,-0.078
6.774,-0.078
6.775,-0.078
6.776,-0.077
6.777,-0.078
6.778,-0.078
6.779,-0.078
6.780,-0.077
6.781,-0.075
6.782,-0.078
6.783,-0.072
6.784,-0.075
6.785,-0.078
6.786,-0.078
6.787,-0.075
6.788,-0.074
6.789,-0.072
6.790,-0.072
6.791,-0.069
6.792,-0.072
6.793,-0.069
6.794,-0.069
6.795,-0.069
6.796,-0.070
6.797,-0.072
6.798,-0.072
6.799,-0.072
6.800,-0.072
6.801,-0.072
6.802,-0.074
6.803,-0.072
6.804,-0.072
6.805,-0.069
6.806,-0.072
6.807,-0.072
6.808,-0.073
6.809,-0.075
6.810,-0.070
6.811,-0.069
6.812,-0.063
6.813,-0.056
6.814,-0.047
6.815,-0.041
6.816,-0.031
6.817,-0.031
6.818,-0.029
6.819,-0.028
6.820,-0.029
6.821,-0.028
6.822,-0.029
6.823,-0.031
6.824,-0.031
6.825,-0.028
6.826,-0.027
6.827,-0.025
6.828,-0.024
6.829,-0.022
6.830,-0.025
6.831,-0.025
6.832,-0.024
6.833,-0.022
6.834,-0.022
6.835,-0.022
6.836,-0.025
6.837,-0.012
6.838,0.002
6.839,0.012
6.840,0.028
6.841,0.044
6.842,0.067
6.843,0.081
6.844,0.101
6.845,0.109
6.846,0.119
6.847,0.119
6.848,0.116
6.849,0.113
6.850,0.111
6.851,0.109
6.852,0.106
6.853,0.106
6.854,0.102
6.855,0.103
6.856,0.103
6.857,0.100
6.858,0.103
6.859,0.100
6.860,0.097
6.861,0.091
6.862,0.074
6.863,0.069
6.864,0.073
6.865,0.075
6.866,0.075
6.867,0.069
6.868,0.061
6.869,0.053
6.870,0.042
6.871,0.041
6.872,0.033
6.873,0.034
6.874,0.036
6.875,0.034
6.876,0.036
6.877,0.034
6.878,0.033
6.879,0.034
6.880,0.027
6.881,0.028
6.882,0.031
6.883,0.034
6.884,0.044
6.885,0.044
6.886,0.041
6.887,0.034
6.888,0.022
6.889,0.016
6.890,0.003
6.891,-0.006
6.892,-0.017
6.893,-0.025
6.894,-0.030
6.895,-0.031
6.896,-0.036
6.897,-0.044
6.898,-0.046
6.899,-0.047
6.900,-0.050
6.901,-0.053
6.902,-0.061
6.903,-0.066
6.904,-0.072
6.905,-0.072
6.906,-0.074
6.907,-0.072
6.908,-0.072
6.909,-0.072
6.910,-0.072
6.911,-0.075
6.912,-0.075
6.913,-0.078
6.914,-0.083
6.915,-0.084
6.916,-0.084
6.917,-0.084
6.918,-0.084
6.919,-0.084
6.920,-0.086
6.921,-0.084
6.922,-0.084
6.923,-0.084
6.924,-0.087
6.925,-0.087
6.926,-0.091
6.927,-0.091
6.928,-0.089
6.929,-0.091
6.930,-0.089
6.931,-0.094
6.932,-0.097
6.933,-0.097
6.934,-0.094
6.935,-0.097
6.936,-0.098
6.937,-0.100
6.938,-0.097
6.939,-0.094
6.940,-0.097
6.941,-0.100
6.942,-0.103
6.943,-0.103
6.944,-0.103
6.945,-0.103
6.946,-0.103
6.947,-0.106
6.948,-0.104
6.949,-0.106
6.950,-0.105
6.951,-0.103
6.952,-0.103
6.953,-0.103
6.954,-0.102
6.955,-0.100
6.956,-0.099
6.957,-0.097
6.958,-0.097
6.959,-0.097
6.960,-0.096
6.961,-0.091
6.962,-0.092
6.963,-0.091
6.964,-0.092
6.965,-0.091
6.966,-0.091
6.967,-0.091
6.968,-0.094
6.969,-0.100
6.970,-0.100
6.971,-0.103
6.972,-0.107
6.973,-0.119
6.974,-0.124
6.975,-0.125
6.976,-0.126
6.977,-0.116
6.978,-0.103
6.979,-0.091
6.980,-0.071
6.981,-0.044
6.982,-0.022
6.983,0.006
6.984,0.028
6.985,0.034
6.986,0.047
6.987,0.066
6.988,0.089
6.989,0.116
6.990,0.145
6.991,0.194
6.992,0.248
6.993,0.316
6.994,0.392
6.995,0.466
6.996,0.525
6.997,0.584
6.998,0.653
6.999,0.725
7.000,0.793
7.001,0.812
7.002,0.820
7.003,0.850
7.004,0.887
7.005,0.966
7.006,1.049
7.007,1.091
7.008,1.116
7.009,1.069
7.010,0.983
7.011,0.850
7.012,0.713
7.013,0.572
7.014,0.434
7.015,0.353
7.016,0.269
7.017,0.197
7.018,0.141
7.019,0.100
7.020,0.066
7.021,0.034
7.022,0.002
7.023,-0.025
7.024,-0.046
7.025,-0.053
7.026,-0.063
7.027,-0.056
7.028,-0.047
7.029,-0.041
7.030,-0.033
7.031,-0.028
7.032,-0.019
7.033,0.000
7.034,0.023
7.035,0.038
7.036,0.054
7.037,0.066
7.038,0.075
7.039,0.078
7.040,0.077
7.041,0.066
7.042,0.053
7.043,0.041
7.044,0.028
7.045,0.016
7.046,0.009
7.047,0.000
7.048,-0.005
7.049,-0.006
7.050,-0.011
7.051,-0.019
7.052,-0.024
7.053,-0.022
7.054,-0.025
7.055,-0.025
7.056,-0.025
7.057,-0.025
7.058,-0.025
7.059,-0.028
7.060,-0.033
7.061,-0.034
7.062,-0.039
7.063,-0.041
7.064,-0.041
7.065,-0.047
7.066,-0.049
7.067,-0.047
7.068,-0.050
7.069,-0.050
7.070,-0.050
7.071,-0.050
7.072,-0.052
7.073,-0.047
7.074,-0.048
7.075,-0.047
7.076,-0.046
7.077,-0.047
7.078,-0.048
7.079,-0.050
7.080,-0.053
7.081,-0.053
7.082,-0.057
7.083,-0.056
7.084,-0.056
7.085,-0.056
7.086,-0.056
7.087,-0.056
7.088,-0.055
7.089,-0.053
7.090,-0.052
7.091,-0.050
7.092,-0.051
7.093,-0.053
7.094,-0.050
7.095,-0.050
7.096,-0.051
7.097,-0.056
7.098,-0.054
7.099,-0.056
7.100,-0.055
7.101,-0.053
7.102,-0.056
7.103,-0.056
7.104,-0.053
7.105,-0.053
7.106,-0.053
7.107,-0.053
7.108,-0.054
7.109,-0.053
7.110,-0.052
7.111,-0.050
7.112,-0.054
7.113,-0.053
7.114,-0.052
7.115,-0.050
7.116,-0.047
7.117,-0.044
7.118,-0.044
7.119,-0.044
7.120,-0.042
7.121,-0.044
7.122,-0.042
7.123,-0.038
7.124,-0.041
7.125,-0.041
7.126,-0.042
7.127,-0.044
7.128,-0.044
7.129,-0.044
7.130,-0.045
7.131,-0.044
7.132,-0.042
7.133,-0.038
7.134,-0.036
7.135,-0.038
7.136,-0.039
7.137,-0.038
7.138,-0.038
7.139,-0.038
7.140,-0.038
7.141,-0.038
7.142,-0.038
7.143,-0.038
7.144,-0.038
7.145,-0.038
7.146,-0.036
7.147,-0.038
7.148,-0.038
7.149,-0.038
7.150,-0.038
7.151,-0.038
7.152,-0.038
7.153,-0.038
7.154,-0.033
7.155,-0.031
7.156,-0.028
7.157,-0.028
7.158,-0.028
7.159,-0.028
7.160,-0.028
7.161,-0.028
7.162,-0.031
7.163,-0.028
7.164,-0.028
7.165,-0.028
7.166,-0.028
7.167,-0.028
7.168,-0.028
7.169,-0.028
7.170,-0.029
7.171,-0.028
7.172,-0.028
7.173,-0.028
7.174,-0.028
7.175,-0.028
7.176,-0.025
7.177,-0.022
7.178,-0.019
7.179,-0.019
7.180,-0.019
7.181,-0.016
7.182,-0.014
7.183,-0.012
7.184,-0.014
7.185,-0.016
7.186,-0.016
7.187,-0.016
7.188,-0.017
7.189,-0.019
7.190,-0.016
7.191,-0.016
7.192,-0.016
7.193,-0.016
7.194,-0.014
7.195,-0.016
7.196,-0.016
7.197,-0.016
7.198,-0.014
7.199,-0.009
7.200,-0.011
7.201,-0.006
7.202,-0.006
7.203,-0.006
7.204,-0.006
7.205,-0.006
7.206,-0.005
7.207,-0.003
7.208,-0.006
7.209,-0.006
7.210,-0.011
7.211,-0.009
7.212,-0.009
7.213,-0.012
7.214,-0.006
7.215,-0.006
7.216,-0.005
7.217,-0.006
7.218,-0.003
7.219,0.000
7.220,-0.001
7.221,0.000
7.222,0.004
7.223,0.003
7.224,0.002
7.225,0.000
7.226,0.002
7.227,0.000
7.228,0.000
7.229,-0.003
7.230,0.001
7.231,0.003
7.232,0.003
7.233,0.003
7.234,0.003
7.235,0.006
7.236,0.003
7.237,0.003
7.238,0.006
7.239,0.006
7.240,0.006
7.241,0.006
7.242,0.004
7.243,0.009
7.244,0.012
7.245,0.009
7.246,0.011
7.247,0.006
7.248,0.002
7.249,0.003
7.250,0.006
7.251,0.009
7.252,0.006
7.253,0.003
7.254,0.008
7.255,0.006
7.256,0.011
7.257,0.012
7.258,0.012
7.259,0.012
7.260,0.011
7.261,0.012
7.262,0.012
7.263,0.012
7.264,0.008
7.265,0.006
7.266,0.011
7.267,0.012
7.268,0.012
7.269,0.012
7.270,0.012
7.271,0.012
7.272,0.012
7.273,0.012
7.274,0.014
7.275,0.016
7.276,0.012
7.277,0.012
7.278,0.016
7.279,0.012
7.280,0.012
7.281,0.012
7.282,0.016
7.283,0.012
7.284,0.014
7.285,0.016
7.286,0.019
7.287,0.019
7.288,0.019
7.289,0.019
7.290,0.020
7.291,0.022
7.292,0.018
7.293,0.019
7.294,0.023
7.295,0.025
7.296,0.024
7.297,0.022
7.298,0.024
7.299,0.022
7.300,0.026
7.301,0.028
7.302,0.024
7.303,0.025
7.304,0.025
7.305,0.028
7.306,0.028
7.307,0.031
7.308,0.031
7.309,0.031
7.310,0.031
7.311,0.034
7.312,0.038
7.313,0.041
7.314,0.042
7.315,0.041
7.316,0.041
7.317,0.041
7.318,0.041
7.319,0.041
7.320,0.039
7.321,0.041
7.322,0.044
7.323,0.047
7.324,0.046
7.325,0.047
7.326,0.045
7.327,0.053
7.328,0.054
7.329,0.059
7.330,0.055
7.331,0.056
7.332,0.057
7.333,0.063
7.334,0.061
7.335,0.059
7.336,0.063
7.337,0.066
7.338,0.063
7.339,0.063
7.340,0.066
7.341,0.066
7.342,0.067
7.343,0.069
7.344,0.069
7.345,0.072
7.346,0.076
7.347,0.078
7.348,0.078
7.349,0.081
7.350,0.086
7.351,0.091
7.352,0.093
7.353,0.087
7.354,0.094
7.355,0.100
7.356,0.102
7.357,0.100
7.358,0.103
7.359,0.103
7.360,0.105
7.361,0.106
7.362,0.109
7.363,0.116
7.364,0.114
7.365,0.116
7.366,0.117
7.367,0.119
7.368,0.122
7.369,0.122
7.370,0.125
7.371,0.134
7.372,0.136
7.373,0.137
7.374,0.136
7.375,0.137
7.376,0.136
7.377,0.137
7.378,0.144
7.379,0.144
7.380,0.146
7.381,0.144
7.382,0.147
7.383,0.153
7.384,0.155
7.385,0.153
7.386,0.152
7.387,0.153
7.388,0.154
7.389,0.156
7.390,0.158
7.391,0.156
7.392,0.156
7.393,0.156
7.394,0.164
7.395,0.166
7.396,0.164
7.397,0.166
7.398,0.161
7.399,0.163
7.400,0.159
7.401,0.159
7.402,0.159
7.403,0.159
7.404,0.155
7.405,0.156
7.406,0.156
7.407,0.156
7.408,0.155
7.409,0.150
7.410,0.149
7.411,0.147
7.412,0.150
7.413,0.150
7.414,0.147
7.415,0.147
7.416,0.145
7.417,0.144
7.418,0.143
7.419,0.137
7.420,0.136
7.421,0.134
7.422,0.133
7.423,0.128
7.424,0.126
7.425,0.125
7.426,0.121
7.427,0.119
7.428,0.125
7.429,0.122
7.430,0.119
7.431,0.116
7.432,0.111
7.433,0.106
7.434,0.106
7.435,0.103
7.436,0.104
7.437,0.103
7.438,0.100
7.439,0.094
7.440,0.092
7.441,0.087
7.442,0.087
7.443,0.087
7.444,0.083
7.445,0.084
7.446,0.083
7.447,0.075
7.448,0.074
7.449,0.069
7.450,0.067
7.451,0.069
7.452,0.066
7.453,0.063
7.454,0.059
7.455,0.059
7.456,0.061
7.457,0.059
7.458,0.055
7.459,0.050
7.460,0.050
7.461,0.047
7.462,0.045
7.463,0.044
7.464,0.042
7.465,0.041
7.466,0.041
7.467,0.041
7.468,0.036
7.469,0.031
7.470,0.029
7.471,0.031
7.472,0.028
7.473,0.028
7.474,0.025
7.475,0.022
7.476,0.021
7.477,0.016
7.478,0.019
7.479,0.019
7.480,0.014
7.481,0.016
7.482,0.012
7.483,0.009
7.484,0.009
7.485,0.006
7.486,0.009
7.487,0.009
7.488,0.005
7.489,0.003
7.490,0.000
7.491,-0.006
7.492,-0.009
7.493,-0.006
7.494,-0.008
7.495,-0.009
7.496,-0.009
7.497,-0.009
7.498,-0.008
7.499,-0.009
7.500,-0.011
7.501,-0.012
7.502,-0.011
7.503,-0.012
7.504,-0.012
7.505,-0.009
7.506,-0.011
7.507,-0.012
7.508,-0.012
7.509,-0.016
7.510,-0.016
7.511,-0.022
7.512,-0.022
7.513,-0.022
7.514,-0.022
7.515,-0.019
7.516,-0.023
7.517,-0.022
7.518,-0.019
7.519,-0.022
7.520,-0.025
7.521,-0.025
7.522,-0.024
7.523,-0.025
7.524,-0.025
7.525,-0.028
7.526,-0.028
7.527,-0.031
7.528,-0.031
7.529,-0.031
7.530,-0.031
7.531,-0.031
7.532,-0.031
7.533,-0.031
7.534,-0.034
7.535,-0.034
7.536,-0.034
7.537,-0.034
7.538,-0.034
7.539,-0.031
7.540,-0.034
7.541,-0.034
7.542,-0.034
7.543,-0.034
7.544,-0.034
7.545,-0.034
7.546,-0.036
7.547,-0.038
7.548,-0.036
7.549,-0.038
7.550,-0.038
7.551,-0.038
7.552,-0.041
7.553,-0.041
7.554,-0.042
7.555,-0.041
7.556,-0.036
7.557,-0.034
7.558,-0.034
7.559,-0.034
7.560,-0.034
7.561,-0.038
7.562,-0.036
7.563,-0.041
7.564,-0.044
7.565,-0.044
7.566,-0.041
7.567,-0.044
7.568,-0.044
7.569,-0.044
7.570,-0.045
7.571,-0.047
7.572,-0.042
7.573,-0.044
7.574,-0.044
7.575,-0.044
7.576,-0.045
7.577,-0.047
7.578,-0.047
7.579,-0.047
7.580,-0.047
7.581,-0.047
7.582,-0.050
7.583,-0.050
7.584,-0.047
7.585,-0.044
7.586,-0.042
7.587,-0.041
7.588,-0.045
7.589,-0.044
7.590,-0.042
7.591,-0.047
7.592,-0.047
7.593,-0.047
7.594,-0.044
7.595,-0.044
7.596,-0.047
7.597,-0.047
7.598,-0.047
7.599,-0.047
7.600,-0.047
7.601,-0.050
7.602,-0.048
7.603,-0.050
7.604,-0.047
7.605,-0.047
7.606,-0.051
7.607,-0.050
7.608,-0.047
7.609,-0.050
7.610,-0.052
7.611,-0.050
7.612,-0.050
7.613,-0.050
7.614,-0.051
7.615,-0.050
7.616,-0.052
7.617,-0.050
7.618,-0.047
7.619,-0.050
7.620,-0.051
7.621,-0.053
7.622,-0.055
7.623,-0.050
7.624,-0.051
7.625,-0.053
7.626,-0.053
7.627,-0.053
7.628,-0.053
7.629,-0.053
7.630,-0.050
7.631,-0.050
7.632,-0.050
7.633,-0.050
7.634,-0.047
7.635,-0.050
7.636,-0.051
7.637,-0.053
7.638,-0.052
7.639,-0.050
7.640,-0.053
7.641,-0.053
7.642,-0.049
7.643,-0.053
7.644,-0.054
7.645,-0.053
7.646,-0.053
7.647,-0.053
7.648,-0.053
7.649,-0.053
7.650,-0.049
7.651,-0.050
7.652,-0.051
7.653,-0.053
7.654,-0.053
7.655,-0.053
7.656,-0.056
7.657,-0.053
7.658,-0.054
7.659,-0.056
7.660,-0.053
7.661,-0.053
7.662,-0.056
7.663,-0.056
7.664,-0.056
7.665,-0.056
7.666,-0.056
7.667,-0.056
7.668,-0.055
7.669,-0.056
7.670,-0.057
7.671,-0.059
7.672,-0.059
7.673,-0.059
7.674,-0.056
7.675,-0.059
7.676,-0.058
7.677,-0.056
7.678,-0.053
7.679,-0.056
7.680,-0.057
7.681,-0.059
7.682,-0.059
7.683,-0.059
7.684,-0.053
7.685,-0.050
7.686,-0.052
7.687,-0.050
7.688,-0.053
7.689,-0.053
7.690,-0.051
7.691,-0.053
7.692,-0.052
7.693,-0.053
7.694,-0.053
7.695,-0.053
7.696,-0.054
7.697,-0.059
7.698,-0.058
7.699,-0.059
7.700,-0.059
7.701,-0.059
7.702,-0.057
7.703,-0.059
7.704,-0.061
7.705,-0.059
7.706,-0.056
7.707,-0.059
7.708,-0.061
7.709,-0.063
7.710,-0.064
7.711,-0.063
7.712,-0.064
7.713,-0.066
7.714,-0.063
7.715,-0.059
7.716,-0.055
7.717,-0.053
7.718,-0.057
7.719,-0.056
7.720,-0.059
7.721,-0.063
7.722,-0.061
7.723,-0.063
7.724,-0.063
7.725,-0.063
7.726,-0.063
7.727,-0.063
7.728,-0.063
7.729,-0.063
7.730,-0.063
7.731,-0.063
7.732,-0.061
7.733,-0.059
7.734,-0.059
7.735,-0.059
7.736,-0.059
7.737,-0.059
7.738,-0.058
7.739,-0.056
7.740,-0.057
7.741,-0.059
7.742,-0.055
7.743,-0.056
7.744,-0.057
7.745,-0.059
7.746,-0.059
7.747,-0.059
7.748,-0.059
7.749,-0.059
7.750,-0.056
7.751,-0.059
7.752,-0.058
7.753,-0.056
7.754,-0.057
7.755,-0.059
7.756,-0.058
7.757,-0.056
7.758,-0.053
7.759,-0.053
7.760,-0.054
7.761,-0.053
7.762,-0.054
7.763,-0.056
7.764,-0.063
7.765,-0.063
7.766,-0.061
7.767,-0.063
7.768,-0.058
7.769,-0.056
7.770,-0.056
7.771,-0.056
7.772,-0.052
7.773,-0.053
7.774,-0.056
7.775,-0.053
7.776,-0.052
7.777,-0.053
7.778,-0.057
7.779,-0.056
7.780,-0.059
7.781,-0.066
7.782,-0.066
7.783,-0.066
7.784,-0.064
7.785,-0.063
7.786,-0.063
7.787,-0.063
7.788,-0.056
7.789,-0.056
7.790,-0.057
7.791,-0.059
7.792,-0.061
7.793,-0.063
7.794,-0.061
7.795,-0.059
7.796,-0.058
7.797,-0.059
7.798,-0.063
7.799,-0.063
7.800,-0.063
7.801,-0.063
7.802,-0.067
7.803,-0.066
7.804,-0.064
7.805,-0.066
7.806,-0.064
7.807,-0.063
7.808,-0.067
7.809,-0.066
7.810,-0.066
7.811,-0.066
7.812,-0.066
7.813,-0.066
7.814,-0.067
7.815,-0.069
7.816,-0.066
7.817,-0.069
7.818,-0.069
7.819,-0.069
7.820,-0.064
7.821,-0.063
7.822,-0.061
7.823,-0.063
7.824,-0.066
7.825,-0.066
7.826,-0.069
7.827,-0.069
7.828,-0.066
7.829,-0.066
7.830,-0.069
7.831,-0.069
7.832,-0.069
7.833,-0.069
7.834,-0.069
7.835,-0.069
7.836,-0.066
7.837,-0.069
7.838,-0.066
7.839,-0.063
7.840,-0.061
7.841,-0.059
7.842,-0.069
7.843,-0.069
7.844,-0.064
7.845,-0.063
7.846,-0.059
7.847,-0.063
7.848,-0.069
7.849,-0.066
7.850,-0.063
7.851,-0.056
7.852,-0.055
7.853,-0.056
7.854,-0.057
7.855,-0.059
7.856,-0.054
7.857,-0.063
7.858,-0.066
7.859,-0.066
7.860,-0.066
7.861,-0.066
7.862,-0.066
7.863,-0.066
7.864,-0.067
7.865,-0.069
7.866,-0.070
7.867,-0.072
7.868,-0.071
7.869,-0.069
7.870,-0.072
7.871,-0.069
7.872,-0.061
7.873,-0.059
7.874,-0.064
7.875,-0.063
7.876,-0.061
7.877,-0.059
7.878,-0.064
7.879,-0.066
7.880,-0.066
7.881,-0.066
7.882,-0.069
7.883,-0.069
7.884,-0.066
7.885,-0.069
7.886,-0.068
7.887,-0.066
7.888,-0.063
7.889,-0.063
7.890,-0.063
7.891,-0.063
7.892,-0.061
7.893,-0.059
7.894,-0.064
7.895,-0.063
7.896,-0.061
7.897,-0.063
7.898,-0.064
7.899,-0.066
7.900,-0.066
7.901,-0.066
7.902,-0.066
7.903,-0.066
7.904,-0.066
7.905,-0.066
7.906,-0.064
7.907,-0.066
7.908,-0.066
7.909,-0.066
7.910,-0.069
7.911,-0.066
7.912,-0.068
7.913,-0.066
7.914,-0.064
7.915,-0.063
7.916,-0.061
7.917,-0.063
7.918,-0.064
7.919,-0.066
7.920,-0.066
7.921,-0.066
7.922,-0.072
7.923,-0.069
7.924,-0.064
7.925,-0.063
7.926,-0.066
7.927,-0.063
7.928,-0.061
7.929,-0.059
7.930,-0.058
7.931,-0.056
7.932,-0.056
7.933,-0.059
7.934,-0.061
7.935,-0.063
7.936,-0.063
7.937,-0.063
7.938,-0.069
7.939,-0.066
7.940,-0.064
7.941,-0.063
7.942,-0.066
7.943,-0.066
7.944,-0.066
7.945,-0.066
7.946,-0.063
7.947,-0.056
7.948,-0.059
7.949,-0.056
7.950,-0.057
7.951,-0.059
7.952,-0.059
7.953,-0.059
7.954,-0.059
7.955,-0.059
7.956,-0.058
7.957,-0.056
7.958,-0.061
7.959,-0.063
7.960,-0.061
7.961,-0.056
7.962,-0.057
7.963,-0.056
7.964,-0.056
7.965,-0.056
7.966,-0.046
7.967,-0.038
7.968,-0.031
7.969,-0.025
7.970,-0.019
7.971,-0.016
7.972,-0.011
7.973,-0.016
7.974,-0.016
7.975,-0.016
7.976,-0.016
7.977,-0.012
7.978,-0.009
7.979,-0.006
7.980,-0.006
7.981,-0.003
7.982,-0.004
7.983,-0.006
7.984,-0.009
7.985,-0.012
7.986,-0.014
7.987,-0.012
7.988,-0.009
7.989,-0.006
7.990,-0.002
7.991,0.003
7.992,0.003
7.993,0.019
7.994,0.033
7.995,0.044
7.996,0.059
7.997,0.075
7.998,0.096
7.999,0.106
8.000,0.119
8.001,0.119
8.002,0.122
8.003,0.116
8.004,0.113
8.005,0.109
8.006,0.113
8.007,0.116
8.008,0.114
8.009,0.116
8.010,0.113
8.011,0.116
8.012,0.113
8.013,0.106
8.014,0.106
8.015,0.100
8.016,0.100
8.017,0.097
8.018,0.084
8.019,0.084
8.020,0.084
8.021,0.081
8.022,0.083
8.023,0.078
8.024,0.071
8.025,0.063
8.026,0.053
8.027,0.053
8.028,0.047
8.029,0.050
8.030,0.052
8.031,0.050
8.032,0.051
8.033,0.050
8.034,0.048
8.035,0.050
8.036,0.044
8.037,0.047
8.038,0.049
8.039,0.050
8.040,0.054
8.041,0.050
8.042,0.042
8.043,0.031
8.044,0.020
8.045,0.016
8.046,0.009
8.047,0.006
8.048,-0.001
8.049,-0.006
8.050,-0.011
8.051,-0.012
8.052,-0.017
8.053,-0.025
8.054,-0.033
8.055,-0.041
8.056,-0.044
8.057,-0.047
8.058,-0.050
8.059,-0.050
8.060,-0.053
8.061,-0.050
8.062,-0.053
8.063,-0.053
8.064,-0.053
8.065,-0.053
8.066,-0.053
8.067,-0.056
8.068,-0.059
8.069,-0.066
8.070,-0.068
8.071,-0.066
8.072,-0.067
8.073,-0.069
8.074,-0.069
8.075,-0.069
8.076,-0.071
8.077,-0.069
8.078,-0.070
8.079,-0.072
8.080,-0.074
8.081,-0.072
8.082,-0.075
8.083,-0.075
8.084,-0.078
8.085,-0.084
8.086,-0.081
8.087,-0.084
8.088,-0.087
8.089,-0.087
8.090,-0.084
8.091,-0.087
8.092,-0.087
8.093,-0.087
8.094,-0.087
8.095,-0.087
8.096,-0.087
8.097,-0.087
8.098,-0.089
8.099,-0.087
8.100,-0.086
8.101,-0.084
8.102,-0.084
8.103,-0.087
8.104,-0.086
8.105,-0.087
8.106,-0.087
8.107,-0.087
8.108,-0.087
8.109,-0.087
8.110,-0.089
8.111,-0.091
8.112,-0.091
8.113,-0.091
8.114,-0.089
8.115,-0.087
8.116,-0.089
8.117,-0.087
8.118,-0.089
8.119,-0.087
8.120,-0.089
8.121,-0.087
8.122,-0.087
8.123,-0.087
8.124,-0.084
8.125,-0.084
8.126,-0.084
8.127,-0.087
8.128,-0.091
8.129,-0.100
8.130,-0.111
8.131,-0.119
8.132,-0.119
8.133,-0.106
8.134,-0.093
8.135,-0.078
8.136,-0.063
8.137,-0.041
8.138,-0.019
8.139,0.009
8.140,0.034
8.141,0.044
8.142,0.053
8.143,0.069
8.144,0.091
8.145,0.116
8.146,0.136
8.147,0.175
8.148,0.224
8.149,0.284
8.150,0.366
8.151,0.444
8.152,0.505
8.153,0.566
8.154,0.636
8.155,0.709
8.156,0.782
8.157,0.809
8.158,0.820
8.159,0.853
8.160,0.900
8.161,0.988
8.162,1.081
8.163,1.134
8.164,1.169
8.165,1.131
8.166,1.054
8.167,0.931
8.168,0.797
8.169,0.659
8.170,0.524
8.171,0.444
8.172,0.355
8.173,0.278
8.174,0.212
8.175,0.163
8.176,0.119
8.177,0.078
8.178,0.048
8.179,0.025
8.180,0.000
8.181,-0.012
8.182,-0.024
8.183,-0.019
8.184,-0.008
8.185,0.000
8.186,0.008
8.187,0.012
8.188,0.022
8.189,0.041
8.190,0.058
8.191,0.066
8.192,0.078
8.193,0.084
8.194,0.092
8.195,0.094
8.196,0.093
8.197,0.081
8.198,0.072
8.199,0.063
8.200,0.054
8.201,0.047
8.202,0.042
8.203,0.034
8.204,0.024
8.205,0.016
8.206,0.011
8.207,0.003
8.208,-0.006
8.209,-0.009
8.210,-0.014
8.211,-0.016
8.212,-0.019
8.213,-0.022
8.214,-0.021
8.215,-0.022
8.216,-0.024
8.217,-0.022
8.218,-0.028
8.219,-0.031
8.220,-0.028
8.221,-0.031
8.222,-0.034
8.223,-0.034
8.224,-0.039
8.225,-0.041
8.226,-0.039
8.227,-0.038
8.228,-0.042
8.229,-0.041
8.230,-0.042
8.231,-0.041
8.232,-0.039
8.233,-0.041
8.234,-0.039
8.235,-0.038
8.236,-0.039
8.237,-0.038
8.238,-0.044
8.239,-0.044
8.240,-0.045
8.241,-0.047
8.242,-0.047
8.243,-0.047
8.244,-0.044
8.245,-0.041
8.246,-0.042
8.247,-0.044
8.248,-0.044
8.249,-0.044
8.250,-0.038
8.251,-0.034
8.252,-0.033
8.253,-0.034
8.254,-0.033
8.255,-0.034
8.256,-0.034
8.257,-0.034
8.258,-0.038
8.259,-0.038
8.260,-0.036
8.261,-0.038
8.262,-0.038
8.263,-0.038
8.264,-0.038
8.265,-0.034
8.266,-0.034
8.267,-0.034
8.268,-0.039
8.269,-0.038
8.270,-0.036
8.271,-0.034
8.272,-0.031
8.273,-0.028
8.274,-0.029
8.275,-0.031
8.276,-0.029
8.277,-0.031
8.278,-0.033
8.279,-0.031
8.280,-0.034
8.281,-0.034
8.282,-0.034
8.283,-0.034
8.284,-0.034
8.285,-0.034
8.286,-0.036
8.287,-0.034
8.288,-0.036
8.289,-0.034
8.290,-0.033
8.291,-0.034
8.292,-0.033
8.293,-0.028
8.294,-0.029
8.295,-0.031
8.296,-0.030
8.297,-0.028
8.298,-0.028
8.299,-0.028
8.300,-0.025
8.301,-0.022
8.302,-0.020
8.303,-0.022
8.304,-0.022
8.305,-0.022
8.306,-0.022
8.307,-0.022
8.308,-0.025
8.309,-0.028
8.310,-0.026
8.311,-0.028
8.312,-0.022
8.313,-0.019
8.314,-0.019
8.315,-0.019
8.316,-0.019
8.317,-0.019
8.318,-0.022
8.319,-0.019
8.320,-0.018
8.321,-0.016
8.322,-0.016
8.323,-0.016
8.324,-0.016
8.325,-0.016
8.326,-0.016
8.327,-0.012
8.328,-0.012
8.329,-0.012
8.330,-0.012
8.331,-0.012
8.332,-0.014
8.333,-0.016
8.334,-0.012
8.335,-0.012
8.336,-0.012
8.337,-0.009
8.338,-0.009
8.339,-0.009
8.340,-0.009
8.341,-0.009
8.342,-0.011
8.343,-0.012
8.344,-0.009
8.345,-0.006
8.346,-0.003
8.347,-0.003
8.348,-0.003
8.349,-0.003
8.350,-0.001
8.351,-0.003
8.352,-0.003
8.353,-0.003
8.354,-0.002
8.355,0.003
8.356,-0.001
8.357,0.000
8.358,0.000
8.359,0.000
8.360,0.001
8.361,0.003
8.362,0.003
8.363,0.003
8.364,0.002
8.365,0.003
8.366,0.000
8.367,0.003
8.368,0.006
8.369,0.006
8.370,0.011
8.371,0.009
8.372,0.009
8.373,0.006
8.374,0.003
8.375,0.000
8.376,-0.003
8.377,-0.003
8.378,0.003
8.379,0.003
8.380,0.002
8.381,0.000
8.382,0.003
8.383,0.003
8.384,0.004
8.385,0.003
8.386,0.005
8.387,0.003
8.388,0.003
8.389,0.003
8.390,0.002
8.391,0.003
8.392,0.000
8.393,0.000
8.394,0.004
8.395,0.006
8.396,0.008
8.397,0.009
8.398,0.005
8.399,0.006
8.400,0.008
8.401,0.003
8.402,0.011
8.403,0.012
8.404,0.008
8.405,0.009
8.406,0.009
8.407,0.009
8.408,0.009
8.409,0.009
8.410,0.014
8.411,0.012
8.412,0.012
8.413,0.009
8.414,0.009
8.415,0.009
8.416,0.009
8.417,0.012
8.418,0.012
8.419,0.012
8.420,0.009
8.421,0.009
8.422,0.014
8.423,0.016
8.424,0.016
8.425,0.016
8.426,0.012
8.427,0.009
8.428,0.008
8.429,0.006
8.430,0.011
8.431,0.016
8.432,0.016
8.433,0.019
8.434,0.023
8.435,0.022
8.436,0.021
8.437,0.019
8.438,0.021
8.439,0.016
8.440,0.016
8.441,0.016
8.442,0.019
8.443,0.019
8.444,0.020
8.445,0.022
8.446,0.022
8.447,0.022
8.448,0.018
8.449,0.019
8.450,0.023
8.451,0.025
8.452,0.026
8.453,0.028
8.454,0.031
8.455,0.031
8.456,0.033
8.457,0.031
8.458,0.025
8.459,0.025
8.460,0.024
8.461,0.025
8.462,0.022
8.463,0.022
8.464,0.023
8.465,0.025
8.466,0.025
8.467,0.028
8.468,0.031
8.469,0.034
8.470,0.038
8.471,0.038
8.472,0.042
8.473,0.047
8.474,0.046
8.475,0.044
8.476,0.044
8.477,0.047
8.478,0.046
8.479,0.044
8.480,0.042
8.481,0.044
8.482,0.039
8.483,0.044
8.484,0.045
8.485,0.050
8.486,0.046
8.487,0.047
8.488,0.046
8.489,0.047
8.490,0.050
8.491,0.053
8.492,0.057
8.493,0.063
8.494,0.061
8.495,0.063
8.496,0.066
8.497,0.066
8.498,0.067
8.499,0.069
8.500,0.068
8.501,0.069
8.502,0.071
8.503,0.069
8.504,0.069
8.505,0.072
8.506,0.075
8.507,0.078
8.508,0.081
8.509,0.078
8.510,0.081
8.511,0.084
8.512,0.087
8.513,0.087
8.514,0.091
8.515,0.091
8.516,0.095
8.517,0.100
8.518,0.099
8.519,0.100
8.520,0.100
8.521,0.103
8.522,0.106
8.523,0.109
8.524,0.111
8.525,0.109
8.526,0.111
8.527,0.119
8.528,0.119
8.529,0.119
8.530,0.119
8.531,0.122
8.532,0.123
8.533,0.128
8.534,0.133
8.535,0.131
8.536,0.133
8.537,0.131
8.538,0.130
8.539,0.131
8.540,0.136
8.541,0.137
8.542,0.136
8.543,0.137
8.544,0.137
8.545,0.137
8.546,0.142
8.547,0.144
8.548,0.145
8.549,0.147
8.550,0.153
8.551,0.153
8.552,0.149
8.553,0.147
8.554,0.144
8.555,0.147
8.556,0.144
8.557,0.144
8.558,0.145
8.559,0.147
8.560,0.143
8.561,0.144
8.562,0.144
8.563,0.144
8.564,0.148
8.565,0.150
8.566,0.151
8.567,0.153
8.568,0.152
8.569,0.147
8.570,0.141
8.571,0.137
8.572,0.133
8.573,0.128
8.574,0.129
8.575,0.128
8.576,0.128
8.577,0.128
8.578,0.129
8.579,0.128
8.580,0.125
8.581,0.122
8.582,0.119
8.583,0.119
8.584,0.125
8.585,0.122
8.586,0.116
8.587,0.109
8.588,0.106
8.589,0.103
8.590,0.104
8.591,0.103
8.592,0.100
8.593,0.094
8.594,0.097
8.595,0.097
8.596,0.095
8.597,0.091
8.598,0.089
8.599,0.087
8.600,0.081
8.601,0.081
8.602,0.080
8.603,0.072
8.604,0.073
8.605,0.072
8.606,0.068
8.607,0.066
8.608,0.059
8.609,0.053
8.610,0.050
8.611,0.050
8.612,0.053
8.613,0.053
8.614,0.047
8.615,0.041
8.616,0.041
8.617,0.038
8.618,0.038
8.619,0.038
8.620,0.034
8.621,0.031
8.622,0.030
8.623,0.028
8.624,0.026
8.625,0.025
8.626,0.019
8.627,0.016
8.628,0.014
8.629,0.016
8.630,0.012
8.631,0.009
8.632,0.009
8.633,0.006
8.634,0.008
8.635,0.006
8.636,0.002
8.637,0.003
8.638,-0.001
8.639,-0.006
8.640,-0.006
8.641,-0.009
8.642,-0.008
8.643,-0.009
8.644,-0.012
8.645,-0.012
8.646,-0.011
8.647,-0.012
8.648,-0.017
8.649,-0.016
8.650,-0.020
8.651,-0.025
8.652,-0.026
8.653,-0.028
8.654,-0.027
8.655,-0.028
8.656,-0.029
8.657,-0.031
8.658,-0.028
8.659,-0.028
8.660,-0.033
8.661,-0.034
8.662,-0.036
8.663,-0.038
8.664,-0.036
8.665,-0.038
8.666,-0.034
8.667,-0.038
8.668,-0.038
8.669,-0.038
8.670,-0.042
8.671,-0.044
8.672,-0.044
8.673,-0.038
8.674,-0.033
8.675,-0.034
8.676,-0.038
8.677,-0.038
8.678,-0.039
8.679,-0.044
8.680,-0.044
8.681,-0.047
8.682,-0.046
8.683,-0.047
8.684,-0.048
8.685,-0.050
8.686,-0.050
8.687,-0.050
8.688,-0.050
8.689,-0.050
8.690,-0.053
8.691,-0.053
8.692,-0.052
8.693,-0.050
8.694,-0.047
8.695,-0.041
8.696,-0.044
8.697,-0.044
8.698,-0.045
8.699,-0.047
8.700,-0.047
8.701,-0.047
8.702,-0.050
8.703,-0.053
8.704,-0.051
8.705,-0.053
8.706,-0.052
8.707,-0.050
8.708,-0.054
8.709,-0.056
8.710,-0.061
8.711,-0.063
8.712,-0.061
8.713,-0.063
8.714,-0.059
8.715,-0.056
8.716,-0.055
8.717,-0.056
8.718,-0.052
8.719,-0.053
8.720,-0.057
8.721,-0.059
8.722,-0.055
8.723,-0.056
8.724,-0.057
8.725,-0.059
8.726,-0.063
8.727,-0.066
8.728,-0.063
8.729,-0.066
8.730,-0.066
8.731,-0.066
8.732,-0.067
8.733,-0.069
8.734,-0.068
8.735,-0.066
8.736,-0.066
8.737,-0.066
8.738,-0.068
8.739,-0.066
8.740,-0.066
8.741,-0.066
8.742,-0.066
8.743,-0.066
8.744,-0.070
8.745,-0.069
8.746,-0.064
8.747,-0.066
8.748,-0.064
8.749,-0.063
8.750,-0.056
8.751,-0.053
8.752,-0.056
8.753,-0.056
8.754,-0.057
8.755,-0.059
8.756,-0.059
8.757,-0.063
8.758,-0.063
8.759,-0.066
8.760,-0.064
8.761,-0.066
8.762,-0.070
8.763,-0.069
8.764,-0.064
8.765,-0.066
8.766,-0.069
8.767,-0.069
8.768,-0.070
8.769,-0.072
8.770,-0.073
8.771,-0.072
8.772,-0.074
8.773,-0.072
8.774,-0.070
8.775,-0.075
8.776,-0.075
8.777,-0.075
8.778,-0.077
8.779,-0.072
8.780,-0.072
8.781,-0.072
8.782,-0.073
8.783,-0.075
8.784,-0.074
8.785,-0.072
8.786,-0.071
8.787,-0.072
8.788,-0.073
8.789,-0.075
8.790,-0.075
8.791,-0.081
8.792,-0.080
8.793,-0.078
8.794,-0.075
8.795,-0.072
8.796,-0.075
8.797,-0.075
8.798,-0.072
8.799,-0.078
8.800,-0.079
8.801,-0.078
8.802,-0.078
8.803,-0.078
8.804,-0.078
8.805,-0.078
8.806,-0.075
8.807,-0.078
8.808,-0.081
8.809,-0.084
8.810,-0.084
8.811,-0.084
8.812,-0.083
8.813,-0.075
8.814,-0.074
8.815,-0.072
8.816,-0.069
8.817,-0.069
8.818,-0.072
8.819,-0.072
8.820,-0.076
8.821,-0.081
8.822,-0.080
8.823,-0.078
8.824,-0.078
8.825,-0.081
8.826,-0.083
8.827,-0.084
8.828,-0.083
8.829,-0.081
8.830,-0.078
8.831,-0.081
8.832,-0.083
8.833,-0.084
8.834,-0.081
8.835,-0.084
8.836,-0.081
8.837,-0.078
8.838,-0.078
8.839,-0.078
8.840,-0.078
8.841,-0.081
8.842,-0.083
8.843,-0.081
8.844,-0.083
8.845,-0.081
8.846,-0.083
8.847,-0.087
8.848,-0.086
8.849,-0.087
8.850,-0.084
8.851,-0.081
8.852,-0.077
8.853,-0.075
8.854,-0.075
8.855,-0.078
8.856,-0.081
8.857,-0.084
8.858,-0.083
8.859,-0.084
8.860,-0.087
8.861,-0.087
8.862,-0.081
8.863,-0.081
8.864,-0.080
8.865,-0.078
8.866,-0.080
8.867,-0.078
8.868,-0.081
8.869,-0.084
8.870,-0.086
8.871,-0.087
8.872,-0.084
8.873,-0.084
8.874,-0.089
8.875,-0.087
8.876,-0.087
8.877,-0.087
8.878,-0.086
8.879,-0.087
8.880,-0.086
8.881,-0.084
8.882,-0.084
8.883,-0.084
8.884,-0.084
8.885,-0.084
8.886,-0.084
8.887,-0.084
8.888,-0.084
8.889,-0.084
8.890,-0.084
8.891,-0.084
8.892,-0.084
8.893,-0.084
8.894,-0.084
8.895,-0.084
8.896,-0.086
8.897,-0.087
8.898,-0.083
8.899,-0.084
8.900,-0.084
8.901,-0.084
8.902,-0.086
8.903,-0.087
8.904,-0.087
8.905,-0.087
8.906,-0.084
8.907,-0.087
8.908,-0.087
8.909,-0.087
8.910,-0.084
8.911,-0.081
8.912,-0.083
8.913,-0.084
8.914,-0.083
8.915,-0.084
8.916,-0.087
8.917,-0.087
8.918,-0.086
8.919,-0.084
8.920,-0.089
8.921,-0.087
8.922,-0.086
8.923,-0.087
8.924,-0.086
8.925,-0.087
8.926,-0.089
8.927,-0.091
8.928,-0.081
8.929,-0.078
8.930,-0.083
8.931,-0.081
8.932,-0.080
8.933,-0.081
8.934,-0.084
8.935,-0.081
8.936,-0.079
8.937,-0.081
8.938,-0.081
8.939,-0.081
8.940,-0.080
8.941,-0.078
8.942,-0.081
8.943,-0.084
8.944,-0.081
8.945,-0.084
8.946,-0.086
8.947,-0.087
8.948,-0.087
8.949,-0.087
8.950,-0.086
8.951,-0.084
8.952,-0.083
8.953,-0.084
8.954,-0.086
8.955,-0.084
8.956,-0.083
8.957,-0.081
8.958,-0.086
8.959,-0.084
8.960,-0.083
8.961,-0.084
8.962,-0.083
8.963,-0.081
8.964,-0.087
8.965,-0.087
8.966,-0.087
8.967,-0.087
8.968,-0.087
8.969,-0.087
8.970,-0.089
8.971,-0.091
8.972,-0.086
8.973,-0.087
8.974,-0.087
8.975,-0.087
8.976,-0.086
8.977,-0.087
8.978,-0.086
8.979,-0.087
8.980,-0.089
8.981,-0.087
8.982,-0.089
8.983,-0.087
8.984,-0.083
8.985,-0.081
8.986,-0.084
8.987,-0.084
8.988,-0.084
8.989,-0.084
8.990,-0.086
8.991,-0.087
8.992,-0.084
8.993,-0.087
8.994,-0.087
8.995,-0.087
8.996,-0.087
8.997,-0.087
8.998,-0.095
8.999,-0.094
9.000,-0.089
9.001,-0.087
9.002,-0.084
9.003,-0.087
9.004,-0.092
9.005,-0.087
9.006,-0.087
9.007,-0.084
9.008,-0.084
9.009,-0.087
9.010,-0.089
9.011,-0.091
9.012,-0.083
9.013,-0.087
9.014,-0.089
9.015,-0.087
9.016,-0.086
9.017,-0.084
9.018,-0.084
9.019,-0.084
9.020,-0.084
9.021,-0.084
9.022,-0.083
9.023,-0.081
9.024,-0.081
9.025,-0.081
9.026,-0.084
9.027,-0.081
9.028,-0.077
9.029,-0.078
9.030,-0.086
9.031,-0.087
9.032,-0.086
9.033,-0.084
9.034,-0.087
9.035,-0.087
9.036,-0.087
9.037,-0.087
9.038,-0.086
9.039,-0.081
9.040,-0.078
9.041,-0.081
9.042,-0.081
9.043,-0.081
9.044,-0.077
9.045,-0.075
9.046,-0.076
9.047,-0.078
9.048,-0.079
9.049,-0.081
9.050,-0.081
9.051,-0.075
9.052,-0.074
9.053,-0.075
9.054,-0.078
9.055,-0.081
9.056,-0.083
9.057,-0.084
9.058,-0.083
9.059,-0.081
9.060,-0.081
9.061,-0.081
9.062,-0.079
9.063,-0.081
9.064,-0.078
9.065,-0.075
9.066,-0.078
9.067,-0.075
9.068,-0.078
9.069,-0.078
9.070,-0.078
9.071,-0.078
9.072,-0.075
9.073,-0.075
9.074,-0.078
9.075,-0.081
9.076,-0.080
9.077,-0.078
9.078,-0.081
9.079,-0.075
9.080,-0.073
9.081,-0.075
9.082,-0.078
9.083,-0.075
9.084,-0.075
9.085,-0.075
9.086,-0.075
9.087,-0.075
9.088,-0.074
9.089,-0.075
9.090,-0.076
9.091,-0.078
9.092,-0.079
9.093,-0.081
9.094,-0.083
9.095,-0.075
9.096,-0.075
9.097,-0.075
9.098,-0.077
9.099,-0.075
9.100,-0.075
9.101,-0.075
9.102,-0.079
9.103,-0.081
9.104,-0.086
9.105,-0.084
9.106,-0.083
9.107,-0.081
9.108,-0.081
9.109,-0.081
9.110,-0.083
9.111,-0.084
9.112,-0.083
9.113,-0.081
9.114,-0.081
9.115,-0.078
9.116,-0.077
9.117,-0.072
9.118,-0.073
9.119,-0.072
9.120,-0.075
9.121,-0.078
9.122,-0.072
9.123,-0.069
9.124,-0.061
9.125,-0.053
9.126,-0.048
9.127,-0.047
9.128,-0.036
9.129,-0.034
9.130,-0.033
9.131,-0.031
9.132,-0.031
9.133,-0.028
9.134,-0.028
9.135,-0.028
9.136,-0.029
9.137,-0.028
9.138,-0.028
9.139,-0.028
9.140,-0.028
9.141,-0.028
9.142,-0.031
9.143,-0.031
9.144,-0.031
9.145,-0.031
9.146,-0.031
9.147,-0.031
9.148,-0.030
9.149,-0.012
9.150,0.004
9.151,0.019
9.152,0.031
9.153,0.044
9.154,0.069
9.155,0.084
9.156,0.101
9.157,0.106
9.158,0.114
9.159,0.113
9.160,0.109
9.161,0.106
9.162,0.106
9.163,0.106
9.164,0.103
9.165,0.103
9.166,0.097
9.167,0.097
9.168,0.098
9.169,0.097
9.170,0.100
9.171,0.097
9.172,0.095
9.173,0.091
9.174,0.072
9.175,0.066
9.176,0.067
9.177,0.066
9.178,0.066
9.179,0.059
9.180,0.052
9.181,0.044
9.182,0.034
9.183,0.034
9.184,0.027
9.185,0.028
9.186,0.036
9.187,0.041
9.188,0.042
9.189,0.041
9.190,0.036
9.191,0.034
9.192,0.027
9.193,0.028
9.194,0.031
9.195,0.034
9.196,0.041
9.197,0.038
9.198,0.033
9.199,0.025
9.200,0.016
9.201,0.012
9.202,0.000
9.203,-0.009
9.204,-0.019
9.205,-0.025
9.206,-0.030
9.207,-0.031
9.208,-0.034
9.209,-0.041
9.210,-0.044
9.211,-0.047
9.212,-0.051
9.213,-0.056
9.214,-0.063
9.215,-0.066
9.216,-0.069
9.217,-0.066
9.218,-0.069
9.219,-0.069
9.220,-0.070
9.221,-0.072
9.222,-0.071
9.223,-0.072
9.224,-0.072
9.225,-0.075
9.226,-0.079
9.227,-0.081
9.228,-0.081
9.229,-0.081
9.230,-0.080
9.231,-0.078
9.232,-0.083
9.233,-0.084
9.234,-0.084
9.235,-0.084
9.236,-0.086
9.237,-0.084
9.238,-0.084
9.239,-0.081
9.240,-0.081
9.241,-0.084
9.242,-0.083
9.243,-0.087
9.244,-0.091
9.245,-0.091
9.246,-0.091
9.247,-0.097
9.248,-0.098
9.249,-0.100
9.250,-0.096
9.251,-0.091
9.252,-0.089
9.253,-0.087
9.254,-0.092
9.255,-0.094
9.256,-0.097
9.257,-0.100
9.258,-0.099
9.259,-0.100
9.260,-0.098
9.261,-0.100
9.262,-0.101
9.263,-0.103
9.264,-0.100
9.265,-0.097
9.266,-0.097
9.267,-0.097
9.268,-0.097
9.269,-0.097
9.270,-0.097
9.271,-0.097
9.272,-0.096
9.273,-0.091
9.274,-0.092
9.275,-0.091
9.276,-0.092
9.277,-0.091
9.278,-0.089
9.279,-0.087
9.280,-0.086
9.281,-0.087
9.282,-0.092
9.283,-0.100
9.284,-0.099
9.285,-0.103
9.286,-0.114
9.287,-0.122
9.288,-0.125
9.289,-0.116
9.290,-0.104
9.291,-0.094
9.292,-0.083
9.293,-0.066
9.294,-0.045
9.295,-0.019
9.296,0.003
9.297,0.009
9.298,0.021
9.299,0.038
9.300,0.058
9.301,0.081
9.302,0.103
9.303,0.144
9.304,0.189
9.305,0.247
9.306,0.325
9.307,0.400
9.308,0.459
9.309,0.519
9.310,0.588
9.311,0.659
9.312,0.739
9.313,0.772
9.314,0.778
9.315,0.806
9.316,0.845
9.317,0.925
9.318,1.031
9.319,1.097
9.320,1.148
9.321,1.128
9.322,1.062
9.323,0.950
9.324,0.809
9.325,0.666
9.326,0.534
9.327,0.459
9.328,0.372
9.329,0.297
9.330,0.231
9.331,0.181
9.332,0.139
9.333,0.100
9.334,0.070
9.335,0.047
9.336,0.014
9.337,-0.006
9.338,-0.022
9.339,-0.022
9.340,-0.016
9.341,-0.012
9.342,-0.007
9.343,-0.006
9.344,-0.014
9.345,-0.012
9.346,-0.006
9.347,-0.009
9.348,0.017
9.349,0.038
9.350,0.067
9.351,0.091
9.352,0.092
9.353,0.084
9.354,0.071
9.355,0.056
9.356,0.046
9.357,0.034
9.358,0.027
9.359,0.016
9.360,0.009
9.361,0.006
9.362,-0.003
9.363,-0.016
9.364,-0.021
9.365,-0.019
9.366,-0.022
9.367,-0.022
9.368,-0.022
9.369,-0.022
9.370,-0.021
9.371,-0.022
9.372,-0.025
9.373,-0.025
9.374,-0.029
9.375,-0.031
9.376,-0.031
9.377,-0.038
9.378,-0.039
9.379,-0.038
9.380,-0.042
9.381,-0.044
9.382,-0.045
9.383,-0.047
9.384,-0.049
9.385,-0.044
9.386,-0.047
9.387,-0.047
9.388,-0.046
9.389,-0.047
9.390,-0.044
9.391,-0.041
9.392,-0.044
9.393,-0.044
9.394,-0.048
9.395,-0.047
9.396,-0.047
9.397,-0.047
9.398,-0.047
9.399,-0.047
9.400,-0.047
9.401,-0.047
9.402,-0.048
9.403,-0.050
9.404,-0.050
9.405,-0.050
9.406,-0.046
9.407,-0.044
9.408,-0.042
9.409,-0.044
9.410,-0.042
9.411,-0.044
9.412,-0.044
9.413,-0.044
9.414,-0.047
9.415,-0.047
9.416,-0.045
9.417,-0.047
9.418,-0.046
9.419,-0.044
9.420,-0.044
9.421,-0.041
9.422,-0.039
9.423,-0.038
9.424,-0.041
9.425,-0.038
9.426,-0.038
9.427,-0.038
9.428,-0.034
9.429,-0.031
9.430,-0.033
9.431,-0.034
9.432,-0.031
9.433,-0.031
9.434,-0.033
9.435,-0.031
9.436,-0.034
9.437,-0.034
9.438,-0.034
9.439,-0.034
9.440,-0.036
9.441,-0.038
9.442,-0.039
9.443,-0.038
9.444,-0.038
9.445,-0.034
9.446,-0.033
9.447,-0.034
9.448,-0.036
9.449,-0.034
9.450,-0.033
9.451,-0.031
9.452,-0.031
9.453,-0.031
9.454,-0.033
9.455,-0.034
9.456,-0.033
9.457,-0.031
9.458,-0.028
9.459,-0.028
9.460,-0.028
9.461,-0.028
9.462,-0.028
9.463,-0.028
9.464,-0.028
9.465,-0.028
9.466,-0.024
9.467,-0.022
9.468,-0.022
9.469,-0.025
9.470,-0.025
9.471,-0.025
9.472,-0.024
9.473,-0.022
