'Elapsed time','II'
'seconds','mV'
0.000,-0.049
0.001,-0.047
0.002,-0.048
0.003,-0.050
0.004,-0.048
0.005,-0.050
0.006,-0.050
0.007,-0.053
0.008,-0.051
0.009,-0.053
0.010,-0.054
0.011,-0.053
0.012,-0.054
0.013,-0.059
0.014,-0.058
0.015,-0.056
0.016,-0.056
0.017,-0.056
0.018,-0.056
0.019,-0.056
0.020,-0.053
0.021,-0.056
0.022,-0.056
0.023,-0.056
0.024,-0.056
0.025,-0.056
0.026,-0.052
0.027,-0.053
0.028,-0.054
0.029,-0.056
0.030,-0.056
0.031,-0.056
0.032,-0.056
0.033,-0.056
0.034,-0.055
0.035,-0.056
0.036,-0.054
0.037,-0.056
0.038,-0.061
0.039,-0.059
0.040,-0.055
0.041,-0.053
0.042,-0.058
0.043,-0.056
0.044,-0.053
0.045,-0.053
0.046,-0.054
0.047,-0.056
0.048,-0.059
0.049,-0.056
0.050,-0.055
0.051,-0.053
0.052,-0.056
0.053,-0.056
0.054,-0.053
0.055,-0.053
0.056,-0.058
0.057,-0.059
0.058,-0.061
0.059,-0.063
0.060,-0.061
0.061,-0.056
0.062,-0.058
0.063,-0.059
0.064,-0.058
0.065,-0.059
0.066,-0.056
0.067,-0.056
0.068,-0.056
0.069,-0.056
0.070,-0.059
0.071,-0.059
0.072,-0.056
0.073,-0.056
0.074,-0.055
0.075,-0.053
0.076,-0.056
0.077,-0.056
0.078,-0.058
0.079,-0.053
0.080,-0.050
0.081,-0.053
0.082,-0.058
0.083,-0.059
0.084,-0.059
0.085,-0.059
0.086,-0.063
0.087,-0.059
0.088,-0.063
0.089,-0.063
0.090,-0.061
0.091,-0.059
0.092,-0.056
0.093,-0.056
0.094,-0.058
0.095,-0.059
0.096,-0.061
0.097,-0.063
0.098,-0.059
0.099,-0.056
0.100,-0.058
0.101,-0.059
0.102,-0.059
0.103,-0.056
0.104,-0.059
0.105,-0.059
0.106,-0.058
0.107,-0.056
0.108,-0.056
0.109,-0.056
0.110,-0.056
0.111,-0.056
0.112,-0.056
0.113,-0.059
0.114,-0.061
0.115,-0.063
0.116,-0.058
0.117,-0.056
0.118,-0.056
0.119,-0.056
0.120,-0.053
0.121,-0.056
0.122,-0.059
0.123,-0.059
0.124,-0.058
0.125,-0.059
0.126,-0.055
0.127,-0.053
0.128,-0.059
0.129,-0.059
0.130,-0.056
0.131,-0.056
0.132,-0.056
0.133,-0.056
0.134,-0.055
0.135,-0.053
0.136,-0.061
0.137,-0.059
0.138,-0.064
0.139,-0.066
0.140,-0.058
0.141,-0.059
0.142,-0.058
0.143,-0.056
0.144,-0.055
0.145,-0.056
0.146,-0.054
0.147,-0.056
0.148,-0.054
0.149,-0.056
0.150,-0.055
0.151,-0.056
0.152,-0.058
0.153,-0.059
0.154,-0.059
0.155,-0.059
0.156,-0.059
0.157,-0.059
0.158,-0.059
0.159,-0.059
0.160,-0.056
0.161,-0.056
0.162,-0.055
0.163,-0.056
0.164,-0.058
0.165,-0.056
0.166,-0.058
0.167,-0.056
0.168,-0.056
0.169,-0.053
0.170,-0.053
0.171,-0.053
0.172,-0.056
0.173,-0.056
0.174,-0.058
0.175,-0.059
0.176,-0.055
0.177,-0.056
0.178,-0.056
0.179,-0.056
0.180,-0.059
0.181,-0.056
0.182,-0.058
0.183,-0.056
0.184,-0.055
0.185,-0.053
0.186,-0.056
0.187,-0.056
0.188,-0.059
0.189,-0.056
0.190,-0.056
0.191,-0.053
0.192,-0.054
0.193,-0.056
0.194,-0.056
0.195,-0.056
0.196,-0.055
0.197,-0.056
0.198,-0.054
0.199,-0.056
0.200,-0.055
0.201,-0.056
0.202,-0.058
0.203,-0.059
0.204,-0.058
0.205,-0.056
0.206,-0.058
0.207,-0.059
0.208,-0.059
0.209,-0.059
0.210,-0.055
0.211,-0.056
0.212,-0.054
0.213,-0.056
0.214,-0.059
0.215,-0.059
0.216,-0.056
0.217,-0.056
0.218,-0.055
0.219,-0.056
0.220,-0.054
0.221,-0.056
0.222,-0.056
0.223,-0.056
0.224,-0.058
0.225,-0.059
0.226,-0.058
0.227,-0.059
0.228,-0.059
0.229,-0.059
0.230,-0.056
0.231,-0.056
0.232,-0.061
0.233,-0.059
0.234,-0.056
0.235,-0.053
0.236,-0.053
0.237,-0.053
0.238,-0.054
0.239,-0.056
0.240,-0.056
0.241,-0.056
0.242,-0.056
0.243,-0.056
0.244,-0.056
0.245,-0.056
0.246,-0.056
0.247,-0.056
0.248,-0.056
0.249,-0.056
0.250,-0.056
0.251,-0.053
0.252,-0.051
0.253,-0.053
0.254,-0.054
0.255,-0.053
0.256,-0.049
0.257,-0.044
0.258,-0.038
0.259,-0.031
0.260,-0.022
0.261,-0.022
0.262,-0.020
0.263,-0.019
0.264,-0.016
0.265,-0.016
0.266,-0.013
0.267,-0.013
0.268,-0.013
0.269,-0.013
0.270,-0.008
0.271,-0.006
0.272,-0.002
0.273,0.000
0.274,0.002
0.275,-0.003
0.276,-0.008
0.277,-0.013
0.278,-0.009
0.279,-0.009
0.280,-0.002
0.281,0.009
0.282,0.016
0.283,0.031
0.284,0.046
0.285,0.059
0.286,0.079
0.287,0.100
0.288,0.116
0.289,0.128
0.290,0.134
0.291,0.131
0.292,0.131
0.293,0.128
0.294,0.122
0.295,0.122
0.296,0.119
0.297,0.116
0.298,0.119
0.299,0.119
0.300,0.120
0.301,0.116
0.302,0.109
0.303,0.103
0.304,0.097
0.305,0.087
0.306,0.078
0.307,0.075
0.308,0.076
0.309,0.078
0.310,0.078
0.311,0.078
0.312,0.071
0.313,0.059
0.314,0.055
0.315,0.050
0.316,0.053
0.317,0.053
0.318,0.054
0.319,0.059
0.320,0.058
0.321,0.053
0.322,0.050
0.323,0.047
0.324,0.044
0.325,0.044
0.326,0.051
0.327,0.056
0.328,0.054
0.329,0.053
0.330,0.044
0.331,0.028
0.332,0.020
0.333,0.016
0.334,0.007
0.335,0.000
0.336,-0.008
0.337,-0.009
0.338,-0.013
0.339,-0.013
0.340,-0.016
0.341,-0.019
0.342,-0.023
0.343,-0.031
0.344,-0.033
0.345,-0.034
0.346,-0.041
0.347,-0.047
0.348,-0.046
0.349,-0.044
0.350,-0.044
0.351,-0.044
0.352,-0.050
0.353,-0.056
0.354,-0.061
0.355,-0.063
0.356,-0.061
0.357,-0.059
0.358,-0.064
0.359,-0.063
0.360,-0.068
0.361,-0.066
0.362,-0.068
0.363,-0.063
0.364,-0.059
0.365,-0.063
0.366,-0.061
0.367,-0.059
0.368,-0.064
0.369,-0.066
0.370,-0.066
0.371,-0.069
0.372,-0.069
0.373,-0.069
0.374,-0.072
0.375,-0.072
0.376,-0.076
0.377,-0.078
0.378,-0.077
0.379,-0.078
0.380,-0.077
0.381,-0.075
0.382,-0.073
0.383,-0.075
0.384,-0.079
0.385,-0.081
0.386,-0.081
0.387,-0.081
0.388,-0.078
0.389,-0.075
0.390,-0.076
0.391,-0.081
0.392,-0.079
0.393,-0.081
0.394,-0.080
0.395,-0.078
0.396,-0.078
0.397,-0.078
0.398,-0.079
0.399,-0.081
0.400,-0.078
0.401,-0.078
0.402,-0.079
0.403,-0.078
0.404,-0.078
0.405,-0.078
0.406,-0.074
0.407,-0.072
0.408,-0.073
0.409,-0.072
0.410,-0.073
0.411,-0.075
0.412,-0.072
0.413,-0.075
0.414,-0.071
0.415,-0.072
0.416,-0.074
0.417,-0.078
0.418,-0.088
0.419,-0.094
0.420,-0.104
0.421,-0.103
0.422,-0.095
0.423,-0.088
0.424,-0.078
0.425,-0.066
0.426,-0.047
0.427,-0.019
0.428,0.012
0.429,0.028
0.430,0.034
0.431,0.047
0.432,0.055
0.433,0.081
0.434,0.100
0.435,0.144
0.436,0.183
0.437,0.247
0.438,0.314
0.439,0.381
0.440,0.442
0.441,0.494
0.442,0.544
0.443,0.616
0.444,0.679
0.445,0.703
0.446,0.725
0.447,0.759
0.448,0.807
0.449,0.894
0.450,0.966
0.451,1.022
0.452,1.037
0.453,0.991
0.454,0.931
0.455,0.806
0.456,0.677
0.457,0.556
0.458,0.431
0.459,0.356
0.460,0.278
0.461,0.216
0.462,0.169
0.463,0.134
0.464,0.105
0.465,0.078
0.466,0.057
0.467,0.034
0.468,0.012
0.469,0.009
0.470,0.012
0.471,0.016
0.472,0.025
0.473,0.031
0.474,0.038
0.475,0.047
0.476,0.061
0.477,0.078
0.478,0.095
0.479,0.097
0.480,0.101
0.481,0.109
0.482,0.117
0.483,0.113
0.484,0.102
0.485,0.084
0.486,0.078
0.487,0.075
0.488,0.066
0.489,0.059
0.490,0.047
0.491,0.038
0.492,0.032
0.493,0.025
0.494,0.017
0.495,0.012
0.496,0.006
0.497,0.003
0.498,0.002
0.499,0.003
0.500,0.004
0.501,0.003
0.502,0.002
0.503,0.000
0.504,-0.004
0.505,-0.006
0.506,-0.009
0.507,-0.013
0.508,-0.014
0.509,-0.016
0.510,-0.017
0.511,-0.022
0.512,-0.023
0.513,-0.025
0.514,-0.028
0.515,-0.028
0.516,-0.025
0.517,-0.019
0.518,-0.020
0.519,-0.022
0.520,-0.021
0.521,-0.022
0.522,-0.019
0.523,-0.019
0.524,-0.023
0.525,-0.025
0.526,-0.031
0.527,-0.031
0.528,-0.032
0.529,-0.034
0.530,-0.029
0.531,-0.034
0.532,-0.034
0.533,-0.034
0.534,-0.034
0.535,-0.034
0.536,-0.034
0.537,-0.034
0.538,-0.034
0.539,-0.031
0.540,-0.034
0.541,-0.034
0.542,-0.032
0.543,-0.034
0.544,-0.030
0.545,-0.025
0.546,-0.025
0.547,-0.025
0.548,-0.026
0.549,-0.025
0.550,-0.024
0.551,-0.025
0.552,-0.028
0.553,-0.028
0.554,-0.031
0.555,-0.028
0.556,-0.029
0.557,-0.031
0.558,-0.031
0.559,-0.034
0.560,-0.032
0.561,-0.034
0.562,-0.036
0.563,-0.034
0.564,-0.036
0.565,-0.031
0.566,-0.027
0.567,-0.022
0.568,-0.020
0.569,-0.022
0.570,-0.020
0.571,-0.022
0.572,-0.023
0.573,-0.025
0.574,-0.024
0.575,-0.022
0.576,-0.023
0.577,-0.025
0.578,-0.024
0.579,-0.025
0.580,-0.025
0.581,-0.025
0.582,-0.026
0.583,-0.028
0.584,-0.028
0.585,-0.028
0.586,-0.029
0.587,-0.031
0.588,-0.022
0.589,-0.016
0.590,-0.016
0.591,-0.016
0.592,-0.016
0.593,-0.016
0.594,-0.016
0.595,-0.016
0.596,-0.017
0.597,-0.019
0.598,-0.019
0.599,-0.019
0.600,-0.019
0.601,-0.019
0.602,-0.016
0.603,-0.016
0.604,-0.016
0.605,-0.016
0.606,-0.016
0.607,-0.016
0.608,-0.014
0.609,-0.013
0.610,-0.013
0.611,-0.013
0.612,-0.013
0.613,-0.013
0.614,-0.014
0.615,-0.013
0.616,-0.013
0.617,-0.013
0.618,-0.013
0.619,-0.013
0.620,-0.014
0.621,-0.016
0.622,-0.014
0.623,-0.013
0.624,-0.009
0.625,-0.013
0.626,-0.011
0.627,-0.009
0.628,-0.009
0.629,-0.009
0.630,-0.009
0.631,-0.009
0.632,-0.011
0.633,-0.009
0.634,-0.009
0.635,-0.009
0.636,-0.011
0.637,-0.006
0.638,-0.006
0.639,-0.003
0.640,-0.003
0.641,-0.006
0.642,-0.011
0.643,-0.009
0.644,-0.005
0.645,0.000
0.646,0.000
0.647,-0.003
0.648,-0.003
0.649,-0.006
0.650,-0.009
0.651,-0.013
0.652,-0.011
0.653,-0.006
0.654,-0.002
0.655,0.003
0.656,0.002
0.657,0.003
0.658,0.003
0.659,0.003
0.660,0.003
0.661,0.000
0.662,0.003
0.663,0.000
0.664,-0.001
0.665,0.000
0.666,-0.001
0.667,-0.006
0.668,-0.003
0.669,-0.003
0.670,-0.003
0.671,-0.003
0.672,-0.001
0.673,0.000
0.674,0.003
0.675,0.003
0.676,0.003
0.677,0.009
0.678,0.011
0.679,0.009
0.680,0.008
0.681,0.006
0.682,0.006
0.683,0.009
0.684,0.006
0.685,0.006
0.686,0.006
0.687,0.009
0.688,0.006
0.689,0.006
0.690,0.011
0.691,0.012
0.692,0.011
0.693,0.012
0.694,0.012
0.695,0.012
0.696,0.011
0.697,0.009
0.698,0.006
0.699,0.009
0.700,0.006
0.701,0.003
0.702,0.002
0.703,0.000
0.704,-0.002
0.705,0.000
0.706,0.004
0.707,0.003
0.708,0.005
0.709,0.003
0.710,0.004
0.711,0.006
0.712,0.006
0.713,0.009
0.714,0.011
0.715,0.012
0.716,0.017
0.717,0.022
0.718,0.017
0.719,0.016
0.720,0.014
0.721,0.012
0.722,0.011
0.723,0.009
0.724,0.008
0.725,0.006
0.726,0.006
0.727,0.006
0.728,0.007
0.729,0.009
0.730,0.008
0.731,0.009
0.732,0.011
0.733,0.012
0.734,0.016
0.735,0.019
0.736,0.014
0.737,0.009
0.738,0.008
0.739,0.006
0.740,0.000
0.741,-0.003
0.742,-0.003
0.743,-0.003
0.744,0.003
0.745,0.006
0.746,0.004
0.747,0.009
0.748,0.009
0.749,0.009
0.750,0.014
0.751,0.016
0.752,0.014
0.753,0.016
0.754,0.017
0.755,0.016
0.756,0.017
0.757,0.019
0.758,0.019
0.759,0.019
0.760,0.022
0.761,0.025
0.762,0.019
0.763,0.019
0.764,0.019
0.765,0.016
0.766,0.016
0.767,0.016
0.768,0.014
0.769,0.012
0.770,0.011
0.771,0.012
0.772,0.012
0.773,0.009
0.774,0.011
0.775,0.006
0.776,0.008
0.777,0.009
0.778,0.014
0.779,0.019
0.780,0.019
0.781,0.019
0.782,0.019
0.783,0.022
0.784,0.023
0.785,0.025
0.786,0.029
0.787,0.031
0.788,0.031
0.789,0.031
0.790,0.030
0.791,0.031
0.792,0.031
0.793,0.031
0.794,0.034
0.795,0.038
0.796,0.034
0.797,0.028
0.798,0.027
0.799,0.028
0.800,0.036
0.801,0.041
0.802,0.041
0.803,0.044
0.804,0.048
0.805,0.056
0.806,0.059
0.807,0.059
0.808,0.059
0.809,0.062
0.810,0.062
0.811,0.066
0.812,0.072
0.813,0.072
0.814,0.069
0.815,0.072
0.816,0.071
0.817,0.069
0.818,0.069
0.819,0.069
0.820,0.066
0.821,0.066
0.822,0.070
0.823,0.072
0.824,0.076
0.825,0.078
0.826,0.080
0.827,0.078
0.828,0.082
0.829,0.084
0.830,0.086
0.831,0.084
0.832,0.086
0.833,0.094
0.834,0.100
0.835,0.109
0.836,0.106
0.837,0.106
0.838,0.111
0.839,0.116
0.840,0.114
0.841,0.116
0.842,0.118
0.843,0.119
0.844,0.121
0.845,0.122
0.846,0.123
0.847,0.128
0.848,0.131
0.849,0.128
0.850,0.127
0.851,0.122
0.852,0.121
0.853,0.122
0.854,0.122
0.855,0.125
0.856,0.123
0.857,0.128
0.858,0.130
0.859,0.128
0.860,0.128
0.861,0.125
0.862,0.122
0.863,0.122
0.864,0.125
0.865,0.125
0.866,0.125
0.867,0.125
0.868,0.122
0.869,0.128
0.870,0.129
0.871,0.128
0.872,0.121
0.873,0.119
0.874,0.113
0.875,0.103
0.876,0.111
0.877,0.106
0.878,0.106
0.879,0.106
0.880,0.109
0.881,0.106
0.882,0.106
0.883,0.103
0.884,0.104
0.885,0.103
0.886,0.096
0.887,0.094
0.888,0.094
0.889,0.087
0.890,0.087
0.891,0.084
0.892,0.082
0.893,0.081
0.894,0.077
0.895,0.075
0.896,0.075
0.897,0.069
0.898,0.067
0.899,0.069
0.900,0.067
0.901,0.059
0.902,0.058
0.903,0.053
0.904,0.053
0.905,0.053
0.906,0.050
0.907,0.047
0.908,0.048
0.909,0.044
0.910,0.045
0.911,0.044
0.912,0.041
0.913,0.034
0.914,0.032
0.915,0.034
0.916,0.032
0.917,0.034
0.918,0.031
0.919,0.031
0.920,0.025
0.921,0.019
0.922,0.019
0.923,0.016
0.924,0.016
0.925,0.009
0.926,0.009
0.927,0.009
0.928,0.009
0.929,0.012
0.930,0.011
0.931,0.009
0.932,0.009
0.933,0.009
0.934,0.005
0.935,0.006
0.936,0.003
0.937,0.003
0.938,-0.003
0.939,-0.003
0.940,-0.002
0.941,0.000
0.942,-0.003
0.943,-0.003
0.944,-0.003
0.945,-0.006
0.946,-0.008
0.947,-0.009
0.948,-0.009
0.949,-0.013
0.950,-0.014
0.951,-0.019
0.952,-0.019
0.953,-0.025
0.954,-0.022
0.955,-0.019
0.956,-0.019
0.957,-0.022
0.958,-0.025
0.959,-0.025
0.960,-0.026
0.961,-0.028
0.962,-0.027
0.963,-0.028
0.964,-0.028
0.965,-0.028
0.966,-0.028
0.967,-0.028
0.968,-0.028
0.969,-0.028
0.970,-0.030
0.971,-0.028
0.972,-0.031
0.973,-0.031
0.974,-0.027
0.975,-0.028
0.976,-0.029
0.977,-0.031
0.978,-0.031
0.979,-0.028
0.980,-0.031
0.981,-0.031
0.982,-0.030
0.983,-0.028
0.984,-0.029
0.985,-0.031
0.986,-0.031
0.987,-0.034
0.988,-0.031
0.989,-0.031
0.990,-0.032
0.991,-0.031
0.992,-0.030
0.993,-0.028
0.994,-0.031
0.995,-0.028
0.996,-0.029
0.997,-0.034
0.998,-0.034
0.999,-0.038
1.000,-0.031
1.001,-0.034
1.002,-0.038
1.003,-0.038
1.004,-0.034
1.005,-0.038
1.006,-0.041
1.007,-0.041
1.008,-0.041
1.009,-0.041
1.010,-0.039
1.011,-0.041
1.012,-0.041
1.013,-0.041
1.014,-0.041
1.015,-0.041
1.016,-0.036
1.017,-0.038
1.018,-0.041
1.019,-0.041
1.020,-0.045
1.021,-0.047
1.022,-0.046
1.023,-0.047
1.024,-0.047
1.025,-0.047
1.026,-0.051
1.027,-0.050
1.028,-0.053
1.029,-0.053
1.030,-0.053
1.031,-0.053
1.032,-0.053
1.033,-0.050
1.034,-0.050
1.035,-0.050
1.036,-0.047
1.037,-0.050
1.038,-0.052
1.039,-0.050
1.040,-0.053
1.041,-0.053
1.042,-0.051
1.043,-0.053
1.044,-0.052
1.045,-0.050
1.046,-0.050
1.047,-0.053
1.048,-0.051
1.049,-0.053
1.050,-0.052
1.051,-0.050
1.052,-0.054
1.053,-0.056
1.054,-0.056
1.055,-0.056
1.056,-0.053
1.057,-0.053
1.058,-0.056
1.059,-0.053
1.060,-0.056
1.061,-0.053
1.062,-0.053
1.063,-0.056
1.064,-0.054
1.065,-0.059
1.066,-0.059
1.067,-0.063
1.068,-0.063
1.069,-0.063
1.070,-0.061
1.071,-0.063
1.072,-0.061
1.073,-0.063
1.074,-0.061
1.075,-0.059
1.076,-0.061
1.077,-0.063
1.078,-0.059
1.079,-0.056
1.080,-0.054
1.081,-0.056
1.082,-0.064
1.083,-0.063
1.084,-0.063
1.085,-0.063
1.086,-0.061
1.087,-0.063
1.088,-0.059
1.089,-0.063
1.090,-0.061
1.091,-0.059
1.092,-0.058
1.093,-0.059
1.094,-0.059
1.095,-0.059
1.096,-0.059
1.097,-0.059
1.098,-0.064
1.099,-0.063
1.100,-0.061
1.101,-0.059
1.102,-0.063
1.103,-0.063
1.104,-0.064
1.105,-0.066
1.106,-0.067
1.107,-0.069
1.108,-0.064
1.109,-0.066
1.110,-0.063
1.111,-0.059
1.112,-0.061
1.113,-0.063
1.114,-0.064
1.115,-0.066
1.116,-0.066
1.117,-0.066
1.118,-0.066
1.119,-0.066
1.120,-0.067
1.121,-0.069
1.122,-0.068
1.123,-0.066
1.124,-0.066
1.125,-0.069
1.126,-0.066
1.127,-0.066
1.128,-0.066
1.129,-0.066
1.130,-0.067
1.131,-0.069
1.132,-0.069
1.133,-0.069
1.134,-0.070
1.135,-0.072
1.136,-0.069
1.137,-0.072
1.138,-0.069
1.139,-0.066
1.140,-0.066
1.141,-0.066
1.142,-0.066
1.143,-0.066
1.144,-0.069
1.145,-0.072
1.146,-0.073
1.147,-0.078
1.148,-0.077
1.149,-0.075
1.150,-0.074
1.151,-0.075
1.152,-0.072
1.153,-0.072
1.154,-0.077
1.155,-0.075
1.156,-0.071
1.157,-0.069
1.158,-0.073
1.159,-0.072
1.160,-0.070
1.161,-0.072
1.162,-0.072
1.163,-0.072
1.164,-0.075
1.165,-0.072
1.166,-0.071
1.167,-0.069
1.168,-0.072
1.169,-0.072
1.170,-0.070
1.171,-0.072
1.172,-0.072
1.173,-0.069
1.174,-0.069
1.175,-0.069
1.176,-0.070
1.177,-0.069
1.178,-0.069
1.179,-0.069
1.180,-0.067
1.181,-0.069
1.182,-0.067
1.183,-0.069
1.184,-0.070
1.185,-0.072
1.186,-0.075
1.187,-0.075
1.188,-0.073
1.189,-0.075
1.190,-0.074
1.191,-0.072
1.192,-0.074
1.193,-0.072
1.194,-0.076
1.195,-0.075
1.196,-0.071
1.197,-0.072
1.198,-0.073
1.199,-0.072
1.200,-0.071
1.201,-0.069
1.202,-0.073
1.203,-0.072
1.204,-0.075
1.205,-0.075
1.206,-0.075
1.207,-0.075
1.208,-0.073
1.209,-0.075
1.210,-0.074
1.211,-0.072
1.212,-0.072
1.213,-0.072
1.214,-0.072
1.215,-0.072
1.216,-0.076
1.217,-0.081
1.218,-0.083
1.219,-0.081
1.220,-0.083
1.221,-0.081
1.222,-0.078
1.223,-0.075
1.224,-0.076
1.225,-0.078
1.226,-0.078
1.227,-0.078
1.228,-0.077
1.229,-0.078
1.230,-0.078
1.231,-0.078
1.232,-0.076
1.233,-0.078
1.234,-0.078
1.235,-0.078
1.236,-0.077
1.237,-0.081
1.238,-0.083
1.239,-0.081
1.240,-0.080
1.241,-0.081
1.242,-0.079
1.243,-0.081
1.244,-0.083
1.245,-0.078
1.246,-0.076
1.247,-0.078
1.248,-0.079
1.249,-0.081
1.250,-0.080
1.251,-0.078
1.252,-0.084
1.253,-0.081
1.254,-0.081
1.255,-0.078
1.256,-0.071
1.257,-0.072
1.258,-0.072
1.259,-0.072
1.260,-0.072
1.261,-0.075
1.262,-0.073
1.263,-0.075
1.264,-0.072
1.265,-0.072
1.266,-0.075
1.267,-0.081
1.268,-0.081
1.269,-0.081
1.270,-0.081
1.271,-0.081
1.272,-0.078
1.273,-0.075
1.274,-0.076
1.275,-0.078
1.276,-0.074
1.277,-0.072
1.278,-0.071
1.279,-0.072
1.280,-0.072
1.281,-0.069
1.282,-0.072
1.283,-0.072
1.284,-0.073
1.285,-0.072
1.286,-0.072
1.287,-0.072
1.288,-0.075
1.289,-0.075
1.290,-0.075
1.291,-0.075
1.292,-0.072
1.293,-0.075
1.294,-0.074
1.295,-0.072
1.296,-0.078
1.297,-0.078
1.298,-0.081
1.299,-0.081
1.300,-0.077
1.301,-0.072
1.302,-0.075
1.303,-0.075
1.304,-0.079
1.305,-0.078
1.306,-0.077
1.307,-0.072
1.308,-0.072
1.309,-0.072
1.310,-0.072
1.311,-0.072
1.312,-0.072
1.313,-0.075
1.314,-0.072
1.315,-0.072
1.316,-0.071
1.317,-0.072
1.318,-0.072
1.319,-0.072
1.320,-0.072
1.321,-0.072
1.322,-0.072
1.323,-0.072
1.324,-0.075
1.325,-0.078
1.326,-0.075
1.327,-0.078
1.328,-0.075
1.329,-0.075
1.330,-0.078
1.331,-0.078
1.332,-0.074
1.333,-0.072
1.334,-0.072
1.335,-0.075
1.336,-0.073
1.337,-0.075
1.338,-0.074
1.339,-0.072
1.340,-0.072
1.341,-0.072
1.342,-0.072
1.343,-0.075
1.344,-0.076
1.345,-0.078
1.346,-0.074
1.347,-0.072
1.348,-0.078
1.349,-0.078
1.350,-0.077
1.351,-0.075
1.352,-0.076
1.353,-0.078
1.354,-0.077
1.355,-0.075
1.356,-0.075
1.357,-0.075
1.358,-0.074
1.359,-0.072
1.360,-0.072
1.361,-0.072
1.362,-0.073
1.363,-0.075
1.364,-0.075
1.365,-0.075
1.366,-0.076
1.367,-0.075
1.368,-0.072
1.369,-0.072
1.370,-0.073
1.371,-0.072
1.372,-0.073
1.373,-0.075
1.374,-0.073
1.375,-0.072
1.376,-0.055
1.377,-0.047
1.378,-0.041
1.379,-0.034
1.380,-0.031
1.381,-0.031
1.382,-0.028
1.383,-0.028
1.384,-0.028
1.385,-0.028
1.386,-0.026
1.387,-0.028
1.388,-0.028
1.389,-0.031
1.390,-0.028
1.391,-0.031
1.392,-0.031
1.393,-0.031
1.394,-0.027
1.395,-0.025
1.396,-0.026
1.397,-0.025
1.398,-0.028
1.399,-0.022
1.400,-0.013
1.401,-0.003
1.402,0.014
1.403,0.031
1.404,0.054
1.405,0.075
1.406,0.097
1.407,0.109
1.408,0.117
1.409,0.122
1.410,0.114
1.411,0.113
1.412,0.109
1.413,0.106
1.414,0.107
1.415,0.106
1.416,0.109
1.417,0.106
1.418,0.104
1.419,0.103
1.420,0.103
1.421,0.100
1.422,0.092
1.423,0.091
1.424,0.080
1.425,0.069
1.426,0.069
1.427,0.069
1.428,0.069
1.429,0.066
1.430,0.058
1.431,0.050
1.432,0.049
1.433,0.044
1.434,0.039
1.435,0.038
1.436,0.041
1.437,0.041
1.438,0.038
1.439,0.034
1.440,0.030
1.441,0.028
1.442,0.031
1.443,0.031
1.444,0.038
1.445,0.044
1.446,0.047
1.447,0.044
1.448,0.034
1.449,0.028
1.450,0.019
1.451,0.009
1.452,-0.003
1.453,-0.009
1.454,-0.019
1.455,-0.025
1.456,-0.029
1.457,-0.034
1.458,-0.039
1.459,-0.047
1.460,-0.049
1.461,-0.050
1.462,-0.058
1.463,-0.066
1.464,-0.067
1.465,-0.069
1.466,-0.070
1.467,-0.072
1.468,-0.072
1.469,-0.072
1.470,-0.075
1.471,-0.075
1.472,-0.075
1.473,-0.075
1.474,-0.078
1.475,-0.075
1.476,-0.081
1.477,-0.081
1.478,-0.086
1.479,-0.084
1.480,-0.080
1.481,-0.081
1.482,-0.081
1.483,-0.081
1.484,-0.084
1.485,-0.084
1.486,-0.086
1.487,-0.091
1.488,-0.091
1.489,-0.091
1.490,-0.093
1.491,-0.091
1.492,-0.094
1.493,-0.094
1.494,-0.094
1.495,-0.097
1.496,-0.098
1.497,-0.100
1.498,-0.097
1.499,-0.097
1.500,-0.101
1.501,-0.103
1.502,-0.103
1.503,-0.103
1.504,-0.103
1.505,-0.103
1.506,-0.102
1.507,-0.103
1.508,-0.101
1.509,-0.103
1.510,-0.100
1.511,-0.097
1.512,-0.098
1.513,-0.100
1.514,-0.100
1.515,-0.100
1.516,-0.100
1.517,-0.103
1.518,-0.104
1.519,-0.103
1.520,-0.103
1.521,-0.103
1.522,-0.097
1.523,-0.094
1.524,-0.095
1.525,-0.094
1.526,-0.094
1.527,-0.094
1.528,-0.088
1.529,-0.088
1.530,-0.088
1.531,-0.094
1.532,-0.101
1.533,-0.113
1.534,-0.119
1.535,-0.122
1.536,-0.125
1.537,-0.116
1.538,-0.103
1.539,-0.091
1.540,-0.074
1.541,-0.053
1.542,-0.036
1.543,-0.009
1.544,0.020
1.545,0.034
1.546,0.044
1.547,0.059
1.548,0.073
1.549,0.106
1.550,0.131
1.551,0.181
1.552,0.225
1.553,0.294
1.554,0.358
1.555,0.422
1.556,0.489
1.557,0.547
1.558,0.596
1.559,0.666
1.560,0.713
1.561,0.719
1.562,0.742
1.563,0.778
1.564,0.823
1.565,0.906
1.566,0.958
1.567,0.994
1.568,0.983
1.569,0.909
1.570,0.833
1.571,0.691
1.572,0.578
1.573,0.475
1.574,0.362
1.575,0.300
1.576,0.232
1.577,0.181
1.578,0.145
1.579,0.122
1.580,0.091
1.581,0.062
1.582,0.042
1.583,0.019
1.584,0.003
1.585,0.006
1.586,0.009
1.587,0.012
1.588,0.017
1.589,0.019
1.590,0.029
1.591,0.044
1.592,0.055
1.593,0.069
1.594,0.084
1.595,0.084
1.596,0.084
1.597,0.087
1.598,0.095
1.599,0.091
1.600,0.086
1.601,0.075
1.602,0.064
1.603,0.056
1.604,0.048
1.605,0.044
1.606,0.034
1.607,0.028
1.608,0.023
1.609,0.016
1.610,0.009
1.611,0.006
1.612,-0.001
1.613,-0.006
1.614,-0.009
1.615,-0.009
1.616,-0.009
1.617,-0.013
1.618,-0.011
1.619,-0.009
1.620,-0.011
1.621,-0.009
1.622,-0.011
1.623,-0.013
1.624,-0.017
1.625,-0.022
1.626,-0.023
1.627,-0.028
1.628,-0.028
1.629,-0.028
1.630,-0.030
1.631,-0.028
1.632,-0.028
1.633,-0.025
1.634,-0.024
1.635,-0.022
1.636,-0.022
1.637,-0.025
1.638,-0.022
1.639,-0.022
1.640,-0.025
1.641,-0.025
1.642,-0.031
1.643,-0.031
1.644,-0.032
1.645,-0.034
1.646,-0.028
1.647,-0.031
1.648,-0.031
1.649,-0.031
1.650,-0.031
1.651,-0.031
1.652,-0.031
1.653,-0.031
1.654,-0.032
1.655,-0.031
1.656,-0.033
1.657,-0.031
1.658,-0.028
1.659,-0.028
1.660,-0.027
1.661,-0.025
1.662,-0.026
1.663,-0.028
1.664,-0.029
1.665,-0.028
1.666,-0.027
1.667,-0.028
1.668,-0.028
1.669,-0.025
1.670,-0.029
1.671,-0.028
1.672,-0.028
1.673,-0.028
1.674,-0.027
1.675,-0.028
1.676,-0.026
1.677,-0.028
1.678,-0.025
1.679,-0.019
1.680,-0.022
1.681,-0.019
1.682,-0.019
1.683,-0.019
1.684,-0.017
1.685,-0.019
1.686,-0.017
1.687,-0.019
1.688,-0.016
1.689,-0.013
1.690,-0.013
1.691,-0.013
1.692,-0.014
1.693,-0.016
1.694,-0.014
1.695,-0.016
1.696,-0.016
1.697,-0.016
1.698,-0.016
1.699,-0.016
1.700,-0.016
1.701,-0.016
1.702,-0.017
1.703,-0.019
1.704,-0.017
1.705,-0.019
1.706,-0.019
1.707,-0.019
1.708,-0.019
1.709,-0.019
1.710,-0.018
1.711,-0.016
1.712,-0.014
1.713,-0.013
1.714,-0.013
1.715,-0.013
1.716,-0.014
1.717,-0.016
1.718,-0.013
1.719,-0.013
1.720,-0.013
1.721,-0.013
1.722,-0.009
1.723,-0.006
1.724,-0.006
1.725,-0.006
1.726,-0.006
1.727,-0.006
1.728,-0.003
1.729,0.000
1.730,-0.001
1.731,0.000
1.732,0.000
1.733,0.000
1.734,0.000
1.735,0.000
1.736,0.000
1.737,0.000
1.738,0.000
1.739,0.000
1.740,0.003
1.741,0.000
1.742,-0.003
1.743,-0.006
1.744,-0.005
1.745,-0.003
1.746,-0.003
1.747,-0.003
1.748,-0.004
1.749,-0.003
1.750,0.000
1.751,0.003
1.752,0.000
1.753,0.003
1.754,0.002
1.755,0.003
1.756,0.004
1.757,0.003
1.758,0.000
1.759,0.003
1.760,0.005
1.761,0.006
1.762,0.007
1.763,0.006
1.764,0.006
1.765,0.003
1.766,0.003
1.767,0.003
1.768,0.002
1.769,0.003
1.770,0.003
1.771,0.003
1.772,0.002
1.773,0.003
1.774,0.003
1.775,0.003
1.776,0.004
1.777,0.003
1.778,0.009
1.779,0.009
1.780,0.008
1.781,0.009
1.782,0.008
1.783,0.003
1.784,0.006
1.785,0.006
1.786,0.005
1.787,0.003
1.788,0.006
1.789,0.009
1.790,0.009
1.791,0.006
1.792,0.003
1.793,0.006
1.794,0.009
1.795,0.009
1.796,0.009
1.797,0.009
1.798,0.009
1.799,0.012
1.800,0.009
1.801,0.009
1.802,0.008
1.803,0.009
1.804,0.006
1.805,0.006
1.806,0.009
1.807,0.009
1.808,0.006
1.809,0.006
1.810,0.007
1.811,0.009
1.812,0.009
1.813,0.009
1.814,0.006
1.815,0.009
1.816,0.009
1.817,0.009
1.818,0.011
1.819,0.012
1.820,0.008
1.821,0.006
1.822,0.008
1.823,0.003
1.824,0.006
1.825,0.006
1.826,0.007
1.827,0.009
1.828,0.008
1.829,0.009
1.830,0.009
1.831,0.009
1.832,0.009
1.833,0.009
1.834,0.007
1.835,0.009
1.836,0.009
1.837,0.009
1.838,0.009
1.839,0.009
1.840,0.008
1.841,0.006
1.842,0.006
1.843,0.006
1.844,0.007
1.845,0.009
1.846,0.008
1.847,0.009
1.848,0.009
1.849,0.009
1.850,0.009
1.851,0.009
1.852,0.011
1.853,0.012
1.854,0.012
1.855,0.012
1.856,0.011
1.857,0.012
1.858,0.014
1.859,0.016
1.860,0.017
1.861,0.016
1.862,0.011
1.863,0.012
1.864,0.011
1.865,0.009
1.866,0.011
1.867,0.009
1.868,0.009
1.869,0.012
1.870,0.016
1.871,0.016
1.872,0.016
1.873,0.016
1.874,0.016
1.875,0.016
1.876,0.020
1.877,0.025
1.878,0.021
1.879,0.022
1.880,0.025
1.881,0.025
1.882,0.025
1.883,0.025
1.884,0.026
1.885,0.028
1.886,0.025
1.887,0.025
1.888,0.025
1.889,0.022
1.890,0.025
1.891,0.022
1.892,0.025
1.893,0.028
1.894,0.028
1.895,0.028
1.896,0.028
1.897,0.028
1.898,0.028
1.899,0.031
1.900,0.032
1.901,0.034
1.902,0.036
1.903,0.034
1.904,0.038
1.905,0.041
1.906,0.039
1.907,0.041
1.908,0.041
1.909,0.041
1.910,0.042
1.911,0.044
1.912,0.047
1.913,0.047
1.914,0.044
1.915,0.044
1.916,0.047
1.917,0.047
1.918,0.048
1.919,0.053
1.920,0.054
1.921,0.059
1.922,0.062
1.923,0.062
1.924,0.064
1.925,0.069
1.926,0.072
1.927,0.078
1.928,0.084
1.929,0.084
1.930,0.080
1.931,0.081
1.932,0.080
1.933,0.078
1.934,0.081
1.935,0.084
1.936,0.083
1.937,0.084
1.938,0.092
1.939,0.097
1.940,0.100
1.941,0.100
1.942,0.102
1.943,0.100
1.944,0.106
1.945,0.109
1.946,0.111
1.947,0.109
1.948,0.105
1.949,0.106
1.950,0.105
1.951,0.106
1.952,0.107
1.953,0.113
1.954,0.114
1.955,0.116
1.956,0.116
1.957,0.119
1.958,0.121
1.959,0.122
1.960,0.124
1.961,0.125
1.962,0.125
1.963,0.128
1.964,0.131
1.965,0.128
1.966,0.129
1.967,0.128
1.968,0.125
1.969,0.125
1.970,0.124
1.971,0.125
1.972,0.121
1.973,0.122
1.974,0.124
1.975,0.122
1.976,0.123
1.977,0.122
1.978,0.119
1.979,0.119
1.980,0.121
1.981,0.119
1.982,0.118
1.983,0.116
1.984,0.106
1.985,0.106
1.986,0.106
1.987,0.103
1.988,0.098
1.989,0.100
1.990,0.097
1.991,0.091
1.992,0.096
1.993,0.087
1.994,0.086
1.995,0.084
1.996,0.087
1.997,0.084
1.998,0.084
1.999,0.081
2.000,0.084
2.001,0.084
2.002,0.075
2.003,0.072
2.004,0.073
2.005,0.069
2.006,0.070
2.007,0.069
2.008,0.064
2.009,0.059
2.010,0.056
2.011,0.056
2.012,0.057
2.013,0.053
2.014,0.047
2.015,0.044
2.016,0.043
2.017,0.034
2.018,0.036
2.019,0.034
2.020,0.034
2.021,0.034
2.022,0.031
2.023,0.028
2.024,0.029
2.025,0.025
2.026,0.025
2.027,0.022
2.028,0.025
2.029,0.025
2.030,0.017
2.031,0.012
2.032,0.008
2.033,0.006
2.034,0.004
2.035,0.006
2.036,0.004
2.037,0.003
2.038,0.004
2.039,0.003
2.040,0.000
2.041,-0.009
2.042,-0.009
2.043,-0.009
2.044,-0.011
2.045,-0.009
2.046,-0.011
2.047,-0.013
2.048,-0.014
2.049,-0.016
2.050,-0.019
2.051,-0.016
2.052,-0.018
2.053,-0.016
2.054,-0.021
2.055,-0.019
2.056,-0.019
2.057,-0.019
2.058,-0.023
2.059,-0.025
2.060,-0.025
2.061,-0.028
2.062,-0.028
2.063,-0.028
2.064,-0.028
2.065,-0.031
2.066,-0.031
2.067,-0.034
2.068,-0.031
2.069,-0.034
2.070,-0.034
2.071,-0.034
2.072,-0.031
2.073,-0.031
2.074,-0.034
2.075,-0.034
2.076,-0.034
2.077,-0.034
2.078,-0.033
2.079,-0.034
2.080,-0.034
2.081,-0.034
2.082,-0.036
2.083,-0.038
2.084,-0.036
2.085,-0.034
2.086,-0.039
2.087,-0.041
2.088,-0.043
2.089,-0.041
2.090,-0.036
2.091,-0.038
2.092,-0.036
2.093,-0.034
2.094,-0.034
2.095,-0.031
2.096,-0.034
2.097,-0.034
2.098,-0.036
2.099,-0.038
2.100,-0.038
2.101,-0.038
2.102,-0.036
2.103,-0.038
2.104,-0.036
2.105,-0.038
2.106,-0.039
2.107,-0.038
2.108,-0.041
2.109,-0.044
2.110,-0.048
2.111,-0.047
2.112,-0.046
2.113,-0.047
2.114,-0.046
2.115,-0.047
2.116,-0.038
2.117,-0.038
2.118,-0.044
2.119,-0.047
2.120,-0.044
2.121,-0.047
2.122,-0.050
2.123,-0.050
2.124,-0.050
2.125,-0.050
2.126,-0.048
2.127,-0.050
2.128,-0.050
2.129,-0.050
2.130,-0.050
2.131,-0.050
2.132,-0.046
2.133,-0.047
2.134,-0.050
2.135,-0.050
2.136,-0.051
2.137,-0.050
2.138,-0.050
2.139,-0.053
2.140,-0.052
2.141,-0.050
2.142,-0.054
2.143,-0.053
2.144,-0.056
2.145,-0.056
2.146,-0.056
2.147,-0.056
2.148,-0.058
2.149,-0.056
2.150,-0.053
2.151,-0.050
2.152,-0.046
2.153,-0.047
2.154,-0.049
2.155,-0.047
2.156,-0.051
2.157,-0.053
2.158,-0.053
2.159,-0.056
2.160,-0.056
2.161,-0.056
2.162,-0.056
2.163,-0.059
2.164,-0.056
2.165,-0.056
2.166,-0.055
2.167,-0.053
2.168,-0.056
2.169,-0.056
2.170,-0.056
2.171,-0.056
2.172,-0.052
2.173,-0.050
2.174,-0.053
2.175,-0.050
2.176,-0.054
2.177,-0.053
2.178,-0.052
2.179,-0.053
2.180,-0.050
2.181,-0.053
2.182,-0.052
2.183,-0.053
2.184,-0.053
2.185,-0.053
2.186,-0.051
2.187,-0.053
2.188,-0.052
2.189,-0.053
2.190,-0.056
2.191,-0.059
2.192,-0.058
2.193,-0.056
2.194,-0.058
2.195,-0.059
2.196,-0.058
2.197,-0.059
2.198,-0.066
2.199,-0.063
2.200,-0.063
2.201,-0.063
2.202,-0.059
2.203,-0.059
2.204,-0.055
2.205,-0.056
2.206,-0.058
2.207,-0.059
2.208,-0.059
2.209,-0.063
2.210,-0.063
2.211,-0.063
2.212,-0.061
2.213,-0.059
2.214,-0.063
2.215,-0.059
2.216,-0.058
2.217,-0.056
2.218,-0.061
2.219,-0.063
2.220,-0.063
2.221,-0.063
2.222,-0.061
2.223,-0.059
2.224,-0.056
2.225,-0.059
2.226,-0.061
2.227,-0.063
2.228,-0.058
2.229,-0.053
2.230,-0.053
2.231,-0.053
2.232,-0.058
2.233,-0.063
2.234,-0.063
2.235,-0.063
2.236,-0.064
2.237,-0.066
2.238,-0.064
2.239,-0.063
2.240,-0.059
2.241,-0.059
2.242,-0.059
2.243,-0.063
2.244,-0.064
2.245,-0.066
2.246,-0.061
2.247,-0.056
2.248,-0.056
2.249,-0.056
2.250,-0.056
2.251,-0.056
2.252,-0.054
2.253,-0.059
2.254,-0.058
2.255,-0.056
2.256,-0.058
2.257,-0.059
2.258,-0.061
2.259,-0.063
2.260,-0.063
2.261,-0.063
2.262,-0.058
2.263,-0.056
2.264,-0.058
2.265,-0.059
2.266,-0.061
2.267,-0.063
2.268,-0.063
2.269,-0.063
2.270,-0.063
2.271,-0.063
2.272,-0.063
2.273,-0.063
2.274,-0.064
2.275,-0.066
2.276,-0.063
2.277,-0.059
2.278,-0.059
2.279,-0.059
2.280,-0.058
2.281,-0.056
2.282,-0.056
2.283,-0.056
2.284,-0.058
2.285,-0.059
2.286,-0.061
2.287,-0.063
2.288,-0.061
2.289,-0.059
2.290,-0.056
2.291,-0.059
2.292,-0.059
2.293,-0.059
2.294,-0.056
2.295,-0.056
2.296,-0.056
2.297,-0.056
2.298,-0.061
2.299,-0.059
2.300,-0.055
2.301,-0.056
2.302,-0.055
2.303,-0.056
2.304,-0.058
2.305,-0.056
2.306,-0.056
2.307,-0.059
2.308,-0.061
2.309,-0.059
2.310,-0.058
2.311,-0.056
2.312,-0.053
2.313,-0.056
2.314,-0.061
2.315,-0.063
2.316,-0.063
2.317,-0.063
2.318,-0.063
2.319,-0.063
2.320,-0.063
2.321,-0.063
2.322,-0.059
2.323,-0.059
2.324,-0.059
2.325,-0.059
2.326,-0.058
2.327,-0.063
2.328,-0.064
2.329,-0.063
2.330,-0.063
2.331,-0.063
2.332,-0.061
2.333,-0.059
2.334,-0.059
2.335,-0.056
2.336,-0.056
2.337,-0.059
2.338,-0.061
2.339,-0.063
2.340,-0.063
2.341,-0.066
2.342,-0.066
2.343,-0.069
2.344,-0.064
2.345,-0.063
2.346,-0.061
2.347,-0.056
2.348,-0.056
2.349,-0.059
2.350,-0.058
2.351,-0.056
2.352,-0.058
2.353,-0.059
2.354,-0.063
2.355,-0.066
2.356,-0.063
2.357,-0.066
2.358,-0.066
2.359,-0.066
2.360,-0.064
2.361,-0.063
2.362,-0.058
2.363,-0.059
2.364,-0.061
2.365,-0.063
2.366,-0.063
2.367,-0.063
2.368,-0.063
2.369,-0.063
2.370,-0.061
2.371,-0.063
2.372,-0.059
2.373,-0.059
2.374,-0.064
2.375,-0.063
2.376,-0.059
2.377,-0.059
2.378,-0.063
2.379,-0.059
2.380,-0.056
2.381,-0.056
2.382,-0.055
2.383,-0.053
2.384,-0.058
2.385,-0.056
2.386,-0.056
2.387,-0.056
2.388,-0.059
2.389,-0.059
2.390,-0.056
2.391,-0.056
2.392,-0.061
2.393,-0.063
2.394,-0.063
2.395,-0.063
2.396,-0.059
2.397,-0.053
2.398,-0.056
2.399,-0.059
2.400,-0.058
2.401,-0.059
2.402,-0.056
2.403,-0.056
2.404,-0.053
2.405,-0.050
2.406,-0.053
2.407,-0.053
2.408,-0.054
2.409,-0.059
2.410,-0.061
2.411,-0.063
2.412,-0.064
2.413,-0.063
2.414,-0.066
2.415,-0.063
2.416,-0.056
2.417,-0.056
2.418,-0.058
2.419,-0.056
2.420,-0.055
2.421,-0.053
2.422,-0.058
2.423,-0.056
2.424,-0.059
2.425,-0.059
2.426,-0.061
2.427,-0.063
2.428,-0.059
2.429,-0.059
2.430,-0.059
2.431,-0.059
2.432,-0.056
2.433,-0.053
2.434,-0.054
2.435,-0.056
2.436,-0.059
2.437,-0.063
2.438,-0.063
2.439,-0.059
2.440,-0.061
2.441,-0.059
2.442,-0.059
2.443,-0.059
2.444,-0.058
2.445,-0.056
2.446,-0.058
2.447,-0.059
2.448,-0.056
2.449,-0.056
2.450,-0.056
2.451,-0.056
2.452,-0.053
2.453,-0.053
2.454,-0.053
2.455,-0.053
2.456,-0.054
2.457,-0.063
2.458,-0.064
2.459,-0.063
2.460,-0.061
2.461,-0.063
2.462,-0.059
2.463,-0.059
2.464,-0.063
2.465,-0.059
2.466,-0.056
2.467,-0.056
2.468,-0.056
2.469,-0.056
2.470,-0.055
2.471,-0.053
2.472,-0.058
2.473,-0.053
2.474,-0.058
2.475,-0.059
2.476,-0.054
2.477,-0.059
2.478,-0.056
2.479,-0.053
2.480,-0.053
2.481,-0.056
2.482,-0.053
2.483,-0.053
2.484,-0.050
2.485,-0.050
2.486,-0.049
2.487,-0.050
2.488,-0.051
2.489,-0.053
2.490,-0.054
2.491,-0.056
2.492,-0.055
2.493,-0.053
2.494,-0.053
2.495,-0.053
2.496,-0.050
2.497,-0.050
2.498,-0.050
2.499,-0.053
2.500,-0.052
2.501,-0.047
2.502,-0.050
2.503,-0.050
2.504,-0.051
2.505,-0.050
2.506,-0.050
2.507,-0.050
2.508,-0.053
2.509,-0.053
2.510,-0.053
2.511,-0.053
2.512,-0.050
2.513,-0.053
2.514,-0.054
2.515,-0.056
2.516,-0.058
2.517,-0.053
2.518,-0.054
2.519,-0.053
2.520,-0.052
2.521,-0.050
2.522,-0.053
2.523,-0.053
2.524,-0.056
2.525,-0.053
2.526,-0.054
2.527,-0.053
2.528,-0.053
2.529,-0.053
2.530,-0.053
2.531,-0.053
2.532,-0.053
2.533,-0.056
2.534,-0.054
2.535,-0.056
2.536,-0.055
2.537,-0.056
2.538,-0.056
2.539,-0.056
2.540,-0.056
2.541,-0.056
2.542,-0.058
2.543,-0.059
2.544,-0.059
2.545,-0.059
2.546,-0.055
2.547,-0.056
2.548,-0.052
2.549,-0.050
2.550,-0.053
2.551,-0.053
2.552,-0.051
2.553,-0.053
2.554,-0.053
2.555,-0.056
2.556,-0.053
2.557,-0.053
2.558,-0.054
2.559,-0.056
2.560,-0.053
2.561,-0.050
2.562,-0.049
2.563,-0.050
2.564,-0.051
2.565,-0.053
2.566,-0.050
2.567,-0.050
2.568,-0.054
2.569,-0.053
2.570,-0.053
2.571,-0.053
2.572,-0.054
2.573,-0.056
2.574,-0.056
2.575,-0.056
2.576,-0.055
2.577,-0.053
2.578,-0.052
2.579,-0.050
2.580,-0.050
2.581,-0.050
2.582,-0.051
2.583,-0.053
2.584,-0.053
2.585,-0.053
2.586,-0.056
2.587,-0.056
2.588,-0.053
2.589,-0.053
2.590,-0.053
2.591,-0.050
2.592,-0.048
2.593,-0.047
2.594,-0.036
2.595,-0.025
2.596,-0.016
2.597,-0.016
2.598,-0.014
2.599,-0.013
2.600,-0.006
2.601,-0.003
2.602,-0.001
2.603,-0.003
2.604,-0.003
2.605,-0.003
2.606,-0.001
2.607,-0.003
2.608,-0.003
2.609,-0.006
2.610,-0.003
2.611,-0.006
2.612,-0.006
2.613,-0.006
2.614,-0.004
2.615,-0.006
2.616,0.000
2.617,0.009
2.618,0.016
2.619,0.031
2.620,0.048
2.621,0.066
2.622,0.084
2.623,0.103
2.624,0.119
2.625,0.131
2.626,0.141
2.627,0.141
2.628,0.142
2.629,0.141
2.630,0.130
2.631,0.125
2.632,0.125
2.633,0.125
2.634,0.125
2.635,0.122
2.636,0.125
2.637,0.122
2.638,0.119
2.639,0.116
2.640,0.111
2.641,0.103
2.642,0.094
2.643,0.091
2.644,0.092
2.645,0.094
2.646,0.092
2.647,0.091
2.648,0.086
2.649,0.078
2.650,0.074
2.651,0.069
2.652,0.069
2.653,0.066
2.654,0.064
2.655,0.066
2.656,0.069
2.657,0.069
2.658,0.062
2.659,0.056
2.660,0.052
2.661,0.050
2.662,0.056
2.663,0.059
2.664,0.061
2.665,0.062
2.666,0.057
2.667,0.047
2.668,0.039
2.669,0.034
2.670,0.022
2.671,0.009
2.672,-0.003
2.673,-0.009
2.674,-0.013
2.675,-0.013
2.676,-0.016
2.677,-0.019
2.678,-0.019
2.679,-0.022
2.680,-0.026
2.681,-0.031
2.682,-0.034
2.683,-0.038
2.684,-0.038
2.685,-0.038
2.686,-0.041
2.687,-0.044
2.688,-0.047
2.689,-0.050
2.690,-0.053
2.691,-0.053
2.692,-0.052
2.693,-0.050
2.694,-0.053
2.695,-0.050
2.696,-0.056
2.697,-0.056
2.698,-0.061
2.699,-0.059
2.700,-0.056
2.701,-0.059
2.702,-0.058
2.703,-0.056
2.704,-0.061
2.705,-0.063
2.706,-0.063
2.707,-0.066
2.708,-0.067
2.709,-0.069
2.710,-0.071
2.711,-0.069
2.712,-0.072
2.713,-0.072
2.714,-0.073
2.715,-0.078
2.716,-0.078
2.717,-0.078
2.718,-0.075
2.719,-0.075
2.720,-0.075
2.721,-0.072
2.722,-0.073
2.723,-0.075
2.724,-0.075
2.725,-0.075
2.726,-0.074
2.727,-0.075
2.728,-0.072
2.729,-0.072
2.730,-0.072
2.731,-0.072
2.732,-0.075
2.733,-0.078
2.734,-0.078
2.735,-0.078
2.736,-0.077
2.737,-0.078
2.738,-0.078
2.739,-0.075
2.740,-0.076
2.741,-0.078
2.742,-0.075
2.743,-0.075
2.744,-0.074
2.745,-0.069
2.746,-0.069
2.747,-0.069
2.748,-0.066
2.749,-0.069
2.750,-0.066
2.751,-0.069
2.752,-0.073
2.753,-0.081
2.754,-0.092
2.755,-0.100
2.756,-0.111
2.757,-0.109
2.758,-0.101
2.759,-0.094
2.760,-0.081
2.761,-0.066
2.762,-0.047
2.763,-0.019
2.764,0.008
2.765,0.019
2.766,0.028
2.767,0.044
2.768,0.052
2.769,0.078
2.770,0.100
2.771,0.147
2.772,0.186
2.773,0.250
2.774,0.314
2.775,0.378
2.776,0.437
2.777,0.488
2.778,0.544
2.779,0.622
2.780,0.682
2.781,0.703
2.782,0.714
2.783,0.737
2.784,0.782
2.785,0.866
2.786,0.941
2.787,1.000
2.788,1.026
2.789,0.991
2.790,0.941
2.791,0.825
2.792,0.691
2.793,0.566
2.794,0.448
2.795,0.381
2.796,0.305
2.797,0.244
2.798,0.191
2.799,0.150
2.800,0.125
2.801,0.103
2.802,0.079
2.803,0.053
2.804,0.027
2.805,0.019
2.806,0.023
2.807,0.028
2.808,0.034
2.809,0.038
2.810,0.043
2.811,0.050
2.812,0.066
2.813,0.084
2.814,0.100
2.815,0.100
2.816,0.102
2.817,0.106
2.818,0.116
2.819,0.113
2.820,0.106
2.821,0.094
2.822,0.083
2.823,0.075
2.824,0.064
2.825,0.056
2.826,0.050
2.827,0.047
2.828,0.044
2.829,0.038
2.830,0.028
2.831,0.022
2.832,0.014
2.833,0.009
2.834,0.005
2.835,0.003
2.836,0.000
2.837,-0.006
2.838,-0.006
2.839,-0.006
2.840,-0.008
2.841,-0.006
2.842,-0.008
2.843,-0.009
2.844,-0.009
2.845,-0.009
2.846,-0.009
2.847,-0.013
2.848,-0.014
2.849,-0.016
2.850,-0.019
2.851,-0.019
2.852,-0.022
2.853,-0.022
2.854,-0.023
2.855,-0.025
2.856,-0.025
2.857,-0.028
2.858,-0.025
2.859,-0.025
2.860,-0.027
2.861,-0.025
2.862,-0.030
2.863,-0.028
2.864,-0.029
2.865,-0.031
2.866,-0.021
2.867,-0.019
2.868,-0.020
2.869,-0.022
2.870,-0.023
2.871,-0.025
2.872,-0.025
2.873,-0.025
2.874,-0.026
2.875,-0.025
2.876,-0.027
2.877,-0.025
2.878,-0.021
2.879,-0.019
2.880,-0.020
2.881,-0.022
2.882,-0.022
2.883,-0.022
2.884,-0.023
2.885,-0.022
2.886,-0.022
2.887,-0.025
2.888,-0.025
2.889,-0.022
2.890,-0.026
2.891,-0.025
2.892,-0.024
2.893,-0.022
2.894,-0.021
2.895,-0.022
2.896,-0.019
2.897,-0.019
2.898,-0.019
2.899,-0.016
2.900,-0.020
2.901,-0.019
2.902,-0.019
2.903,-0.019
2.904,-0.017
2.905,-0.019
2.906,-0.014
2.907,-0.013
2.908,-0.013
2.909,-0.013
2.910,-0.013
2.911,-0.013
2.912,-0.014
2.913,-0.016
2.914,-0.017
2.915,-0.022
2.916,-0.019
2.917,-0.016
2.918,-0.013
2.919,-0.009
2.920,-0.009
2.921,-0.009
2.922,-0.011
2.923,-0.013
2.924,-0.011
2.925,-0.013
2.926,-0.013
2.927,-0.013
2.928,-0.013
2.929,-0.013
2.930,-0.013
2.931,-0.013
2.932,-0.013
2.933,-0.013
2.934,-0.011
2.935,-0.009
2.936,-0.011
2.937,-0.013
2.938,-0.009
2.939,-0.009
2.940,-0.009
2.941,-0.009
2.942,-0.011
2.943,-0.013
2.944,-0.009
2.945,-0.006
2.946,-0.006
2.947,-0.006
2.948,-0.006
2.949,-0.006
2.950,-0.008
2.951,-0.006
2.952,-0.006
2.953,-0.006
2.954,-0.008
2.955,-0.009
2.956,-0.009
2.957,-0.009
2.958,-0.006
2.959,-0.003
2.960,0.000
2.961,-0.003
2.962,-0.004
2.963,-0.006
2.964,-0.008
2.965,-0.009
2.966,-0.009
2.967,-0.009
2.968,-0.008
2.969,-0.003
2.970,-0.004
2.971,-0.006
2.972,-0.011
2.973,-0.009
2.974,-0.006
2.975,0.000
2.976,0.001
2.977,0.000
2.978,-0.004
2.979,-0.003
2.980,-0.001
2.981,0.000
2.982,0.001
2.983,0.000
2.984,0.001
2.985,0.000
2.986,0.000
2.987,0.000
2.988,-0.001
2.989,0.000
2.990,0.000
2.991,0.000
2.992,0.000
2.993,0.003
2.994,0.003
2.995,0.003
2.996,0.003
2.997,0.000
2.998,0.006
2.999,0.006
3.000,0.005
3.001,0.006
3.002,0.006
3.003,0.003
3.004,0.005
3.005,0.003
3.006,0.003
3.007,0.003
3.008,0.006
3.009,0.009
3.010,0.012
3.011,0.012
3.012,0.008
3.013,0.009
3.014,0.008
3.015,0.003
3.016,0.004
3.017,0.006
3.018,0.005
3.019,0.006
3.020,0.004
3.021,0.006
3.022,0.006
3.023,0.009
3.024,0.006
3.025,0.006
3.026,0.009
3.027,0.009
3.028,0.007
3.029,0.009
3.030,0.009
3.031,0.009
3.032,0.009
3.033,0.009
3.034,0.005
3.035,0.006
3.036,0.006
3.037,0.006
3.038,0.006
3.039,0.006
3.040,0.003
3.041,0.003
3.042,0.006
3.043,0.003
3.044,0.005
3.045,0.003
3.046,0.003
3.047,0.003
3.048,0.003
3.049,0.006
3.050,0.006
3.051,0.006
3.052,0.009
3.053,0.012
3.054,0.008
3.055,0.006
3.056,0.007
3.057,0.009
3.058,0.009
3.059,0.009
3.060,0.009
3.061,0.009
3.062,0.009
3.063,0.009
3.064,0.009
3.065,0.009
3.066,0.009
3.067,0.012
3.068,0.012
3.069,0.012
3.070,0.012
3.071,0.012
3.072,0.011
3.073,0.009
3.074,0.009
3.075,0.009
3.076,0.007
3.077,0.009
3.078,0.009
3.079,0.009
3.080,0.012
3.081,0.012
3.082,0.008
3.083,0.009
3.084,0.008
3.085,0.006
3.086,0.008
3.087,0.006
3.088,0.005
3.089,0.006
3.090,0.009
3.091,0.009
3.092,0.011
3.093,0.012
3.094,0.014
3.095,0.016
3.096,0.016
3.097,0.016
3.098,0.011
3.099,0.012
3.100,0.014
3.101,0.012
3.102,0.012
3.103,0.012
3.104,0.014
3.105,0.016
3.106,0.012
3.107,0.012
3.108,0.012
3.109,0.009
3.110,0.016
3.111,0.016
3.112,0.017
3.113,0.019
3.114,0.019
3.115,0.019
3.116,0.017
3.117,0.016
3.118,0.016
3.119,0.019
3.120,0.019
3.121,0.019
3.122,0.021
3.123,0.019
3.124,0.019
3.125,0.019
3.126,0.019
3.127,0.022
3.128,0.023
3.129,0.025
3.130,0.025
3.131,0.025
3.132,0.029
3.133,0.031
3.134,0.030
3.135,0.031
3.136,0.034
3.137,0.034
3.138,0.038
3.139,0.044
3.140,0.043
3.141,0.044
3.142,0.047
3.143,0.047
3.144,0.050
3.145,0.056
3.146,0.056
3.147,0.059
3.148,0.062
3.149,0.059
3.150,0.056
3.151,0.059
3.152,0.059
3.153,0.059
3.154,0.064
3.155,0.069
3.156,0.070
3.157,0.075
3.158,0.078
3.159,0.078
3.160,0.080
3.161,0.078
3.162,0.082
3.163,0.084
3.164,0.086
3.165,0.084
3.166,0.087
3.167,0.087
3.168,0.087
3.169,0.094
3.170,0.095
3.171,0.100
3.172,0.099
3.173,0.100
3.174,0.103
3.175,0.106
3.176,0.105
3.177,0.106
3.178,0.113
3.179,0.119
3.180,0.119
3.181,0.119
3.182,0.118
3.183,0.119
3.184,0.123
3.185,0.122
3.186,0.123
3.187,0.122
3.188,0.122
3.189,0.125
3.190,0.126
3.191,0.131
3.192,0.128
3.193,0.131
3.194,0.136
3.195,0.137
3.196,0.139
3.197,0.137
3.198,0.134
3.199,0.134
3.200,0.133
3.201,0.128
3.202,0.129
3.203,0.131
3.204,0.124
3.205,0.125
3.206,0.126
3.207,0.125
3.208,0.120
3.209,0.122
3.210,0.122
3.211,0.119
3.212,0.125
3.213,0.119
3.214,0.117
3.215,0.116
3.216,0.116
3.217,0.109
3.218,0.109
3.219,0.106
3.220,0.106
3.221,0.103
3.222,0.098
3.223,0.100
3.224,0.103
3.225,0.100
3.226,0.097
3.227,0.091
3.228,0.089
3.229,0.087
3.230,0.083
3.231,0.081
3.232,0.080
3.233,0.072
3.234,0.069
3.235,0.069
3.236,0.070
3.237,0.066
3.238,0.067
3.239,0.066
3.240,0.067
3.241,0.069
3.242,0.062
3.243,0.056
3.244,0.056
3.245,0.050
3.246,0.051
3.247,0.050
3.248,0.050
3.249,0.047
3.250,0.044
3.251,0.044
3.252,0.038
3.253,0.034
3.254,0.031
3.255,0.031
3.256,0.029
3.257,0.028
3.258,0.028
3.259,0.025
3.260,0.026
3.261,0.022
3.262,0.022
3.263,0.022
3.264,0.016
3.265,0.012
3.266,0.011
3.267,0.009
3.268,0.009
3.269,0.009
3.270,0.006
3.271,0.009
3.272,0.007
3.273,0.009
3.274,0.003
3.275,0.003
3.276,0.003
3.277,0.003
3.278,-0.001
3.279,-0.003
3.280,-0.004
3.281,-0.009
3.282,-0.008
3.283,-0.006
3.284,-0.006
3.285,-0.009
3.286,-0.011
3.287,-0.016
3.288,-0.011
3.289,-0.013
3.290,-0.013
3.291,-0.013
3.292,-0.011
3.293,-0.013
3.294,-0.016
3.295,-0.016
3.296,-0.016
3.297,-0.016
3.298,-0.014
3.299,-0.016
3.300,-0.019
3.301,-0.022
3.302,-0.022
3.303,-0.022
3.304,-0.022
3.305,-0.022
3.306,-0.026
3.307,-0.028
3.308,-0.031
3.309,-0.031
3.310,-0.027
3.311,-0.028
3.312,-0.027
3.313,-0.025
3.314,-0.025
3.315,-0.022
3.316,-0.025
3.317,-0.025
3.318,-0.025
3.319,-0.025
3.320,-0.026
3.321,-0.028
3.322,-0.027
3.323,-0.028
3.324,-0.025
3.325,-0.025
3.326,-0.026
3.327,-0.025
3.328,-0.026
3.329,-0.028
3.330,-0.032
3.331,-0.031
3.332,-0.030
3.333,-0.031
3.334,-0.031
3.335,-0.034
3.336,-0.031
3.337,-0.038
3.338,-0.039
3.339,-0.038
3.340,-0.034
3.341,-0.038
3.342,-0.042
3.343,-0.044
3.344,-0.044
3.345,-0.044
3.346,-0.038
3.347,-0.034
3.348,-0.034
3.349,-0.034
3.350,-0.036
3.351,-0.038
3.352,-0.034
3.353,-0.038
3.354,-0.041
3.355,-0.041
3.356,-0.039
3.357,-0.034
3.358,-0.036
3.359,-0.041
3.360,-0.039
3.361,-0.038
3.362,-0.041
3.363,-0.038
3.364,-0.041
3.365,-0.041
3.366,-0.041
3.367,-0.041
3.368,-0.044
3.369,-0.044
3.370,-0.043
3.371,-0.041
3.372,-0.036
3.373,-0.038
3.374,-0.044
3.375,-0.047
3.376,-0.049
3.377,-0.047
3.378,-0.045
3.379,-0.047
3.380,-0.047
3.381,-0.047
3.382,-0.047
3.383,-0.050
3.384,-0.044
3.385,-0.041
3.386,-0.039
3.387,-0.038
3.388,-0.041
3.389,-0.041
3.390,-0.042
3.391,-0.044
3.392,-0.041
3.393,-0.041
3.394,-0.045
3.395,-0.044
3.396,-0.047
3.397,-0.044
3.398,-0.043
3.399,-0.044
3.400,-0.041
3.401,-0.044
3.402,-0.044
3.403,-0.047
3.404,-0.047
3.405,-0.047
3.406,-0.044
3.407,-0.044
3.408,-0.044
3.409,-0.047
3.410,-0.048
3.411,-0.050
3.412,-0.047
3.413,-0.044
3.414,-0.044
3.415,-0.044
3.416,-0.041
3.417,-0.041
3.418,-0.046
3.419,-0.041
3.420,-0.041
3.421,-0.041
3.422,-0.042
3.423,-0.047
3.424,-0.045
3.425,-0.050
3.426,-0.050
3.427,-0.050
3.428,-0.046
3.429,-0.044
3.430,-0.044
3.431,-0.044
3.432,-0.045
3.433,-0.047
3.434,-0.051
3.435,-0.050
3.436,-0.050
3.437,-0.050
3.438,-0.052
3.439,-0.050
3.440,-0.051
3.441,-0.053
3.442,-0.053
3.443,-0.053
3.444,-0.049
3.445,-0.050
3.446,-0.050
3.447,-0.050
3.448,-0.050
3.449,-0.050
3.450,-0.049
3.451,-0.047
3.452,-0.048
3.453,-0.050
3.454,-0.050
3.455,-0.050
3.456,-0.050
3.457,-0.050
3.458,-0.050
3.459,-0.050
3.460,-0.050
3.461,-0.053
3.462,-0.050
3.463,-0.050
3.464,-0.050
3.465,-0.050
3.466,-0.050
3.467,-0.050
3.468,-0.050
3.469,-0.050
3.470,-0.051
3.471,-0.053
3.472,-0.049
3.473,-0.050
3.474,-0.050
3.475,-0.050
3.476,-0.051
3.477,-0.053
3.478,-0.052
3.479,-0.050
3.480,-0.050
3.481,-0.050
3.482,-0.050
3.483,-0.053
3.484,-0.055
3.485,-0.056
3.486,-0.056
3.487,-0.056
3.488,-0.053
3.489,-0.050
3.490,-0.050
3.491,-0.050
3.492,-0.051
3.493,-0.053
3.494,-0.052
3.495,-0.050
3.496,-0.050
3.497,-0.050
3.498,-0.051
3.499,-0.053
3.500,-0.053
3.501,-0.053
3.502,-0.056
3.503,-0.059
3.504,-0.058
3.505,-0.056
3.506,-0.056
3.507,-0.056
3.508,-0.056
3.509,-0.056
3.510,-0.056
3.511,-0.056
3.512,-0.056
3.513,-0.056
3.514,-0.055
3.515,-0.053
3.516,-0.053
3.517,-0.053
3.518,-0.053
3.519,-0.053
3.520,-0.058
3.521,-0.063
3.522,-0.059
3.523,-0.056
3.524,-0.056
3.525,-0.056
3.526,-0.058
3.527,-0.059
3.528,-0.052
3.529,-0.050
3.530,-0.051
3.531,-0.053
3.532,-0.050
3.533,-0.050
3.534,-0.051
3.535,-0.053
3.536,-0.059
3.537,-0.059
3.538,-0.055
3.539,-0.056
3.540,-0.055
3.541,-0.056
3.542,-0.058
3.543,-0.056
3.544,-0.053
3.545,-0.053
3.546,-0.054
3.547,-0.053
3.548,-0.056
3.549,-0.059
3.550,-0.056
3.551,-0.059
3.552,-0.063
3.553,-0.063
3.554,-0.063
3.555,-0.063
3.556,-0.063
3.557,-0.063
3.558,-0.063
3.559,-0.063
3.560,-0.061
3.561,-0.063
3.562,-0.061
3.563,-0.059
3.564,-0.056
3.565,-0.059
3.566,-0.061
3.567,-0.059
3.568,-0.059
3.569,-0.059
3.570,-0.058
3.571,-0.056
3.572,-0.058
3.573,-0.056
3.574,-0.056
3.575,-0.059
3.576,-0.063
3.577,-0.066
3.578,-0.059
3.579,-0.056
3.580,-0.056
3.581,-0.059
3.582,-0.055
3.583,-0.053
3.584,-0.054
3.585,-0.053
3.586,-0.052
3.587,-0.053
3.588,-0.053
3.589,-0.053
3.590,-0.054
3.591,-0.056
3.592,-0.056
3.593,-0.056
3.594,-0.053
3.595,-0.056
3.596,-0.056
3.597,-0.056
3.598,-0.058
3.599,-0.059
3.600,-0.056
3.601,-0.059
3.602,-0.056
3.603,-0.053
3.604,-0.054
3.605,-0.056
3.606,-0.056
3.607,-0.056
3.608,-0.056
3.609,-0.059
3.610,-0.056
3.611,-0.056
3.612,-0.061
3.613,-0.059
3.614,-0.056
3.615,-0.056
3.616,-0.059
3.617,-0.056
3.618,-0.053
3.619,-0.053
3.620,-0.053
3.621,-0.053
3.622,-0.056
3.623,-0.053
3.624,-0.053
3.625,-0.053
3.626,-0.056
3.627,-0.056
3.628,-0.053
3.629,-0.053
3.630,-0.058
3.631,-0.059
3.632,-0.061
3.633,-0.063
3.634,-0.066
3.635,-0.066
3.636,-0.068
3.637,-0.069
3.638,-0.063
3.639,-0.059
3.640,-0.058
3.641,-0.059
3.642,-0.058
3.643,-0.056
3.644,-0.059
3.645,-0.059
3.646,-0.058
3.647,-0.059
3.648,-0.061
3.649,-0.063
3.650,-0.066
3.651,-0.066
3.652,-0.070
3.653,-0.069
3.654,-0.064
3.655,-0.066
3.656,-0.063
3.657,-0.056
3.658,-0.058
3.659,-0.059
3.660,-0.064
3.661,-0.063
3.662,-0.066
3.663,-0.066
3.664,-0.063
3.665,-0.059
3.666,-0.058
3.667,-0.059
3.668,-0.059
3.669,-0.059
3.670,-0.061
3.671,-0.063
3.672,-0.061
3.673,-0.059
3.674,-0.063
3.675,-0.066
3.676,-0.066
3.677,-0.063
3.678,-0.066
3.679,-0.066
3.680,-0.067
3.681,-0.069
3.682,-0.069
3.683,-0.069
3.684,-0.066
3.685,-0.063
3.686,-0.059
3.687,-0.059
3.688,-0.058
3.689,-0.056
3.690,-0.056
3.691,-0.059
3.692,-0.063
3.693,-0.066
3.694,-0.063
3.695,-0.066
3.696,-0.067
3.697,-0.066
3.698,-0.066
3.699,-0.069
3.700,-0.066
3.701,-0.066
3.702,-0.070
3.703,-0.069
3.704,-0.063
3.705,-0.059
3.706,-0.058
3.707,-0.056
3.708,-0.055
3.709,-0.053
3.710,-0.058
3.711,-0.053
3.712,-0.058
3.713,-0.059
3.714,-0.053
3.715,-0.056
3.716,-0.058
3.717,-0.059
3.718,-0.058
3.719,-0.059
3.720,-0.058
3.721,-0.059
3.722,-0.056
3.723,-0.056
3.724,-0.055
3.725,-0.056
3.726,-0.056
3.727,-0.056
3.728,-0.056
3.729,-0.056
3.730,-0.056
3.731,-0.056
3.732,-0.058
3.733,-0.059
3.734,-0.053
3.735,-0.050
3.736,-0.050
3.737,-0.053
3.738,-0.054
3.739,-0.053
3.740,-0.056
3.741,-0.056
3.742,-0.058
3.743,-0.056
3.744,-0.055
3.745,-0.053
3.746,-0.056
3.747,-0.056
3.748,-0.058
3.749,-0.059
3.750,-0.055
3.751,-0.056
3.752,-0.055
3.753,-0.053
3.754,-0.058
3.755,-0.056
3.756,-0.058
3.757,-0.056
3.758,-0.055
3.759,-0.053
3.760,-0.055
3.761,-0.053
3.762,-0.056
3.763,-0.053
3.764,-0.056
3.765,-0.056
3.766,-0.056
3.767,-0.056
3.768,-0.056
3.769,-0.056
3.770,-0.055
3.771,-0.056
3.772,-0.054
3.773,-0.056
3.774,-0.056
3.775,-0.059
3.776,-0.061
3.777,-0.063
3.778,-0.063
3.779,-0.063
3.780,-0.059
3.781,-0.056
3.782,-0.058
3.783,-0.059
3.784,-0.056
3.785,-0.059
3.786,-0.056
3.787,-0.056
3.788,-0.061
3.789,-0.063
3.790,-0.058
3.791,-0.056
3.792,-0.055
3.793,-0.056
3.794,-0.056
3.795,-0.059
3.796,-0.061
3.797,-0.063
3.798,-0.063
3.799,-0.063
3.800,-0.063
3.801,-0.066
3.802,-0.066
3.803,-0.066
3.804,-0.063
3.805,-0.063
3.806,-0.066
3.807,-0.063
3.808,-0.063
3.809,-0.063
3.810,-0.064
3.811,-0.066
3.812,-0.061
3.813,-0.056
3.814,-0.058
3.815,-0.059
3.816,-0.061
3.817,-0.063
3.818,-0.064
3.819,-0.066
3.820,-0.066
3.821,-0.066
3.822,-0.067
3.823,-0.069
3.824,-0.068
3.825,-0.063
3.826,-0.058
3.827,-0.056
3.828,-0.056
3.829,-0.053
3.830,-0.047
3.831,-0.041
3.832,-0.034
3.833,-0.028
3.834,-0.019
3.835,-0.019
3.836,-0.019
3.837,-0.019
3.838,-0.017
3.839,-0.019
3.840,-0.014
3.841,-0.013
3.842,-0.013
3.843,-0.013
3.844,-0.011
3.845,-0.013
3.846,-0.011
3.847,-0.013
3.848,-0.009
3.849,-0.013
3.850,-0.014
3.851,-0.016
3.852,-0.013
3.853,-0.013
3.854,-0.002
3.855,0.012
3.856,0.025
3.857,0.047
3.858,0.062
3.859,0.078
3.860,0.094
3.861,0.109
3.862,0.119
3.863,0.125
3.864,0.127
3.865,0.119
3.866,0.120
3.867,0.119
3.868,0.113
3.869,0.113
3.870,0.111
3.871,0.109
3.872,0.111
3.873,0.109
3.874,0.109
3.875,0.103
3.876,0.097
3.877,0.091
3.878,0.089
3.879,0.084
3.880,0.079
3.881,0.081
3.882,0.080
3.883,0.078
3.884,0.071
3.885,0.062
3.886,0.056
3.887,0.047
3.888,0.045
3.889,0.044
3.890,0.043
3.891,0.038
3.892,0.034
3.893,0.034
3.894,0.036
3.895,0.034
3.896,0.032
3.897,0.031
3.898,0.031
3.899,0.034
3.900,0.039
3.901,0.041
3.902,0.034
3.903,0.028
3.904,0.019
3.905,0.003
3.906,-0.005
3.907,-0.009
3.908,-0.014
3.909,-0.019
3.910,-0.024
3.911,-0.022
3.912,-0.027
3.913,-0.028
3.914,-0.034
3.915,-0.041
3.916,-0.044
3.917,-0.050
3.918,-0.053
3.919,-0.056
3.920,-0.061
3.921,-0.066
3.922,-0.066
3.923,-0.066
3.924,-0.066
3.925,-0.066
3.926,-0.066
3.927,-0.066
3.928,-0.069
3.929,-0.069
3.930,-0.070
3.931,-0.072
3.932,-0.075
3.933,-0.072
3.934,-0.075
3.935,-0.072
3.936,-0.081
3.937,-0.084
3.938,-0.081
3.939,-0.084
3.940,-0.083
3.941,-0.081
3.942,-0.084
3.943,-0.084
3.944,-0.081
3.945,-0.081
3.946,-0.083
3.947,-0.084
3.948,-0.088
3.949,-0.088
3.950,-0.091
3.951,-0.091
3.952,-0.091
3.953,-0.094
3.954,-0.095
3.955,-0.097
3.956,-0.094
3.957,-0.094
3.958,-0.096
3.959,-0.094
3.960,-0.093
3.961,-0.091
3.962,-0.092
3.963,-0.094
3.964,-0.094
3.965,-0.097
3.966,-0.097
3.967,-0.100
3.968,-0.101
3.969,-0.103
3.970,-0.102
3.971,-0.100
3.972,-0.100
3.973,-0.100
3.974,-0.099
3.975,-0.100
3.976,-0.100
3.977,-0.097
3.978,-0.094
3.979,-0.091
3.980,-0.089
3.981,-0.091
3.982,-0.094
3.983,-0.094
3.984,-0.094
3.985,-0.094
3.986,-0.089
3.987,-0.091
3.988,-0.089
3.989,-0.094
3.990,-0.096
3.991,-0.100
3.992,-0.109
3.993,-0.116
3.994,-0.122
3.995,-0.116
3.996,-0.109
3.997,-0.103
3.998,-0.092
3.999,-0.078
4.000,-0.059
4.001,-0.031
4.002,-0.006
4.003,0.003
4.004,0.016
4.005,0.034
4.006,0.044
4.007,0.072
4.008,0.097
4.009,0.147
4.010,0.189
4.011,0.256
4.012,0.319
4.013,0.381
4.014,0.444
4.015,0.497
4.016,0.547
4.017,0.619
4.018,0.674
4.019,0.687
4.020,0.706
4.021,0.737
4.022,0.786
4.023,0.872
4.024,0.934
4.025,0.981
4.026,0.997
4.027,0.950
4.028,0.887
4.029,0.759
4.030,0.634
4.031,0.519
4.032,0.399
4.033,0.328
4.034,0.259
4.035,0.206
4.036,0.164
4.037,0.134
4.038,0.109
4.039,0.087
4.040,0.062
4.041,0.034
4.042,0.016
4.043,0.016
4.044,0.017
4.045,0.019
4.046,0.023
4.047,0.025
4.048,0.030
4.049,0.038
4.050,0.049
4.051,0.062
4.052,0.079
4.053,0.081
4.054,0.086
4.055,0.094
4.056,0.100
4.057,0.094
4.058,0.089
4.059,0.078
4.060,0.067
4.061,0.059
4.062,0.050
4.063,0.044
4.064,0.033
4.065,0.025
4.066,0.019
4.067,0.009
4.068,0.001
4.069,-0.003
4.070,-0.009
4.071,-0.013
4.072,-0.013
4.073,-0.009
4.074,-0.009
4.075,-0.013
4.076,-0.013
4.077,-0.013
4.078,-0.014
4.079,-0.013
4.080,-0.019
4.081,-0.025
4.082,-0.027
4.083,-0.028
4.084,-0.028
4.085,-0.031
4.086,-0.030
4.087,-0.028
4.088,-0.031
4.089,-0.031
4.090,-0.032
4.091,-0.031
4.092,-0.031
4.093,-0.031
4.094,-0.031
4.095,-0.034
4.096,-0.031
4.097,-0.031
4.098,-0.033
4.099,-0.031
4.100,-0.041
4.101,-0.044
4.102,-0.043
4.103,-0.041
4.104,-0.034
4.105,-0.038
4.106,-0.039
4.107,-0.041
4.108,-0.039
4.109,-0.038
4.110,-0.036
4.111,-0.034
4.112,-0.034
4.113,-0.031
4.114,-0.034
4.115,-0.034
4.116,-0.032
4.117,-0.034
4.118,-0.034
4.119,-0.034
4.120,-0.034
4.121,-0.034
4.122,-0.034
4.123,-0.031
4.124,-0.030
4.125,-0.031
4.126,-0.031
4.127,-0.028
4.128,-0.032
4.129,-0.031
4.130,-0.031
4.131,-0.031
4.132,-0.030
4.133,-0.031
4.134,-0.028
4.135,-0.028
4.136,-0.028
4.137,-0.025
4.138,-0.029
4.139,-0.028
4.140,-0.029
4.141,-0.031
4.142,-0.028
4.143,-0.028
4.144,-0.024
4.145,-0.022
4.146,-0.023
4.147,-0.025
4.148,-0.025
4.149,-0.025
4.150,-0.025
4.151,-0.025
4.152,-0.024
4.153,-0.025
4.154,-0.025
4.155,-0.025
4.156,-0.025
4.157,-0.025
4.158,-0.026
4.159,-0.028
4.160,-0.027
4.161,-0.025
4.162,-0.022
4.163,-0.022
4.164,-0.021
4.165,-0.019
4.166,-0.019
4.167,-0.019
4.168,-0.020
4.169,-0.022
4.170,-0.022
4.171,-0.022
4.172,-0.019
4.173,-0.016
4.174,-0.017
4.175,-0.019
4.176,-0.017
4.177,-0.019
4.178,-0.022
4.179,-0.025
4.180,-0.025
4.181,-0.025
4.182,-0.022
4.183,-0.019
4.184,-0.018
4.185,-0.016
4.186,-0.014
4.187,-0.013
4.188,-0.014
4.189,-0.013
4.190,-0.013
4.191,-0.013
4.192,-0.014
4.193,-0.016
4.194,-0.016
4.195,-0.016
4.196,-0.016
4.197,-0.016
4.198,-0.013
4.199,-0.016
4.200,-0.014
4.201,-0.013
4.202,-0.014
4.203,-0.016
4.204,-0.017
4.205,-0.019
4.206,-0.018
4.207,-0.013
4.208,-0.009
4.209,-0.006
4.210,-0.011
4.211,-0.009
4.212,-0.009
4.213,-0.006
4.214,-0.006
4.215,-0.009
4.216,-0.016
4.217,-0.016
4.218,-0.014
4.219,-0.013
4.220,-0.011
4.221,-0.013
4.222,-0.011
4.223,-0.013
4.224,-0.013
4.225,-0.013
4.226,-0.014
4.227,-0.013
4.228,-0.011
4.229,-0.009
4.230,-0.008
4.231,-0.003
4.232,-0.003
4.233,-0.003
4.234,-0.002
4.235,-0.003
4.236,-0.001
4.237,-0.006
4.238,-0.003
4.239,0.003
4.240,0.003
4.241,0.000
4.242,0.002
4.243,0.000
4.244,0.000
4.245,0.000
4.246,0.002
4.247,0.003
4.248,0.006
4.249,0.006
4.250,0.002
4.251,0.003
4.252,0.004
4.253,0.003
4.254,0.003
4.255,0.003
4.256,0.002
4.257,0.003
4.258,0.003
4.259,0.006
4.260,0.006
4.261,0.009
4.262,0.006
4.263,0.006
4.264,0.009
4.265,0.009
4.266,0.005
4.267,0.003
4.268,0.003
4.269,0.003
4.270,0.003
4.271,0.003
4.272,0.000
4.273,0.003
4.274,0.002
4.275,0.000
4.276,0.001
4.277,0.003
4.278,0.001
4.279,0.003
4.280,0.006
4.281,0.003
4.282,0.005
4.283,0.003
4.284,0.003
4.285,0.003
4.286,0.002
4.287,0.003
4.288,0.003
4.289,0.003
4.290,0.004
4.291,0.006
4.292,0.003
4.293,0.003
4.294,0.003
4.295,0.003
4.296,0.003
4.297,0.003
4.298,0.004
4.299,0.006
4.300,0.006
4.301,0.006
4.302,0.005
4.303,0.003
4.304,0.002
4.305,0.003
4.306,0.003
4.307,0.003
4.308,0.003
4.309,0.003
4.310,0.003
4.311,0.003
4.312,0.006
4.313,0.009
4.314,0.006
4.315,0.006
4.316,0.006
4.317,0.006
4.318,0.009
4.319,0.009
4.320,0.005
4.321,0.006
4.322,0.006
4.323,0.006
4.324,0.008
4.325,0.006
4.326,0.005
4.327,0.006
4.328,0.007
4.329,0.006
4.330,0.005
4.331,0.003
4.332,0.003
4.333,0.003
4.334,0.004
4.335,0.006
4.336,0.002
4.337,0.003
4.338,0.005
4.339,0.003
4.340,0.003
4.341,0.003
4.342,0.004
4.343,0.006
4.344,0.004
4.345,0.006
4.346,0.006
4.347,0.003
4.348,0.006
4.349,0.003
4.350,0.003
4.351,0.003
4.352,0.003
4.353,0.003
4.354,0.003
4.355,0.003
4.356,0.004
4.357,0.009
4.358,0.009
4.359,0.009
4.360,0.011
4.361,0.009
4.362,0.012
4.363,0.016
4.364,0.014
4.365,0.016
4.366,0.019
4.367,0.022
4.368,0.021
4.369,0.019
4.370,0.022
4.371,0.022
4.372,0.022
4.373,0.025
4.374,0.027
4.375,0.025
4.376,0.026
4.377,0.031
4.378,0.032
4.379,0.038
4.380,0.041
4.381,0.041
4.382,0.039
4.383,0.041
4.384,0.041
4.385,0.044
4.386,0.048
4.387,0.047
4.388,0.047
4.389,0.053
4.390,0.054
4.391,0.056
4.392,0.056
4.393,0.056
4.394,0.057
4.395,0.062
4.396,0.066
4.397,0.066
4.398,0.069
4.399,0.069
4.400,0.071
4.401,0.069
4.402,0.073
4.403,0.075
4.404,0.079
4.405,0.081
4.406,0.080
4.407,0.084
4.408,0.081
4.409,0.081
4.410,0.081
4.411,0.084
4.412,0.091
4.413,0.097
4.414,0.097
4.415,0.100
4.416,0.100
4.417,0.100
4.418,0.103
4.419,0.106
4.420,0.103
4.421,0.103
4.422,0.107
4.423,0.106
4.424,0.109
4.425,0.109
4.426,0.111
4.427,0.116
4.428,0.116
4.429,0.119
4.430,0.116
4.431,0.119
4.432,0.121
4.433,0.119
4.434,0.122
4.435,0.122
4.436,0.119
4.437,0.119
4.438,0.122
4.439,0.122
4.440,0.122
4.441,0.122
4.442,0.113
4.443,0.113
4.444,0.114
4.445,0.113
4.446,0.106
4.447,0.106
4.448,0.106
4.449,0.103
4.450,0.111
4.451,0.106
4.452,0.103
4.453,0.100
4.454,0.103
4.455,0.100
4.456,0.101
4.457,0.100
4.458,0.097
4.459,0.091
4.460,0.086
4.461,0.087
4.462,0.089
4.463,0.084
4.464,0.086
4.465,0.084
4.466,0.081
4.467,0.078
4.468,0.072
4.469,0.069
4.470,0.070
4.471,0.066
4.472,0.062
4.473,0.062
4.474,0.062
4.475,0.056
4.476,0.055
4.477,0.050
4.478,0.053
4.479,0.056
4.480,0.053
4.481,0.050
4.482,0.050
4.483,0.044
4.484,0.045
4.485,0.044
4.486,0.041
4.487,0.034
4.488,0.031
4.489,0.031
4.490,0.029
4.491,0.031
4.492,0.028
4.493,0.028
4.494,0.025
4.495,0.022
4.496,0.017
4.497,0.009
4.498,0.012
4.499,0.009
4.500,0.011
4.501,0.012
4.502,0.009
4.503,0.009
4.504,0.007
4.505,0.006
4.506,0.006
4.507,0.006
4.508,-0.001
4.509,-0.003
4.510,-0.005
4.511,-0.003
4.512,-0.008
4.513,-0.006
4.514,-0.006
4.515,-0.006
4.516,-0.009
4.517,-0.009
4.518,-0.009
4.519,-0.013
4.520,-0.014
4.521,-0.016
4.522,-0.013
4.523,-0.013
4.524,-0.014
4.525,-0.019
4.526,-0.016
4.527,-0.019
4.528,-0.019
4.529,-0.019
4.530,-0.019
4.531,-0.022
4.532,-0.022
4.533,-0.019
4.534,-0.019
4.535,-0.019
4.536,-0.018
4.537,-0.019
4.538,-0.020
4.539,-0.022
4.540,-0.023
4.541,-0.025
4.542,-0.028
4.543,-0.031
4.544,-0.033
4.545,-0.031
4.546,-0.034
4.547,-0.034
4.548,-0.030
4.549,-0.031
4.550,-0.031
4.551,-0.031
4.552,-0.032
4.553,-0.031
4.554,-0.034
4.555,-0.034
4.556,-0.033
4.557,-0.031
4.558,-0.031
4.559,-0.031
4.560,-0.030
4.561,-0.031
4.562,-0.032
4.563,-0.038
4.564,-0.039
4.565,-0.038
4.566,-0.036
4.567,-0.034
4.568,-0.039
4.569,-0.038
4.570,-0.038
4.571,-0.041
4.572,-0.039
4.573,-0.041
4.574,-0.034
4.575,-0.038
4.576,-0.039
4.577,-0.038
4.578,-0.033
4.579,-0.034
4.580,-0.039
4.581,-0.041
4.582,-0.041
4.583,-0.041
4.584,-0.038
4.585,-0.038
4.586,-0.039
4.587,-0.041
4.588,-0.042
4.589,-0.044
4.590,-0.041
4.591,-0.044
4.592,-0.047
4.593,-0.047
4.594,-0.048
4.595,-0.047
4.596,-0.044
4.597,-0.044
4.598,-0.043
4.599,-0.041
4.600,-0.044
4.601,-0.041
4.602,-0.044
4.603,-0.044
4.604,-0.043
4.605,-0.041
4.606,-0.042
4.607,-0.041
4.608,-0.044
4.609,-0.047
4.610,-0.043
4.611,-0.044
4.612,-0.046
4.613,-0.044
4.614,-0.048
4.615,-0.050
4.616,-0.048
4.617,-0.050
4.618,-0.049
4.619,-0.047
4.620,-0.047
4.621,-0.050
4.622,-0.047
4.623,-0.047
4.624,-0.047
4.625,-0.047
4.626,-0.051
4.627,-0.053
4.628,-0.050
4.629,-0.047
4.630,-0.045
4.631,-0.047
4.632,-0.050
4.633,-0.047
4.634,-0.050
4.635,-0.047
4.636,-0.046
4.637,-0.047
4.638,-0.045
4.639,-0.050
4.640,-0.049
4.641,-0.050
4.642,-0.051
4.643,-0.053
4.644,-0.051
4.645,-0.053
4.646,-0.052
4.647,-0.053
4.648,-0.053
4.649,-0.053
4.650,-0.053
4.651,-0.053
4.652,-0.053
4.653,-0.053
4.654,-0.050
4.655,-0.050
4.656,-0.055
4.657,-0.050
4.658,-0.050
4.659,-0.050
4.660,-0.050
4.661,-0.053
4.662,-0.050
4.663,-0.053
4.664,-0.054
4.665,-0.056
4.666,-0.054
4.667,-0.056
4.668,-0.056
4.669,-0.056
4.670,-0.055
4.671,-0.053
4.672,-0.055
4.673,-0.050
4.674,-0.050
4.675,-0.050
4.676,-0.052
4.677,-0.050
4.678,-0.049
4.679,-0.047
4.680,-0.048
4.681,-0.050
4.682,-0.047
4.683,-0.050
4.684,-0.050
4.685,-0.050
4.686,-0.050
4.687,-0.050
4.688,-0.050
4.689,-0.050
4.690,-0.050
4.691,-0.050
4.692,-0.050
4.693,-0.050
4.694,-0.049
4.695,-0.047
4.696,-0.047
4.697,-0.047
4.698,-0.048
4.699,-0.053
4.700,-0.051
4.701,-0.053
4.702,-0.052
4.703,-0.050
4.704,-0.049
4.705,-0.047
4.706,-0.047
4.707,-0.047
4.708,-0.048
4.709,-0.050
4.710,-0.047
4.711,-0.050
4.712,-0.050
4.713,-0.050
4.714,-0.051
4.715,-0.053
4.716,-0.053
4.717,-0.053
4.718,-0.052
4.719,-0.050
4.720,-0.050
4.721,-0.053
4.722,-0.052
4.723,-0.050
4.724,-0.050
4.725,-0.050
4.726,-0.051
4.727,-0.053
4.728,-0.049
4.729,-0.044
4.730,-0.044
4.731,-0.044
4.732,-0.047
4.733,-0.050
4.734,-0.051
4.735,-0.053
4.736,-0.056
4.737,-0.059
4.738,-0.059
4.739,-0.059
4.740,-0.059
4.741,-0.059
4.742,-0.058
4.743,-0.056
4.744,-0.056
4.745,-0.056
4.746,-0.056
4.747,-0.056
4.748,-0.059
4.749,-0.063
4.750,-0.059
4.751,-0.056
4.752,-0.058
4.753,-0.059
4.754,-0.061
4.755,-0.063
4.756,-0.063
4.757,-0.063
4.758,-0.059
4.759,-0.056
4.760,-0.056
4.761,-0.056
4.762,-0.056
4.763,-0.056
4.764,-0.059
4.765,-0.063
4.766,-0.061
4.767,-0.059
4.768,-0.058
4.769,-0.063
4.770,-0.064
4.771,-0.066
4.772,-0.064
4.773,-0.066
4.774,-0.064
4.775,-0.063
4.776,-0.069
4.777,-0.069
4.778,-0.064
4.779,-0.066
4.780,-0.061
4.781,-0.059
4.782,-0.063
4.783,-0.063
4.784,-0.061
4.785,-0.063
4.786,-0.063
4.787,-0.059
4.788,-0.059
4.789,-0.059
4.790,-0.056
4.791,-0.059
4.792,-0.063
4.793,-0.063
4.794,-0.063
4.795,-0.063
4.796,-0.063
4.797,-0.063
4.798,-0.063
4.799,-0.063
4.800,-0.063
4.801,-0.066
4.802,-0.064
4.803,-0.063
4.804,-0.058
4.805,-0.059
4.806,-0.059
4.807,-0.056
4.808,-0.056
4.809,-0.056
4.810,-0.056
4.811,-0.056
4.812,-0.061
4.813,-0.063
4.814,-0.066
4.815,-0.072
4.816,-0.072
4.817,-0.072
4.818,-0.069
4.819,-0.069
4.820,-0.068
4.821,-0.069
4.822,-0.066
4.823,-0.066
4.824,-0.069
4.825,-0.069
4.826,-0.064
4.827,-0.063
4.828,-0.063
4.829,-0.063
4.830,-0.063
4.831,-0.063
4.832,-0.063
4.833,-0.063
4.834,-0.059
4.835,-0.063
4.836,-0.063
4.837,-0.063
4.838,-0.064
4.839,-0.066
4.840,-0.063
4.841,-0.066
4.842,-0.066
4.843,-0.066
4.844,-0.066
4.845,-0.066
4.846,-0.064
4.847,-0.063
4.848,-0.059
4.849,-0.059
4.850,-0.055
4.851,-0.053
4.852,-0.059
4.853,-0.059
4.854,-0.059
4.855,-0.063
4.856,-0.067
4.857,-0.066
4.858,-0.064
4.859,-0.066
4.860,-0.061
4.861,-0.056
4.862,-0.059
4.863,-0.056
4.864,-0.059
4.865,-0.063
4.866,-0.064
4.867,-0.063
4.868,-0.061
4.869,-0.063
4.870,-0.066
4.871,-0.066
4.872,-0.063
4.873,-0.059
4.874,-0.059
4.875,-0.056
4.876,-0.059
4.877,-0.063
4.878,-0.061
4.879,-0.063
4.880,-0.061
4.881,-0.063
4.882,-0.063
4.883,-0.063
4.884,-0.064
4.885,-0.063
4.886,-0.059
4.887,-0.059
4.888,-0.058
4.889,-0.056
4.890,-0.058
4.891,-0.056
4.892,-0.066
4.893,-0.069
4.894,-0.064
4.895,-0.066
4.896,-0.067
4.897,-0.066
4.898,-0.064
4.899,-0.063
4.900,-0.066
4.901,-0.063
4.902,-0.064
4.903,-0.063
4.904,-0.064
4.905,-0.066
4.906,-0.064
4.907,-0.066
4.908,-0.066
4.909,-0.066
4.910,-0.067
4.911,-0.069
4.912,-0.068
4.913,-0.066
4.914,-0.068
4.915,-0.069
4.916,-0.070
4.917,-0.069
4.918,-0.072
4.919,-0.072
4.920,-0.070
4.921,-0.069
4.922,-0.068
4.923,-0.066
4.924,-0.067
4.925,-0.069
4.926,-0.066
4.927,-0.066
4.928,-0.067
4.929,-0.069
4.930,-0.066
4.931,-0.066
4.932,-0.063
4.933,-0.059
4.934,-0.056
4.935,-0.059
4.936,-0.063
4.937,-0.063
4.938,-0.064
4.939,-0.069
4.940,-0.066
4.941,-0.066
4.942,-0.069
4.943,-0.066
4.944,-0.061
4.945,-0.059
4.946,-0.061
4.947,-0.063
4.948,-0.063
4.949,-0.063
4.950,-0.066
4.951,-0.059
4.952,-0.064
4.953,-0.066
4.954,-0.059
4.955,-0.063
4.956,-0.063
4.957,-0.063
4.958,-0.061
4.959,-0.063
4.960,-0.059
4.961,-0.059
4.962,-0.056
4.963,-0.056
4.964,-0.058
4.965,-0.063
4.966,-0.063
4.967,-0.063
4.968,-0.063
4.969,-0.063
4.970,-0.059
4.971,-0.056
4.972,-0.056
4.973,-0.056
4.974,-0.056
4.975,-0.059
4.976,-0.056
4.977,-0.056
4.978,-0.058
4.979,-0.056
4.980,-0.058
4.981,-0.056
4.982,-0.058
4.983,-0.056
4.984,-0.055
4.985,-0.053
4.986,-0.058
4.987,-0.059
4.988,-0.061
4.989,-0.063
4.990,-0.059
4.991,-0.063
4.992,-0.061
4.993,-0.059
4.994,-0.064
4.995,-0.063
4.996,-0.063
4.997,-0.059
4.998,-0.059
4.999,-0.059
5.000,-0.059
5.001,-0.056
5.002,-0.061
5.003,-0.059
5.004,-0.063
5.005,-0.063
5.006,-0.063
5.007,-0.063
5.008,-0.063
5.009,-0.063
5.010,-0.059
5.011,-0.059
5.012,-0.056
5.013,-0.056
5.014,-0.058
5.015,-0.063
5.016,-0.063
5.017,-0.063
5.018,-0.064
5.019,-0.066
5.020,-0.066
5.021,-0.066
5.022,-0.063
5.023,-0.059
5.024,-0.056
5.025,-0.059
5.026,-0.056
5.027,-0.056
5.028,-0.058
5.029,-0.056
5.030,-0.054
5.031,-0.056
5.032,-0.058
5.033,-0.063
5.034,-0.058
5.035,-0.056
5.036,-0.058
5.037,-0.059
5.038,-0.058
5.039,-0.056
5.040,-0.056
5.041,-0.059
5.042,-0.059
5.043,-0.059
5.044,-0.056
5.045,-0.056
5.046,-0.059
5.047,-0.056
5.048,-0.058
5.049,-0.059
5.050,-0.059
5.051,-0.059
5.052,-0.059
5.053,-0.059
5.054,-0.061
5.055,-0.063
5.056,-0.063
5.057,-0.063
5.058,-0.063
5.059,-0.063
5.060,-0.063
5.061,-0.063
5.062,-0.061
5.063,-0.059
5.064,-0.061
5.065,-0.059
5.066,-0.053
5.067,-0.050
5.068,-0.051
5.069,-0.050
5.070,-0.050
5.071,-0.050
5.072,-0.041
5.073,-0.031
5.074,-0.018
5.075,-0.013
5.076,-0.008
5.077,-0.003
5.078,-0.001
5.079,-0.003
5.080,-0.003
5.081,-0.006
5.082,-0.006
5.083,-0.006
5.084,-0.004
5.085,-0.006
5.086,-0.005
5.087,-0.006
5.088,-0.003
5.089,-0.006
5.090,-0.008
5.091,-0.009
5.092,-0.005
5.093,-0.003
5.094,0.007
5.095,0.022
5.096,0.030
5.097,0.047
5.098,0.062
5.099,0.078
5.100,0.096
5.101,0.113
5.102,0.124
5.103,0.131
5.104,0.133
5.105,0.125
5.106,0.126
5.107,0.125
5.108,0.119
5.109,0.119
5.110,0.119
5.111,0.119
5.112,0.120
5.113,0.119
5.114,0.118
5.115,0.109
5.116,0.107
5.117,0.106
5.118,0.100
5.119,0.091
5.120,0.084
5.121,0.084
5.122,0.084
5.123,0.084
5.124,0.078
5.125,0.072
5.126,0.066
5.127,0.056
5.128,0.054
5.129,0.053
5.130,0.056
5.131,0.056
5.132,0.052
5.133,0.050
5.134,0.051
5.135,0.050
5.136,0.047
5.137,0.044
5.138,0.043
5.139,0.044
5.140,0.047
5.141,0.047
5.142,0.041
5.143,0.034
5.144,0.031
5.145,0.022
5.146,0.011
5.147,0.003
5.148,-0.006
5.149,-0.016
5.150,-0.022
5.151,-0.022
5.152,-0.027
5.153,-0.028
5.154,-0.028
5.155,-0.028
5.156,-0.031
5.157,-0.038
5.158,-0.042
5.159,-0.047
5.160,-0.050
5.161,-0.053
5.162,-0.053
5.163,-0.053
5.164,-0.054
5.165,-0.056
5.166,-0.058
5.167,-0.059
5.168,-0.063
5.169,-0.063
5.170,-0.064
5.171,-0.066
5.172,-0.068
5.173,-0.063
5.174,-0.068
5.175,-0.066
5.176,-0.070
5.177,-0.069
5.178,-0.064
5.179,-0.066
5.180,-0.067
5.181,-0.069
5.182,-0.073
5.183,-0.075
5.184,-0.074
5.185,-0.075
5.186,-0.079
5.187,-0.084
5.188,-0.086
5.189,-0.084
5.190,-0.088
5.191,-0.088
5.192,-0.088
5.193,-0.091
5.194,-0.091
5.195,-0.091
5.196,-0.088
5.197,-0.088
5.198,-0.091
5.199,-0.091
5.200,-0.091
5.201,-0.091
5.202,-0.092
5.203,-0.094
5.204,-0.093
5.205,-0.094
5.206,-0.092
5.207,-0.094
5.208,-0.094
5.209,-0.094
5.210,-0.093
5.211,-0.091
5.212,-0.089
5.213,-0.088
5.214,-0.086
5.215,-0.088
5.216,-0.089
5.217,-0.088
5.218,-0.088
5.219,-0.088
5.220,-0.086
5.221,-0.088
5.222,-0.086
5.223,-0.081
5.224,-0.080
5.225,-0.078
5.226,-0.075
5.227,-0.078
5.228,-0.074
5.229,-0.075
5.230,-0.079
5.231,-0.088
5.232,-0.100
5.233,-0.109
5.234,-0.120
5.235,-0.119
5.236,-0.113
5.237,-0.106
5.238,-0.095
5.239,-0.081
5.240,-0.063
5.241,-0.034
5.242,-0.008
5.243,0.003
5.244,0.012
5.245,0.028
5.246,0.036
5.247,0.062
5.248,0.080
5.249,0.122
5.250,0.159
5.251,0.222
5.252,0.284
5.253,0.347
5.254,0.409
5.255,0.462
5.256,0.517
5.257,0.594
5.258,0.657
5.259,0.681
5.260,0.689
5.261,0.709
5.262,0.753
5.263,0.834
5.264,0.916
5.265,0.981
5.266,1.022
5.267,1.000
5.268,0.954
5.269,0.844
5.270,0.709
5.271,0.584
5.272,0.456
5.273,0.378
5.274,0.303
5.275,0.244
5.276,0.193
5.277,0.153
5.278,0.130
5.279,0.109
5.280,0.086
5.281,0.059
5.282,0.034
5.283,0.028
5.284,0.028
5.285,0.028
5.286,0.030
5.287,0.028
5.288,0.031
5.289,0.038
5.290,0.053
5.291,0.072
5.292,0.089
5.293,0.091
5.294,0.094
5.295,0.100
5.296,0.111
5.297,0.109
5.298,0.107
5.299,0.100
5.300,0.087
5.301,0.078
5.302,0.064
5.303,0.053
5.304,0.045
5.305,0.041
5.306,0.038
5.307,0.031
5.308,0.019
5.309,0.009
5.310,0.003
5.311,0.000
5.312,0.000
5.313,0.003
5.314,0.004
5.315,0.003
5.316,0.004
5.317,0.006
5.318,0.002
5.319,0.000
5.320,-0.004
5.321,-0.009
5.322,-0.013
5.323,-0.016
5.324,-0.016
5.325,-0.019
5.326,-0.020
5.327,-0.022
5.328,-0.025
5.329,-0.025
5.330,-0.025
5.331,-0.022
5.332,-0.021
5.333,-0.019
5.334,-0.019
5.335,-0.022
5.336,-0.023
5.337,-0.028
5.338,-0.028
5.339,-0.025
5.340,-0.030
5.341,-0.028
5.342,-0.031
5.343,-0.034
5.344,-0.028
5.345,-0.031
5.346,-0.031
5.347,-0.031
5.348,-0.031
5.349,-0.031
5.350,-0.031
5.351,-0.031
5.352,-0.030
5.353,-0.025
5.354,-0.028
5.355,-0.028
5.356,-0.025
5.357,-0.025
5.358,-0.024
5.359,-0.022
5.360,-0.023
5.361,-0.025
5.362,-0.024
5.363,-0.019
5.364,-0.018
5.365,-0.019
5.366,-0.020
5.367,-0.019
5.368,-0.025
5.369,-0.025
5.370,-0.025
5.371,-0.025
5.372,-0.021
5.373,-0.019
5.374,-0.016
5.375,-0.016
5.376,-0.016
5.377,-0.013
5.378,-0.016
5.379,-0.013
5.380,-0.014
5.381,-0.016
5.382,-0.014
5.383,-0.016
5.384,-0.013
5.385,-0.013
5.386,-0.013
5.387,-0.013
5.388,-0.013
5.389,-0.013
5.390,-0.013
5.391,-0.013
5.392,-0.011
5.393,-0.013
5.394,-0.014
5.395,-0.016
5.396,-0.016
5.397,-0.016
5.398,-0.016
5.399,-0.016
5.400,-0.014
5.401,-0.013
5.402,-0.011
5.403,-0.013
5.404,-0.013
5.405,-0.013
5.406,-0.014
5.407,-0.016
5.408,-0.016
5.409,-0.016
5.410,-0.017
5.411,-0.019
5.412,-0.019
5.413,-0.019
5.414,-0.019
5.415,-0.019
5.416,-0.016
5.417,-0.016
5.418,-0.013
5.419,-0.009
5.420,-0.011
5.421,-0.013
5.422,-0.013
5.423,-0.013
5.424,-0.013
5.425,-0.013
5.426,-0.013
5.427,-0.013
5.428,-0.013
5.429,-0.009
5.430,-0.009
5.431,-0.009
5.432,-0.009
5.433,-0.009
5.434,-0.009
5.435,-0.009
5.436,-0.011
5.437,-0.013
5.438,-0.008
5.439,-0.009
5.440,-0.008
5.441,-0.006
5.442,-0.006
5.443,-0.006
5.444,-0.006
5.445,-0.006
5.446,-0.006
5.447,-0.003
5.448,-0.002
5.449,0.000
5.450,-0.003
5.451,0.000
5.452,-0.001
5.453,0.000
5.454,0.003
5.455,0.003
5.456,-0.001
5.457,0.000
5.458,0.000
5.459,0.000
5.460,-0.001
5.461,-0.006
5.462,-0.003
5.463,-0.003
5.464,-0.003
5.465,-0.003
5.466,-0.004
5.467,-0.003
5.468,-0.003
5.469,-0.003
5.470,-0.002
5.471,0.003
5.472,0.003
5.473,0.003
5.474,0.004
5.475,0.003
5.476,0.006
5.477,0.003
5.478,0.002
5.479,0.003
5.480,0.004
5.481,0.003
5.482,0.007
5.483,0.009
5.484,0.009
5.485,0.009
5.486,0.011
5.487,0.012
5.488,0.012
5.489,0.009
5.490,0.005
5.491,0.006
5.492,0.006
5.493,0.003
5.494,0.003
5.495,0.003
5.496,0.006
5.497,0.012
5.498,0.009
5.499,0.009
5.500,0.009
5.501,0.012
5.502,0.009
5.503,0.009
5.504,0.011
5.505,0.009
5.506,0.007
5.507,0.009
5.508,0.008
5.509,0.006
5.510,0.006
5.511,0.006
5.512,0.004
5.513,0.009
5.514,0.009
5.515,0.009
5.516,0.009
5.517,0.009
5.518,0.007
5.519,0.009
5.520,0.012
5.521,0.009
5.522,0.012
5.523,0.012
5.524,0.012
5.525,0.012
5.526,0.009
5.527,0.009
5.528,0.008
5.529,0.006
5.530,0.006
5.531,0.006
5.532,0.004
5.533,0.006
5.534,0.006
5.535,0.006
5.536,0.007
5.537,0.009
5.538,0.009
5.539,0.009
5.540,0.009
5.541,0.009
5.542,0.008
5.543,0.006
5.544,0.006
5.545,0.009
5.546,0.009
5.547,0.009
5.548,0.009
5.549,0.009
5.550,0.008
5.551,0.006
5.552,0.006
5.553,0.006
5.554,0.003
5.555,0.003
5.556,0.003
5.557,0.003
5.558,0.006
5.559,0.006
5.560,0.000
5.561,0.000
5.562,0.000
5.563,0.000
5.564,0.003
5.565,0.003
5.566,0.003
5.567,0.006
5.568,0.007
5.569,0.006
5.570,0.007
5.571,0.009
5.572,0.008
5.573,0.006
5.574,0.006
5.575,0.006
5.576,0.003
5.577,0.006
5.578,0.009
5.579,0.009
5.580,0.009
5.581,0.009
5.582,0.009
5.583,0.009
5.584,0.006
5.585,0.006
5.586,0.007
5.587,0.006
5.588,0.009
5.589,0.006
5.590,0.009
5.591,0.012
5.592,0.012
5.593,0.012
5.594,0.012
5.595,0.012
5.596,0.014
5.597,0.019
5.598,0.016
5.599,0.012
5.600,0.014
5.601,0.012
5.602,0.016
5.603,0.019
5.604,0.019
5.605,0.022
5.606,0.022
5.607,0.022
5.608,0.016
5.609,0.009
5.610,0.014
5.611,0.016
5.612,0.016
5.613,0.019
5.614,0.023
5.615,0.025
5.616,0.024
5.617,0.025
5.618,0.025
5.619,0.028
5.620,0.036
5.621,0.041
5.622,0.039
5.623,0.041
5.624,0.041
5.625,0.044
5.626,0.048
5.627,0.047
5.628,0.046
5.629,0.050
5.630,0.049
5.631,0.047
5.632,0.047
5.633,0.047
5.634,0.048
5.635,0.053
5.636,0.055
5.637,0.053
5.638,0.057
5.639,0.059
5.640,0.064
5.641,0.066
5.642,0.069
5.643,0.069
5.644,0.075
5.645,0.078
5.646,0.075
5.647,0.078
5.648,0.081
5.649,0.087
5.650,0.086
5.651,0.087
5.652,0.089
5.653,0.091
5.654,0.091
5.655,0.094
5.656,0.096
5.657,0.097
5.658,0.099
5.659,0.100
5.660,0.099
5.661,0.100
5.662,0.109
5.663,0.113
5.664,0.111
5.665,0.106
5.666,0.106
5.667,0.109
5.668,0.109
5.669,0.113
5.670,0.109
5.671,0.113
5.672,0.114
5.673,0.113
5.674,0.117
5.675,0.119
5.676,0.114
5.677,0.113
5.678,0.116
5.679,0.116
5.680,0.117
5.681,0.119
5.682,0.114
5.683,0.119
5.684,0.120
5.685,0.119
5.686,0.111
5.687,0.109
5.688,0.109
5.689,0.106
5.690,0.113
5.691,0.106
5.692,0.102
5.693,0.097
5.694,0.100
5.695,0.097
5.696,0.098
5.697,0.097
5.698,0.100
5.699,0.100
5.700,0.094
5.701,0.094
5.702,0.094
5.703,0.087
5.704,0.087
5.705,0.084
5.706,0.082
5.707,0.081
5.708,0.074
5.709,0.069
5.710,0.070
5.711,0.066
5.712,0.062
5.713,0.062
5.714,0.066
5.715,0.062
5.716,0.062
5.717,0.059
5.718,0.061
5.719,0.062
5.720,0.058
5.721,0.053
5.722,0.054
5.723,0.050
5.724,0.047
5.725,0.041
5.726,0.042
5.727,0.041
5.728,0.039
5.729,0.041
5.730,0.038
5.731,0.038
5.732,0.036
5.733,0.038
5.734,0.034
5.735,0.031
5.736,0.030
5.737,0.025
5.738,0.024
5.739,0.016
5.740,0.016
5.741,0.016
5.742,0.012
5.743,0.012
5.744,0.012
5.745,0.012
5.746,0.011
5.747,0.009
5.748,0.003
5.749,0.003
5.750,0.001
5.751,0.003
5.752,-0.002
5.753,0.000
5.754,0.001
5.755,0.003
5.756,0.000
5.757,0.000
5.758,0.000
5.759,-0.003
5.760,-0.004
5.761,-0.006
5.762,-0.005
5.763,-0.006
5.764,-0.008
5.765,-0.013
5.766,-0.009
5.767,-0.013
5.768,-0.013
5.769,-0.013
5.770,-0.013
5.771,-0.016
5.772,-0.017
5.773,-0.016
5.774,-0.016
5.775,-0.016
5.776,-0.014
5.777,-0.016
5.778,-0.017
5.779,-0.019
5.780,-0.019
5.781,-0.019
5.782,-0.019
5.783,-0.019
5.784,-0.021
5.785,-0.019
5.786,-0.023
5.787,-0.025
5.788,-0.022
5.789,-0.025
5.790,-0.025
5.791,-0.025
5.792,-0.025
5.793,-0.022
5.794,-0.022
5.795,-0.019
5.796,-0.020
5.797,-0.022
5.798,-0.022
5.799,-0.022
5.800,-0.021
5.801,-0.022
5.802,-0.021
5.803,-0.022
5.804,-0.025
5.805,-0.025
5.806,-0.025
5.807,-0.025
5.808,-0.029
5.809,-0.028
5.810,-0.028
5.811,-0.031
5.812,-0.030
5.813,-0.031
5.814,-0.025
5.815,-0.028
5.816,-0.031
5.817,-0.031
5.818,-0.027
5.819,-0.028
5.820,-0.032
5.821,-0.034
5.822,-0.036
5.823,-0.038
5.824,-0.034
5.825,-0.034
5.826,-0.033
5.827,-0.031
5.828,-0.031
5.829,-0.031
5.830,-0.027
5.831,-0.028
5.832,-0.031
5.833,-0.031
5.834,-0.032
5.835,-0.031
5.836,-0.031
5.837,-0.034
5.838,-0.034
5.839,-0.034
5.840,-0.038
5.841,-0.034
5.842,-0.036
5.843,-0.034
5.844,-0.034
5.845,-0.034
5.846,-0.036
5.847,-0.034
5.848,-0.034
5.849,-0.034
5.850,-0.030
5.851,-0.031
5.852,-0.033
5.853,-0.031
5.854,-0.036
5.855,-0.038
5.856,-0.036
5.857,-0.038
5.858,-0.038
5.859,-0.038
5.860,-0.036
5.861,-0.038
5.862,-0.034
5.863,-0.034
5.864,-0.034
5.865,-0.034
5.866,-0.038
5.867,-0.038
5.868,-0.038
5.869,-0.038
5.870,-0.036
5.871,-0.038
5.872,-0.038
5.873,-0.031
5.874,-0.036
5.875,-0.034
5.876,-0.034
5.877,-0.038
5.878,-0.034
5.879,-0.038
5.880,-0.036
5.881,-0.038
5.882,-0.038
5.883,-0.038
5.884,-0.036
5.885,-0.038
5.886,-0.036
5.887,-0.038
5.888,-0.039
5.889,-0.041
5.890,-0.042
5.891,-0.044
5.892,-0.043
5.893,-0.041
5.894,-0.034
5.895,-0.031
5.896,-0.038
5.897,-0.034
5.898,-0.034
5.899,-0.034
5.900,-0.034
5.901,-0.038
5.902,-0.034
5.903,-0.038
5.904,-0.039
5.905,-0.041
5.906,-0.039
5.907,-0.041
5.908,-0.042
5.909,-0.044
5.910,-0.043
5.911,-0.041
5.912,-0.043
5.913,-0.038
5.914,-0.038
5.915,-0.038
5.916,-0.041
5.917,-0.041
5.918,-0.038
5.919,-0.034
5.920,-0.036
5.921,-0.038
5.922,-0.036
5.923,-0.041
5.924,-0.042
5.925,-0.044
5.926,-0.044
5.927,-0.044
5.928,-0.041
5.929,-0.038
5.930,-0.039
5.931,-0.041
5.932,-0.041
5.933,-0.041
5.934,-0.041
5.935,-0.041
5.936,-0.042
5.937,-0.044
5.938,-0.044
5.939,-0.047
5.940,-0.045
5.941,-0.047
5.942,-0.047
5.943,-0.047
5.944,-0.046
5.945,-0.044
5.946,-0.044
5.947,-0.044
5.948,-0.047
5.949,-0.050
5.950,-0.046
5.951,-0.047
5.952,-0.048
5.953,-0.050
5.954,-0.051
5.955,-0.053
5.956,-0.054
5.957,-0.056
5.958,-0.056
5.959,-0.056
5.960,-0.053
5.961,-0.053
5.962,-0.052
5.963,-0.050
5.964,-0.050
5.965,-0.050
5.966,-0.051
5.967,-0.053
5.968,-0.053
5.969,-0.053
5.970,-0.053
5.971,-0.053
5.972,-0.053
5.973,-0.053
5.974,-0.053
5.975,-0.053
5.976,-0.054
5.977,-0.056
5.978,-0.053
5.979,-0.050
5.980,-0.053
5.981,-0.056
5.982,-0.055
5.983,-0.053
5.984,-0.052
5.985,-0.050
5.986,-0.050
5.987,-0.050
5.988,-0.051
5.989,-0.053
5.990,-0.053
5.991,-0.053
5.992,-0.053
5.993,-0.053
5.994,-0.056
5.995,-0.059
5.996,-0.059
5.997,-0.056
5.998,-0.056
5.999,-0.053
6.000,-0.053
6.001,-0.050
6.002,-0.051
6.003,-0.053
6.004,-0.053
6.005,-0.056
6.006,-0.053
6.007,-0.050
6.008,-0.053
6.009,-0.053
6.010,-0.058
6.011,-0.059
6.012,-0.056
6.013,-0.056
6.014,-0.059
6.015,-0.059
6.016,-0.055
6.017,-0.053
6.018,-0.053
6.019,-0.050
6.020,-0.052
6.021,-0.053
6.022,-0.053
6.023,-0.053
6.024,-0.053
6.025,-0.053
6.026,-0.056
6.027,-0.059
6.028,-0.058
6.029,-0.056
6.030,-0.061
6.031,-0.063
6.032,-0.063
6.033,-0.059
6.034,-0.063
6.035,-0.063
6.036,-0.063
6.037,-0.066
6.038,-0.066
6.039,-0.066
6.040,-0.064
6.041,-0.066
6.042,-0.064
6.043,-0.063
6.044,-0.059
6.045,-0.053
6.046,-0.054
6.047,-0.053
6.048,-0.054
6.049,-0.056
6.050,-0.059
6.051,-0.056
6.052,-0.056
6.053,-0.056
6.054,-0.054
6.055,-0.056
6.056,-0.061
6.057,-0.063
6.058,-0.063
6.059,-0.063
6.060,-0.061
6.061,-0.059
6.062,-0.056
6.063,-0.050
6.064,-0.054
6.065,-0.056
6.066,-0.056
6.067,-0.056
6.068,-0.058
6.069,-0.056
6.070,-0.059
6.071,-0.059
6.072,-0.058
6.073,-0.056
6.074,-0.056
6.075,-0.056
6.076,-0.056
6.077,-0.056
6.078,-0.061
6.079,-0.059
6.080,-0.056
6.081,-0.059
6.082,-0.058
6.083,-0.053
6.084,-0.054
6.085,-0.059
6.086,-0.058
6.087,-0.056
6.088,-0.056
6.089,-0.056
6.090,-0.055
6.091,-0.056
6.092,-0.054
6.093,-0.056
6.094,-0.055
6.095,-0.056
6.096,-0.058
6.097,-0.056
6.098,-0.055
6.099,-0.056
6.100,-0.056
6.101,-0.056
6.102,-0.056
6.103,-0.056
6.104,-0.052
6.105,-0.053
6.106,-0.058
6.107,-0.056
6.108,-0.058
6.109,-0.056
6.110,-0.056
6.111,-0.056
6.112,-0.055
6.113,-0.056
6.114,-0.058
6.115,-0.056
6.116,-0.055
6.117,-0.053
6.118,-0.052
6.119,-0.053
6.120,-0.053
6.121,-0.056
6.122,-0.054
6.123,-0.053
6.124,-0.058
6.125,-0.059
6.126,-0.058
6.127,-0.059
6.128,-0.056
6.129,-0.056
6.130,-0.053
6.131,-0.056
6.132,-0.059
6.133,-0.063
6.134,-0.064
6.135,-0.063
6.136,-0.063
6.137,-0.063
6.138,-0.059
6.139,-0.056
6.140,-0.056
6.141,-0.056
6.142,-0.055
6.143,-0.056
6.144,-0.058
6.145,-0.056
6.146,-0.053
6.147,-0.056
6.148,-0.059
6.149,-0.059
6.150,-0.058
6.151,-0.059
6.152,-0.059
6.153,-0.059
6.154,-0.058
6.155,-0.056
6.156,-0.061
6.157,-0.063
6.158,-0.066
6.159,-0.066
6.160,-0.066
6.161,-0.066
6.162,-0.058
6.163,-0.050
6.164,-0.056
6.165,-0.056
6.166,-0.053
6.167,-0.053
6.168,-0.059
6.169,-0.059
6.170,-0.059
6.171,-0.063
6.172,-0.059
6.173,-0.056
6.174,-0.056
6.175,-0.056
6.176,-0.056
6.177,-0.056
6.178,-0.055
6.179,-0.059
6.180,-0.058
6.181,-0.063
6.182,-0.063
6.183,-0.056
6.184,-0.058
6.185,-0.056
6.186,-0.056
6.187,-0.056
6.188,-0.061
6.189,-0.059
6.190,-0.061
6.191,-0.059
6.192,-0.058
6.193,-0.056
6.194,-0.059
6.195,-0.059
6.196,-0.058
6.197,-0.056
6.198,-0.058
6.199,-0.059
6.200,-0.061
6.201,-0.063
6.202,-0.064
6.203,-0.063
6.204,-0.061
6.205,-0.059
6.206,-0.063
6.207,-0.063
6.208,-0.059
6.209,-0.063
6.210,-0.064
6.211,-0.066
6.212,-0.058
6.213,-0.053
6.214,-0.052
6.215,-0.053
6.216,-0.054
6.217,-0.056
6.218,-0.058
6.219,-0.056
6.220,-0.061
6.221,-0.063
6.222,-0.061
6.223,-0.063
6.224,-0.059
6.225,-0.059
6.226,-0.056
6.227,-0.056
6.228,-0.056
6.229,-0.059
6.230,-0.059
6.231,-0.063
6.232,-0.059
6.233,-0.059
6.234,-0.056
6.235,-0.056
6.236,-0.058
6.237,-0.059
6.238,-0.058
6.239,-0.056
6.240,-0.061
6.241,-0.059
6.242,-0.058
6.243,-0.056
6.244,-0.058
6.245,-0.056
6.246,-0.056
6.247,-0.056
6.248,-0.058
6.249,-0.059
6.250,-0.058
6.251,-0.056
6.252,-0.058
6.253,-0.056
6.254,-0.059
6.255,-0.056
6.256,-0.056
6.257,-0.059
6.258,-0.061
6.259,-0.059
6.260,-0.058
6.261,-0.056
6.262,-0.061
6.263,-0.059
6.264,-0.061
6.265,-0.063
6.266,-0.063
6.267,-0.063
6.268,-0.061
6.269,-0.059
6.270,-0.063
6.271,-0.063
6.272,-0.064
6.273,-0.063
6.274,-0.059
6.275,-0.059
6.276,-0.056
6.277,-0.056
6.278,-0.056
6.279,-0.056
6.280,-0.058
6.281,-0.059
6.282,-0.061
6.283,-0.063
6.284,-0.061
6.285,-0.059
6.286,-0.059
6.287,-0.059
6.288,-0.059
6.289,-0.059
6.290,-0.059
6.291,-0.059
6.292,-0.059
6.293,-0.059
6.294,-0.059
6.295,-0.059
6.296,-0.056
6.297,-0.053
6.298,-0.050
6.299,-0.047
6.300,-0.043
6.301,-0.034
6.302,-0.028
6.303,-0.019
6.304,-0.022
6.305,-0.022
6.306,-0.020
6.307,-0.019
6.308,-0.019
6.309,-0.016
6.310,-0.014
6.311,-0.013
6.312,-0.013
6.313,-0.009
6.314,-0.009
6.315,-0.009
6.316,-0.013
6.317,-0.009
6.318,-0.013
6.319,-0.013
6.320,-0.011
6.321,-0.006
6.322,-0.005
6.323,0.003
6.324,0.016
6.325,0.028
6.326,0.044
6.327,0.056
6.328,0.075
6.329,0.097
6.330,0.109
6.331,0.116
6.332,0.122
6.333,0.125
6.334,0.122
6.335,0.122
6.336,0.119
6.337,0.113
6.338,0.114
6.339,0.116
6.340,0.119
6.341,0.122
6.342,0.120
6.343,0.122
6.344,0.114
6.345,0.109
6.346,0.105
6.347,0.097
6.348,0.087
6.349,0.081
6.350,0.081
6.351,0.081
6.352,0.080
6.353,0.075
6.354,0.069
6.355,0.059
6.356,0.050
6.357,0.047
6.358,0.045
6.359,0.047
6.360,0.044
6.361,0.044
6.362,0.047
6.363,0.047
6.364,0.047
6.365,0.047
6.366,0.044
6.367,0.044
6.368,0.044
6.369,0.044
6.370,0.044
6.371,0.041
6.372,0.041
6.373,0.038
6.374,0.025
6.375,0.016
6.376,0.009
6.377,0.000
6.378,-0.008
6.379,-0.013
6.380,-0.016
6.381,-0.025
6.382,-0.029
6.383,-0.034
6.384,-0.038
6.385,-0.041
6.386,-0.048
6.387,-0.053
6.388,-0.055
6.389,-0.056
6.390,-0.056
6.391,-0.053
6.392,-0.052
6.393,-0.050
6.394,-0.049
6.395,-0.050
6.396,-0.052
6.397,-0.053
6.398,-0.058
6.399,-0.063
6.400,-0.063
6.401,-0.066
6.402,-0.063
6.403,-0.069
6.404,-0.070
6.405,-0.075
6.406,-0.073
6.407,-0.072
6.408,-0.075
6.409,-0.075
6.410,-0.072
6.411,-0.072
6.412,-0.071
6.413,-0.069
6.414,-0.072
6.415,-0.072
6.416,-0.073
6.417,-0.078
6.418,-0.079
6.419,-0.084
6.420,-0.084
6.421,-0.084
6.422,-0.086
6.423,-0.084
6.424,-0.088
6.425,-0.088
6.426,-0.086
6.427,-0.088
6.428,-0.088
6.429,-0.088
6.430,-0.088
6.431,-0.088
6.432,-0.088
6.433,-0.088
6.434,-0.092
6.435,-0.091
6.436,-0.089
6.437,-0.088
6.438,-0.088
6.439,-0.088
6.440,-0.088
6.441,-0.088
6.442,-0.088
6.443,-0.088
6.444,-0.089
6.445,-0.088
6.446,-0.083
6.447,-0.081
6.448,-0.083
6.449,-0.081
6.450,-0.081
6.451,-0.081
6.452,-0.078
6.453,-0.078
6.454,-0.079
6.455,-0.078
6.456,-0.080
6.457,-0.078
6.458,-0.083
6.459,-0.084
6.460,-0.094
6.461,-0.106
6.462,-0.108
6.463,-0.109
6.464,-0.106
6.465,-0.100
6.466,-0.091
6.467,-0.078
6.468,-0.058
6.469,-0.034
6.470,-0.013
6.471,0.009
6.472,0.022
6.473,0.031
6.474,0.048
6.475,0.059
6.476,0.091
6.477,0.116
6.478,0.162
6.479,0.203
6.480,0.269
6.481,0.334
6.482,0.394
6.483,0.450
6.484,0.511
6.485,0.569
6.486,0.630
6.487,0.678
6.488,0.691
6.489,0.703
6.490,0.742
6.491,0.791
6.492,0.879
6.493,0.956
6.494,0.992
6.495,0.994
6.496,0.941
6.497,0.872
6.498,0.741
6.499,0.612
6.500,0.506
6.501,0.397
6.502,0.332
6.503,0.269
6.504,0.216
6.505,0.172
6.506,0.144
6.507,0.125
6.508,0.103
6.509,0.075
6.510,0.050
6.511,0.031
6.512,0.029
6.513,0.034
6.514,0.038
6.515,0.041
6.516,0.041
6.517,0.047
6.518,0.061
6.519,0.078
6.520,0.089
6.521,0.100
6.522,0.101
6.523,0.106
6.524,0.109
6.525,0.113
6.526,0.106
6.527,0.100
6.528,0.087
6.529,0.078
6.530,0.073
6.531,0.066
6.532,0.058
6.533,0.047
6.534,0.041
6.535,0.034
6.536,0.026
6.537,0.019
6.538,0.012
6.539,0.006
6.540,0.003
6.541,0.003
6.542,0.005
6.543,0.003
6.544,0.000
6.545,0.000
6.546,-0.001
6.547,-0.006
6.548,-0.006
6.549,-0.009
6.550,-0.011
6.551,-0.013
6.552,-0.016
6.553,-0.016
6.554,-0.022
6.555,-0.025
6.556,-0.024
6.557,-0.025
6.558,-0.025
6.559,-0.025
6.560,-0.022
6.561,-0.022
6.562,-0.021
6.563,-0.019
6.564,-0.025
6.565,-0.025
6.566,-0.022
6.567,-0.022
6.568,-0.019
6.569,-0.022
6.570,-0.025
6.571,-0.028
6.572,-0.031
6.573,-0.028
6.574,-0.031
6.575,-0.031
6.576,-0.032
6.577,-0.034
6.578,-0.031
6.579,-0.028
6.580,-0.029
6.581,-0.031
6.582,-0.027
6.583,-0.028
6.584,-0.029
6.585,-0.028
6.586,-0.024
6.587,-0.019
6.588,-0.020
6.589,-0.022
6.590,-0.023
6.591,-0.025
6.592,-0.025
6.593,-0.028
6.594,-0.031
6.595,-0.031
6.596,-0.025
6.597,-0.025
6.598,-0.023
6.599,-0.025
6.600,-0.024
6.601,-0.022
6.602,-0.026
6.603,-0.025
6.604,-0.024
6.605,-0.022
6.606,-0.019
6.607,-0.022
6.608,-0.020
6.609,-0.022
6.610,-0.022
6.611,-0.019
6.612,-0.018
6.613,-0.013
6.614,-0.013
6.615,-0.013
6.616,-0.013
6.617,-0.013
6.618,-0.013
6.619,-0.013
6.620,-0.013
6.621,-0.013
6.622,-0.014
6.623,-0.013
6.624,-0.014
6.625,-0.016
6.626,-0.014
6.627,-0.013
6.628,-0.013
6.629,-0.013
6.630,-0.014
6.631,-0.013
6.632,-0.013
6.633,-0.013
6.634,-0.013
6.635,-0.013
6.636,-0.013
6.637,-0.013
6.638,-0.013
6.639,-0.013
6.640,-0.011
6.641,-0.009
6.642,-0.009
6.643,-0.009
6.644,-0.008
6.645,-0.003
6.646,-0.003
6.647,-0.003
6.648,-0.003
6.649,-0.003
6.650,-0.003
6.651,-0.003
6.652,-0.003
6.653,-0.003
6.654,-0.006
6.655,-0.009
6.656,-0.011
6.657,-0.013
6.658,-0.009
6.659,-0.009
6.660,-0.009
6.661,-0.009
6.662,-0.006
6.663,-0.003
6.664,-0.002
6.665,0.000
6.666,0.000
6.667,0.003
6.668,0.001
6.669,0.003
6.670,0.003
6.671,0.003
6.672,0.003
6.673,0.003
6.674,0.002
6.675,0.000
6.676,0.003
6.677,0.003
6.678,0.004
6.679,0.003
6.680,0.003
6.681,0.000
6.682,0.003
6.683,0.003
6.684,0.001
6.685,0.000
6.686,-0.001
6.687,-0.003
6.688,0.003
6.689,0.006
6.690,0.004
6.691,0.006
6.692,0.003
6.693,0.003
6.694,0.003
6.695,0.003
6.696,0.006
6.697,0.006
6.698,0.006
6.699,0.006
6.700,0.009
6.701,0.009
6.702,0.009
6.703,0.009
6.704,0.005
6.705,0.006
6.706,0.003
6.707,0.003
6.708,0.007
6.709,0.009
6.710,0.006
6.711,0.009
6.712,0.012
6.713,0.016
6.714,0.012
6.715,0.012
6.716,0.016
6.717,0.016
6.718,0.014
6.719,0.012
6.720,0.019
6.721,0.022
6.722,0.020
6.723,0.022
6.724,0.019
6.725,0.016
6.726,0.019
6.727,0.016
6.728,0.016
6.729,0.016
6.730,0.019
6.731,0.016
6.732,0.012
6.733,0.012
6.734,0.014
6.735,0.012
6.736,0.011
6.737,0.009
6.738,0.009
6.739,0.009
6.740,0.011
6.741,0.009
6.742,0.014
6.743,0.016
6.744,0.016
6.745,0.016
6.746,0.016
6.747,0.012
6.748,0.009
6.749,0.009
6.750,0.005
6.751,0.006
6.752,0.006
6.753,0.006
6.754,0.009
6.755,0.012
6.756,0.014
6.757,0.012
6.758,0.012
6.759,0.012
6.760,0.014
6.761,0.012
6.762,0.012
6.763,0.012
6.764,0.012
6.765,0.012
6.766,0.011
6.767,0.009
6.768,0.009
6.769,0.009
6.770,0.009
6.771,0.009
6.772,0.008
6.773,0.006
6.774,0.008
6.775,0.006
6.776,0.007
6.777,0.009
6.778,0.009
6.779,0.009
6.780,0.009
6.781,0.009
6.782,0.008
6.783,0.003
6.784,0.003
6.785,0.003
6.786,0.002
6.787,0.003
6.788,0.006
6.789,0.006
6.790,0.009
6.791,0.009
6.792,0.009
6.793,0.012
6.794,0.014
6.795,0.016
6.796,0.017
6.797,0.016
6.798,0.011
6.799,0.009
6.800,0.008
6.801,0.006
6.802,0.006
6.803,0.006
6.804,0.007
6.805,0.006
6.806,0.006
6.807,0.006
6.808,0.006
6.809,0.006
6.810,0.007
6.811,0.009
6.812,0.011
6.813,0.009
6.814,0.009
6.815,0.009
6.816,0.006
6.817,0.009
6.818,0.006
6.819,0.009
6.820,0.011
6.821,0.009
6.822,0.009
6.823,0.009
6.824,0.009
6.825,0.009
6.826,0.011
6.827,0.009
6.828,0.006
6.829,0.006
6.830,0.007
6.831,0.009
6.832,0.012
6.833,0.016
6.834,0.019
6.835,0.019
6.836,0.020
6.837,0.022
6.838,0.021
6.839,0.022
6.840,0.022
6.841,0.022
6.842,0.025
6.843,0.028
6.844,0.028
6.845,0.028
6.846,0.030
6.847,0.028
6.848,0.030
6.849,0.031
6.850,0.030
6.851,0.028
6.852,0.034
6.853,0.038
6.854,0.039
6.855,0.041
6.856,0.039
6.857,0.041
6.858,0.047
6.859,0.047
6.860,0.050
6.861,0.056
6.862,0.059
6.863,0.059
6.864,0.061
6.865,0.062
6.866,0.064
6.867,0.069
6.868,0.067
6.869,0.069
6.870,0.067
6.871,0.069
6.872,0.067
6.873,0.069
6.874,0.072
6.875,0.075
6.876,0.080
6.877,0.078
6.878,0.081
6.879,0.081
6.880,0.081
6.881,0.081
6.882,0.084
6.883,0.084
6.884,0.087
6.885,0.091
6.886,0.092
6.887,0.094
6.888,0.098
6.889,0.100
6.890,0.103
6.891,0.106
6.892,0.104
6.893,0.106
6.894,0.103
6.895,0.103
6.896,0.107
6.897,0.109
6.898,0.113
6.899,0.109
6.900,0.109
6.901,0.109
6.902,0.111
6.903,0.113
6.904,0.109
6.905,0.106
6.906,0.107
6.907,0.113
6.908,0.111
6.909,0.109
6.910,0.113
6.911,0.109
6.912,0.114
6.913,0.116
6.914,0.113
6.915,0.106
6.916,0.106
6.917,0.106
6.918,0.102
6.919,0.106
6.920,0.101
6.921,0.100
6.922,0.097
6.923,0.100
6.924,0.098
6.925,0.100
6.926,0.094
6.927,0.091
6.928,0.089
6.929,0.084
6.930,0.084
6.931,0.084
6.932,0.075
6.933,0.072
6.934,0.070
6.935,0.069
6.936,0.066
6.937,0.062
6.938,0.064
6.939,0.066
6.940,0.061
6.941,0.059
6.942,0.059
6.943,0.059
6.944,0.053
6.945,0.053
6.946,0.051
6.947,0.053
6.948,0.053
6.949,0.050
6.950,0.044
6.951,0.041
6.952,0.034
6.953,0.034
6.954,0.031
6.955,0.031
6.956,0.028
6.957,0.025
6.958,0.024
6.959,0.019
6.960,0.020
6.961,0.019
6.962,0.020
6.963,0.019
6.964,0.012
6.965,0.009
6.966,0.006
6.967,0.006
6.968,0.001
6.969,0.003
6.970,0.003
6.971,0.000
6.972,0.000
6.973,-0.003
6.974,-0.006
6.975,-0.006
6.976,-0.008
6.977,-0.013
6.978,-0.008
6.979,-0.009
6.980,-0.008
6.981,-0.013
6.982,-0.014
6.983,-0.016
6.984,-0.014
6.985,-0.016
6.986,-0.017
6.987,-0.019
6.988,-0.023
6.989,-0.025
6.990,-0.022
6.991,-0.019
6.992,-0.021
6.993,-0.019
6.994,-0.023
6.995,-0.022
6.996,-0.026
6.997,-0.028
6.998,-0.028
6.999,-0.028
7.000,-0.031
7.001,-0.031
7.002,-0.031
7.003,-0.034
7.004,-0.034
7.005,-0.034
7.006,-0.036
7.007,-0.034
7.008,-0.034
7.009,-0.034
7.010,-0.031
7.011,-0.028
7.012,-0.027
7.013,-0.028
7.014,-0.032
7.015,-0.041
7.016,-0.042
7.017,-0.041
7.018,-0.044
7.019,-0.044
7.020,-0.045
7.021,-0.047
7.022,-0.043
7.023,-0.044
7.024,-0.043
7.025,-0.041
7.026,-0.042
7.027,-0.044
7.028,-0.043
7.029,-0.041
7.030,-0.044
7.031,-0.044
7.032,-0.047
7.033,-0.047
7.034,-0.045
7.035,-0.047
7.036,-0.044
7.037,-0.044
7.038,-0.041
7.039,-0.041
7.040,-0.044
7.041,-0.044
7.042,-0.048
7.043,-0.044
7.044,-0.044
7.045,-0.044
7.046,-0.044
7.047,-0.041
7.048,-0.043
7.049,-0.044
7.050,-0.044
7.051,-0.044
7.052,-0.047
7.053,-0.047
7.054,-0.048
7.055,-0.050
7.056,-0.050
7.057,-0.050
7.058,-0.050
7.059,-0.047
7.060,-0.047
7.061,-0.047
7.062,-0.046
7.063,-0.044
7.064,-0.042
7.065,-0.044
7.066,-0.047
7.067,-0.047
7.068,-0.046
7.069,-0.047
7.070,-0.045
7.071,-0.050
7.072,-0.050
7.073,-0.050
7.074,-0.051
7.075,-0.053
7.076,-0.050
7.077,-0.050
7.078,-0.051
7.079,-0.050
7.080,-0.050
7.081,-0.050
7.082,-0.050
7.083,-0.053
7.084,-0.053
7.085,-0.050
7.086,-0.050
7.087,-0.050
7.088,-0.050
7.089,-0.050
7.090,-0.053
7.091,-0.050
7.092,-0.050
7.093,-0.050
7.094,-0.047
7.095,-0.047
7.096,-0.048
7.097,-0.050
7.098,-0.051
7.099,-0.050
7.100,-0.050
7.101,-0.053
7.102,-0.051
7.103,-0.056
7.104,-0.052
7.105,-0.050
7.106,-0.053
7.107,-0.050
7.108,-0.052
7.109,-0.050
7.110,-0.052
7.111,-0.050
7.112,-0.050
7.113,-0.047
7.114,-0.047
7.115,-0.047
7.116,-0.049
7.117,-0.047
7.118,-0.047
7.119,-0.047
7.120,-0.047
7.121,-0.047
7.122,-0.050
7.123,-0.050
7.124,-0.049
7.125,-0.053
7.126,-0.051
7.127,-0.053
7.128,-0.052
7.129,-0.050
7.130,-0.053
7.131,-0.050
7.132,-0.053
7.133,-0.053
7.134,-0.052
7.135,-0.047
7.136,-0.048
7.137,-0.050
7.138,-0.050
7.139,-0.050
7.140,-0.050
7.141,-0.053
7.142,-0.051
7.143,-0.053
7.144,-0.052
7.145,-0.053
7.146,-0.053
7.147,-0.053
7.148,-0.054
7.149,-0.056
7.150,-0.055
7.151,-0.050
7.152,-0.053
7.153,-0.053
7.154,-0.056
7.155,-0.059
7.156,-0.058
7.157,-0.056
7.158,-0.056
7.159,-0.056
7.160,-0.056
7.161,-0.056
7.162,-0.056
7.163,-0.056
7.164,-0.056
7.165,-0.056
7.166,-0.055
7.167,-0.053
7.168,-0.056
7.169,-0.053
7.170,-0.054
7.171,-0.056
7.172,-0.056
7.173,-0.056
7.174,-0.056
7.175,-0.056
7.176,-0.056
7.177,-0.056
7.178,-0.055
7.179,-0.050
7.180,-0.053
7.181,-0.053
7.182,-0.054
7.183,-0.056
7.184,-0.056
7.185,-0.056
7.186,-0.056
7.187,-0.056
7.188,-0.055
7.189,-0.053
7.190,-0.055
7.191,-0.053
7.192,-0.055
7.193,-0.056
7.194,-0.055
7.195,-0.053
7.196,-0.052
7.197,-0.050
7.198,-0.050
7.199,-0.050
7.200,-0.051
7.201,-0.053
7.202,-0.053
7.203,-0.053
7.204,-0.053
7.205,-0.053
7.206,-0.054
7.207,-0.056
7.208,-0.055
7.209,-0.053
7.210,-0.052
7.211,-0.050
7.212,-0.051
7.213,-0.053
7.214,-0.053
7.215,-0.053
7.216,-0.053
7.217,-0.053
7.218,-0.053
7.219,-0.050
7.220,-0.053
7.221,-0.053
7.222,-0.054
7.223,-0.053
7.224,-0.054
7.225,-0.056
7.226,-0.055
7.227,-0.056
7.228,-0.056
7.229,-0.056
7.230,-0.056
7.231,-0.053
7.232,-0.055
7.233,-0.053
7.234,-0.050
7.235,-0.050
7.236,-0.053
7.237,-0.053
7.238,-0.051
7.239,-0.053
7.240,-0.053
7.241,-0.050
7.242,-0.053
7.243,-0.056
7.244,-0.056
7.245,-0.056
7.246,-0.058
7.247,-0.059
7.248,-0.061
7.249,-0.063
7.250,-0.059
7.251,-0.056
7.252,-0.059
7.253,-0.059
7.254,-0.059
7.255,-0.056
7.256,-0.059
7.257,-0.059
7.258,-0.058
7.259,-0.059
7.260,-0.059
7.261,-0.059
7.262,-0.058
7.263,-0.059
7.264,-0.058
7.265,-0.056
7.266,-0.059
7.267,-0.059
7.268,-0.061
7.269,-0.059
7.270,-0.058
7.271,-0.056
7.272,-0.059
7.273,-0.056
7.274,-0.058
7.275,-0.059
7.276,-0.056
7.277,-0.056
7.278,-0.059
7.279,-0.059
7.280,-0.059
7.281,-0.059
7.282,-0.059
7.283,-0.059
7.284,-0.059
7.285,-0.056
7.286,-0.058
7.287,-0.056
7.288,-0.056
7.289,-0.056
7.290,-0.056
7.291,-0.053
7.292,-0.056
7.293,-0.056
7.294,-0.056
7.295,-0.056
7.296,-0.056
7.297,-0.056
7.298,-0.056
7.299,-0.056
7.300,-0.061
7.301,-0.059
7.302,-0.059
7.303,-0.066
7.304,-0.067
7.305,-0.066
7.306,-0.063
7.307,-0.063
7.308,-0.063
7.309,-0.063
7.310,-0.061
7.311,-0.059
7.312,-0.055
7.313,-0.053
7.314,-0.051
7.315,-0.053
7.316,-0.052
7.317,-0.053
7.318,-0.058
7.319,-0.059
7.320,-0.059
7.321,-0.063
7.322,-0.059
7.323,-0.056
7.324,-0.058
7.325,-0.059
7.326,-0.058
7.327,-0.063
7.328,-0.066
7.329,-0.063
7.330,-0.061
7.331,-0.056
7.332,-0.055
7.333,-0.053
7.334,-0.052
7.335,-0.053
7.336,-0.054
7.337,-0.053
7.338,-0.054
7.339,-0.056
7.340,-0.055
7.341,-0.056
7.342,-0.055
7.343,-0.056
7.344,-0.054
7.345,-0.053
7.346,-0.056
7.347,-0.056
7.348,-0.058
7.349,-0.063
7.350,-0.059
7.351,-0.059
7.352,-0.055
7.353,-0.056
7.354,-0.056
7.355,-0.056
7.356,-0.055
7.357,-0.050
7.358,-0.050
7.359,-0.050
7.360,-0.050
7.361,-0.050
7.362,-0.051
7.363,-0.053
7.364,-0.053
7.365,-0.056
7.366,-0.061
7.367,-0.063
7.368,-0.059
7.369,-0.063
7.370,-0.064
7.371,-0.063
7.372,-0.056
7.373,-0.053
7.374,-0.053
7.375,-0.053
7.376,-0.053
7.377,-0.053
7.378,-0.056
7.379,-0.056
7.380,-0.058
7.381,-0.056
7.382,-0.058
7.383,-0.059
7.384,-0.058
7.385,-0.056
7.386,-0.063
7.387,-0.063
7.388,-0.059
7.389,-0.059
7.390,-0.064
7.391,-0.063
7.392,-0.061
7.393,-0.063
7.394,-0.059
7.395,-0.056
7.396,-0.058
7.397,-0.059
7.398,-0.059
7.399,-0.059
7.400,-0.056
7.401,-0.059
7.402,-0.059
7.403,-0.066
7.404,-0.067
7.405,-0.063
7.406,-0.064
7.407,-0.063
7.408,-0.061
7.409,-0.059
7.410,-0.064
7.411,-0.063
7.412,-0.064
7.413,-0.063
7.414,-0.061
7.415,-0.059
7.416,-0.063
7.417,-0.063
7.418,-0.063
7.419,-0.063
7.420,-0.064
7.421,-0.066
7.422,-0.066
7.423,-0.066
7.424,-0.067
7.425,-0.066
7.426,-0.064
7.427,-0.063
7.428,-0.063
7.429,-0.059
7.430,-0.056
7.431,-0.059
7.432,-0.061
7.433,-0.063
7.434,-0.061
7.435,-0.063
7.436,-0.063
7.437,-0.066
7.438,-0.066
7.439,-0.066
7.440,-0.063
7.441,-0.056
7.442,-0.059
7.443,-0.059
7.444,-0.061
7.445,-0.066
7.446,-0.064
7.447,-0.066
7.448,-0.061
7.449,-0.059
7.450,-0.058
7.451,-0.059
7.452,-0.059
7.453,-0.063
7.454,-0.061
7.455,-0.063
7.456,-0.061
7.457,-0.063
7.458,-0.059
7.459,-0.056
7.460,-0.056
7.461,-0.056
7.462,-0.061
7.463,-0.059
7.464,-0.058
7.465,-0.056
7.466,-0.059
7.467,-0.059
7.468,-0.059
7.469,-0.059
7.470,-0.061
7.471,-0.063
7.472,-0.064
7.473,-0.066
7.474,-0.066
7.475,-0.063
7.476,-0.067
7.477,-0.066
7.478,-0.064
7.479,-0.066
7.480,-0.063
7.481,-0.056
7.482,-0.056
7.483,-0.056
7.484,-0.061
7.485,-0.059
7.486,-0.058
7.487,-0.056
7.488,-0.056
7.489,-0.056
7.490,-0.056
7.491,-0.056
7.492,-0.061
7.493,-0.063
7.494,-0.066
7.495,-0.066
7.496,-0.061
7.497,-0.059
7.498,-0.058
7.499,-0.059
7.500,-0.059
7.501,-0.059
7.502,-0.059
7.503,-0.059
7.504,-0.059
7.505,-0.059
7.506,-0.058
7.507,-0.056
7.508,-0.058
7.509,-0.059
7.510,-0.058
7.511,-0.056
7.512,-0.055
7.513,-0.053
7.514,-0.054
7.515,-0.056
7.516,-0.052
7.517,-0.047
7.518,-0.048
7.519,-0.050
7.520,-0.046
7.521,-0.041
7.522,-0.036
7.523,-0.028
7.524,-0.025
7.525,-0.019
7.526,-0.019
7.527,-0.016
7.528,-0.013
7.529,-0.009
7.530,-0.011
7.531,-0.009
7.532,-0.006
7.533,-0.003
7.534,-0.004
7.535,-0.003
7.536,-0.004
7.537,-0.006
7.538,-0.009
7.539,-0.006
7.540,-0.009
7.541,-0.009
7.542,-0.011
7.543,-0.009
7.544,-0.005
7.545,0.006
7.546,0.019
7.547,0.031
7.548,0.051
7.549,0.069
7.550,0.086
7.551,0.106
7.552,0.122
7.553,0.131
7.554,0.136
7.555,0.137
7.556,0.136
7.557,0.137
7.558,0.137
7.559,0.134
7.560,0.131
7.561,0.128
7.562,0.128
7.563,0.128
7.564,0.125
7.565,0.125
7.566,0.119
7.567,0.116
7.568,0.113
7.569,0.106
7.570,0.097
7.571,0.091
7.572,0.091
7.573,0.091
7.574,0.089
7.575,0.084
7.576,0.081
7.577,0.075
7.578,0.070
7.579,0.072
7.580,0.069
7.581,0.069
7.582,0.066
7.583,0.066
7.584,0.069
7.585,0.069
7.586,0.064
7.587,0.059
7.588,0.056
7.589,0.056
7.590,0.059
7.591,0.062
7.592,0.061
7.593,0.056
7.594,0.052
7.595,0.044
7.596,0.034
7.597,0.028
7.598,0.022
7.599,0.012
7.600,0.003
7.601,-0.003
7.602,-0.004
7.603,-0.013
7.604,-0.016
7.605,-0.019
7.606,-0.023
7.607,-0.028
7.608,-0.031
7.609,-0.031
7.610,-0.033
7.611,-0.034
7.612,-0.041
7.613,-0.044
7.614,-0.044
7.615,-0.044
7.616,-0.044
7.617,-0.047
7.618,-0.049
7.619,-0.050
7.620,-0.051
7.621,-0.053
7.622,-0.052
7.623,-0.053
7.624,-0.050
7.625,-0.056
7.626,-0.058
7.627,-0.063
7.628,-0.058
7.629,-0.053
7.630,-0.055
7.631,-0.053
7.632,-0.052
7.633,-0.053
7.634,-0.054
7.635,-0.056
7.636,-0.061
7.637,-0.063
7.638,-0.063
7.639,-0.066
7.640,-0.066
7.641,-0.069
7.642,-0.069
7.643,-0.069
7.644,-0.072
7.645,-0.072
7.646,-0.072
7.647,-0.069
7.648,-0.069
7.649,-0.072
7.650,-0.072
7.651,-0.072
7.652,-0.072
7.653,-0.072
7.654,-0.072
7.655,-0.072
7.656,-0.075
7.657,-0.072
7.658,-0.072
7.659,-0.072
7.660,-0.071
7.661,-0.069
7.662,-0.069
7.663,-0.069
7.664,-0.070
7.665,-0.072
7.666,-0.075
7.667,-0.075
7.668,-0.072
7.669,-0.072
7.670,-0.073
7.671,-0.072
7.672,-0.073
7.673,-0.075
7.674,-0.069
7.675,-0.066
7.676,-0.067
7.677,-0.066
7.678,-0.066
7.679,-0.063
7.680,-0.072
7.681,-0.078
7.682,-0.088
7.683,-0.100
7.684,-0.100
7.685,-0.100
7.686,-0.093
7.687,-0.081
7.688,-0.064
7.689,-0.044
7.690,-0.022
7.691,0.003
7.692,0.021
7.693,0.038
7.694,0.051
7.695,0.062
7.696,0.086
7.697,0.103
7.698,0.132
7.699,0.156
7.700,0.217
7.701,0.272
7.702,0.336
7.703,0.400
7.704,0.461
7.705,0.519
7.706,0.586
7.707,0.650
7.708,0.694
7.709,0.725
7.710,0.747
7.711,0.769
7.712,0.816
7.713,0.872
7.714,0.931
7.715,0.978
7.716,0.978
7.717,0.944
7.718,0.858
7.719,0.756
7.720,0.636
7.721,0.519
7.722,0.437
7.723,0.353
7.724,0.303
7.725,0.253
7.726,0.216
7.727,0.188
7.728,0.155
7.729,0.131
7.730,0.109
7.731,0.081
7.732,0.064
7.733,0.053
7.734,0.047
7.735,0.047
7.736,0.049
7.737,0.050
7.738,0.054
7.739,0.066
7.740,0.081
7.741,0.100
7.742,0.109
7.743,0.119
7.744,0.120
7.745,0.125
7.746,0.122
7.747,0.119
7.748,0.108
7.749,0.097
7.750,0.083
7.751,0.072
7.752,0.067
7.753,0.059
7.754,0.053
7.755,0.044
7.756,0.042
7.757,0.041
7.758,0.032
7.759,0.025
7.760,0.020
7.761,0.016
7.762,0.014
7.763,0.016
7.764,0.016
7.765,0.012
7.766,0.009
7.767,0.009
7.768,0.008
7.769,0.003
7.770,0.003
7.771,0.000
7.772,-0.003
7.773,-0.006
7.774,-0.006
7.775,-0.003
7.776,-0.005
7.777,-0.003
7.778,-0.003
7.779,-0.006
7.780,-0.008
7.781,-0.009
7.782,-0.008
7.783,-0.009
7.784,-0.009
7.785,-0.009
7.786,-0.014
7.787,-0.013
7.788,-0.011
7.789,-0.013
7.790,-0.011
7.791,-0.016
7.792,-0.017
7.793,-0.019
7.794,-0.020
7.795,-0.016
7.796,-0.016
7.797,-0.013
7.798,-0.013
7.799,-0.013
7.800,-0.014
7.801,-0.016
7.802,-0.014
7.803,-0.013
7.804,-0.009
7.805,-0.013
7.806,-0.014
7.807,-0.013
7.808,-0.013
7.809,-0.013
7.810,-0.013
7.811,-0.013
7.812,-0.013
7.813,-0.013
7.814,-0.009
7.815,-0.009
7.816,-0.011
7.817,-0.009
7.818,-0.008
7.819,-0.013
7.820,-0.008
7.821,-0.006
7.822,-0.006
7.823,-0.006
7.824,-0.009
7.825,-0.006
7.826,-0.005
7.827,-0.003
7.828,0.000
7.829,-0.003
7.830,-0.001
7.831,-0.003
7.832,-0.004
7.833,-0.003
7.834,-0.003
7.835,0.000
7.836,0.000
7.837,0.000
7.838,0.000
7.839,0.000
7.840,0.000
7.841,0.000
7.842,0.001
7.843,0.003
7.844,0.000
7.845,0.000
7.846,0.000
7.847,0.000
7.848,0.000
7.849,0.000
7.850,0.000
7.851,0.000
7.852,0.000
7.853,0.003
7.854,0.003
7.855,0.003
7.856,0.003
7.857,0.003
7.858,0.003
7.859,0.003
7.860,0.003
7.861,0.003
7.862,0.003
7.863,0.003
7.864,0.003
7.865,0.003
7.866,0.000
7.867,0.000
7.868,0.001
7.869,0.003
7.870,0.003
7.871,0.003
7.872,0.002
7.873,0.000
7.874,0.000
7.875,0.000
7.876,0.001
7.877,0.003
7.878,0.003
7.879,0.003
7.880,0.007
7.881,0.009
7.882,0.009
7.883,0.009
7.884,0.008
7.885,0.006
7.886,0.006
7.887,0.006
7.888,0.006
7.889,0.009
7.890,0.006
7.891,0.006
7.892,0.002
7.893,-0.003
7.894,-0.002
7.895,0.000
7.896,0.001
7.897,0.003
7.898,0.005
7.899,0.003
7.900,0.004
7.901,0.003
7.902,0.006
7.903,0.006
7.904,0.011
7.905,0.012
7.906,0.011
7.907,0.009
7.908,0.009
7.909,0.009
7.910,0.012
7.911,0.012
7.912,0.012
7.913,0.016
7.914,0.012
7.915,0.012
7.916,0.012
7.917,0.012
7.918,0.014
7.919,0.012
7.920,0.012
7.921,0.012
7.922,0.014
7.923,0.012
7.924,0.014
7.925,0.016
7.926,0.012
7.927,0.016
7.928,0.011
7.929,0.009
7.930,0.012
7.931,0.012
7.932,0.008
7.933,0.009
7.934,0.009
7.935,0.009
7.936,0.011
7.937,0.016
7.938,0.017
7.939,0.016
7.940,0.016
7.941,0.016
7.942,0.017
7.943,0.016
7.944,0.012
7.945,0.012
7.946,0.016
7.947,0.019
7.948,0.021
7.949,0.016
7.950,0.016
7.951,0.016
7.952,0.019
7.953,0.016
7.954,0.011
7.955,0.009
7.956,0.011
7.957,0.009
7.958,0.009
7.959,0.009
7.960,0.012
7.961,0.016
7.962,0.019
7.963,0.019
7.964,0.019
7.965,0.016
7.966,0.014
7.967,0.012
7.968,0.012
7.969,0.009
7.970,0.008
7.971,0.009
7.972,0.006
7.973,0.009
7.974,0.009
7.975,0.009
7.976,0.009
7.977,0.009
7.978,0.011
7.979,0.009
7.980,0.009
7.981,0.009
7.982,0.011
7.983,0.009
7.984,0.008
7.985,0.006
7.986,0.005
7.987,0.003
7.988,0.003
7.989,0.003
7.990,0.003
7.991,0.003
7.992,0.003
7.993,0.003
7.994,0.003
7.995,0.003
7.996,0.007
7.997,0.009
7.998,0.009
7.999,0.009
8.000,0.006
8.001,0.003
8.002,0.003
8.003,0.003
8.004,0.004
8.005,0.003
8.006,0.003
8.007,0.003
8.008,0.002
8.009,0.003
8.010,0.003
8.011,0.000
8.012,0.003
8.013,0.003
8.014,0.002
8.015,0.003
8.016,0.004
8.017,0.006
8.018,0.009
8.019,0.009
8.020,0.006
8.021,0.006
8.022,0.003
8.023,0.000
8.024,0.001
8.025,0.003
8.026,0.004
8.027,0.003
8.028,0.006
8.029,0.009
8.030,0.009
8.031,0.009
8.032,0.008
8.033,0.006
8.034,0.007
8.035,0.006
8.036,0.006
8.037,0.006
8.038,0.002
8.039,0.003
8.040,-0.001
8.041,0.000
8.042,0.003
8.043,0.003
8.044,0.004
8.045,0.006
8.046,0.007
8.047,0.009
8.048,0.011
8.049,0.009
8.050,0.011
8.051,0.016
8.052,0.014
8.053,0.012
8.054,0.014
8.055,0.016
8.056,0.017
8.057,0.016
8.058,0.014
8.059,0.012
8.060,0.016
8.061,0.022
8.062,0.023
8.063,0.025
8.064,0.025
8.065,0.025
8.066,0.025
8.067,0.025
8.068,0.027
8.069,0.025
8.070,0.025
8.071,0.025
8.072,0.028
8.073,0.031
8.074,0.038
8.075,0.041
8.076,0.044
8.077,0.047
8.078,0.044
8.079,0.044
8.080,0.047
8.081,0.044
8.082,0.045
8.083,0.050
8.084,0.054
8.085,0.056
8.086,0.056
8.087,0.056
8.088,0.053
8.089,0.053
8.090,0.054
8.091,0.059
8.092,0.059
8.093,0.062
8.094,0.064
8.095,0.069
8.096,0.072
8.097,0.075
8.098,0.080
8.099,0.078
8.100,0.080
8.101,0.078
8.102,0.080
8.103,0.081
8.104,0.084
8.105,0.084
8.106,0.089
8.107,0.094
8.108,0.094
8.109,0.094
8.110,0.097
8.111,0.097
8.112,0.103
8.113,0.109
8.114,0.107
8.115,0.109
8.116,0.106
8.117,0.106
8.118,0.108
8.119,0.106
8.120,0.108
8.121,0.103
8.122,0.105
8.123,0.106
8.124,0.107
8.125,0.109
8.126,0.111
8.127,0.113
8.128,0.113
8.129,0.116
8.130,0.114
8.131,0.113
8.132,0.116
8.133,0.113
8.134,0.116
8.135,0.116
8.136,0.113
8.137,0.106
8.138,0.105
8.139,0.103
8.140,0.099
8.141,0.103
8.142,0.100
8.143,0.100
8.144,0.096
8.145,0.097
8.146,0.092
8.147,0.091
8.148,0.087
8.149,0.087
8.150,0.091
8.151,0.091
8.152,0.089
8.153,0.087
8.154,0.078
8.155,0.075
8.156,0.075
8.157,0.075
8.158,0.072
8.159,0.069
8.160,0.066
8.161,0.062
8.162,0.057
8.163,0.056
8.164,0.057
8.165,0.059
8.166,0.053
8.167,0.053
8.168,0.049
8.169,0.047
8.170,0.048
8.171,0.047
8.172,0.044
8.173,0.044
8.174,0.039
8.175,0.041
8.176,0.036
8.177,0.034
8.178,0.034
8.179,0.034
8.180,0.034
8.181,0.031
8.182,0.031
8.183,0.028
8.184,0.028
8.185,0.025
8.186,0.023
8.187,0.025
8.188,0.021
8.189,0.019
8.190,0.012
8.191,0.012
8.192,0.011
8.193,0.006
8.194,0.005
8.195,0.000
8.196,-0.003
8.197,-0.003
8.198,-0.002
8.199,-0.003
8.200,0.003
8.201,0.003
8.202,0.003
8.203,-0.003
8.204,-0.004
8.205,-0.006
8.206,-0.006
8.207,-0.009
8.208,-0.008
8.209,-0.006
8.210,-0.011
8.211,-0.013
8.212,-0.013
8.213,-0.013
8.214,-0.016
8.215,-0.016
8.216,-0.019
8.217,-0.016
8.218,-0.020
8.219,-0.022
8.220,-0.022
8.221,-0.022
8.222,-0.024
8.223,-0.022
8.224,-0.019
8.225,-0.019
8.226,-0.018
8.227,-0.016
8.228,-0.019
8.229,-0.019
8.230,-0.019
8.231,-0.019
8.232,-0.020
8.233,-0.022
8.234,-0.021
8.235,-0.022
8.236,-0.021
8.237,-0.022
8.238,-0.023
8.239,-0.022
8.240,-0.026
8.241,-0.028
8.242,-0.029
8.243,-0.031
8.244,-0.025
8.245,-0.025
8.246,-0.025
8.247,-0.025
8.248,-0.026
8.249,-0.028
8.250,-0.027
8.251,-0.025
8.252,-0.028
8.253,-0.028
8.254,-0.031
8.255,-0.031
8.256,-0.028
8.257,-0.028
8.258,-0.028
8.259,-0.031
8.260,-0.028
8.261,-0.028
8.262,-0.030
8.263,-0.028
8.264,-0.034
8.265,-0.031
8.266,-0.033
8.267,-0.034
8.268,-0.034
8.269,-0.031
8.270,-0.033
8.271,-0.034
8.272,-0.034
8.273,-0.034
8.274,-0.033
8.275,-0.028
8.276,-0.028
8.277,-0.028
8.278,-0.029
8.279,-0.031
8.280,-0.031
8.281,-0.028
8.282,-0.030
8.283,-0.031
8.284,-0.031
8.285,-0.031
8.286,-0.029
8.287,-0.031
8.288,-0.036
8.289,-0.038
8.290,-0.038
8.291,-0.041
8.292,-0.036
8.293,-0.038
8.294,-0.038
8.295,-0.038
8.296,-0.038
8.297,-0.038
8.298,-0.034
8.299,-0.034
8.300,-0.034
8.301,-0.031
8.302,-0.033
8.303,-0.034
8.304,-0.038
8.305,-0.044
8.306,-0.044
8.307,-0.041
8.308,-0.041
8.309,-0.041
8.310,-0.039
8.311,-0.038
8.312,-0.041
8.313,-0.038
8.314,-0.038
8.315,-0.038
8.316,-0.039
8.317,-0.044
8.318,-0.044
8.319,-0.044
8.320,-0.044
8.321,-0.041
8.322,-0.042
8.323,-0.047
8.324,-0.043
8.325,-0.044
8.326,-0.042
8.327,-0.044
8.328,-0.047
8.329,-0.044
8.330,-0.047
8.331,-0.047
8.332,-0.050
8.333,-0.050
8.334,-0.049
8.335,-0.044
8.336,-0.045
8.337,-0.047
8.338,-0.050
8.339,-0.050
8.340,-0.050
8.341,-0.050
8.342,-0.050
8.343,-0.050
8.344,-0.050
8.345,-0.047
8.346,-0.044
8.347,-0.047
8.348,-0.045
8.349,-0.047
8.350,-0.046
8.351,-0.044
8.352,-0.047
8.353,-0.044
8.354,-0.048
8.355,-0.050
8.356,-0.051
8.357,-0.050
8.358,-0.050
8.359,-0.050
8.360,-0.050
8.361,-0.050
8.362,-0.046
8.363,-0.044
8.364,-0.042
8.365,-0.044
8.366,-0.044
8.367,-0.047
8.368,-0.047
8.369,-0.047
8.370,-0.047
8.371,-0.047
8.372,-0.048
8.373,-0.047
8.374,-0.050
8.375,-0.050
8.376,-0.050
8.377,-0.050
8.378,-0.050
8.379,-0.050
8.380,-0.046
8.381,-0.041
8.382,-0.042
8.383,-0.044
8.384,-0.045
8.385,-0.047
8.386,-0.047
8.387,-0.047
8.388,-0.048
8.389,-0.050
8.390,-0.053
8.391,-0.050
8.392,-0.050
8.393,-0.050
8.394,-0.050
8.395,-0.050
8.396,-0.050
8.397,-0.050
8.398,-0.050
8.399,-0.050
8.400,-0.049
8.401,-0.044
8.402,-0.047
8.403,-0.047
8.404,-0.047
8.405,-0.047
8.406,-0.047
8.407,-0.047
8.408,-0.047
8.409,-0.047
8.410,-0.048
8.411,-0.050
8.412,-0.050
8.413,-0.047
8.414,-0.047
8.415,-0.047
8.416,-0.047
8.417,-0.047
8.418,-0.046
8.419,-0.044
8.420,-0.044
8.421,-0.044
8.422,-0.045
8.423,-0.047
8.424,-0.047
8.425,-0.047
8.426,-0.049
8.427,-0.053
8.428,-0.050
8.429,-0.053
8.430,-0.052
8.431,-0.050
8.432,-0.048
8.433,-0.050
8.434,-0.050
8.435,-0.050
8.436,-0.056
8.437,-0.056
8.438,-0.050
8.439,-0.050
8.440,-0.050
8.441,-0.053
8.442,-0.054
8.443,-0.053
8.444,-0.052
8.445,-0.053
8.446,-0.053
8.447,-0.050
8.448,-0.051
8.449,-0.053
8.450,-0.049
8.451,-0.050
8.452,-0.053
8.453,-0.053
8.454,-0.053
8.455,-0.053
8.456,-0.053
8.457,-0.053
8.458,-0.053
8.459,-0.053
8.460,-0.054
8.461,-0.059
8.462,-0.059
8.463,-0.059
8.464,-0.056
8.465,-0.059
8.466,-0.059
8.467,-0.056
8.468,-0.058
8.469,-0.059
8.470,-0.058
8.471,-0.056
8.472,-0.059
8.473,-0.059
8.474,-0.058
8.475,-0.059
8.476,-0.061
8.477,-0.063
8.478,-0.059
8.479,-0.059
8.480,-0.058
8.481,-0.059
8.482,-0.059
8.483,-0.063
8.484,-0.061
8.485,-0.056
8.486,-0.056
8.487,-0.059
8.488,-0.059
8.489,-0.059
8.490,-0.058
8.491,-0.056
8.492,-0.056
8.493,-0.056
8.494,-0.054
8.495,-0.059
8.496,-0.058
8.497,-0.056
8.498,-0.056
8.499,-0.056
8.500,-0.053
8.501,-0.056
8.502,-0.056
8.503,-0.056
8.504,-0.058
8.505,-0.059
8.506,-0.058
8.507,-0.056
8.508,-0.055
8.509,-0.056
8.510,-0.054
8.511,-0.056
8.512,-0.063
8.513,-0.063
8.514,-0.061
8.515,-0.063
8.516,-0.067
8.517,-0.066
8.518,-0.064
8.519,-0.066
8.520,-0.064
8.521,-0.063
8.522,-0.067
8.523,-0.066
8.524,-0.066
8.525,-0.066
8.526,-0.066
8.527,-0.063
8.528,-0.056
8.529,-0.053
8.530,-0.056
8.531,-0.056
8.532,-0.056
8.533,-0.056
8.534,-0.056
8.535,-0.053
8.536,-0.059
8.537,-0.066
8.538,-0.064
8.539,-0.066
8.540,-0.063
8.541,-0.063
8.542,-0.063
8.543,-0.063
8.544,-0.064
8.545,-0.063
8.546,-0.058
8.547,-0.056
8.548,-0.056
8.549,-0.056
8.550,-0.058
8.551,-0.056
8.552,-0.059
8.553,-0.056
8.554,-0.054
8.555,-0.059
8.556,-0.063
8.557,-0.063
8.558,-0.061
8.559,-0.059
8.560,-0.061
8.561,-0.056
8.562,-0.058
8.563,-0.056
8.564,-0.058
8.565,-0.059
8.566,-0.058
8.567,-0.059
8.568,-0.061
8.569,-0.063
8.570,-0.059
8.571,-0.056
8.572,-0.056
8.573,-0.056
8.574,-0.058
8.575,-0.059
8.576,-0.061
8.577,-0.059
8.578,-0.061
8.579,-0.059
8.580,-0.058
8.581,-0.056
8.582,-0.056
8.583,-0.056
8.584,-0.056
8.585,-0.056
8.586,-0.056
8.587,-0.059
8.588,-0.059
8.589,-0.059
8.590,-0.055
8.591,-0.053
8.592,-0.053
8.593,-0.053
8.594,-0.053
8.595,-0.059
8.596,-0.058
8.597,-0.053
8.598,-0.053
8.599,-0.056
8.600,-0.052
8.601,-0.050
8.602,-0.054
8.603,-0.053
8.604,-0.051
8.605,-0.053
8.606,-0.052
8.607,-0.050
8.608,-0.050
8.609,-0.050
8.610,-0.056
8.611,-0.053
8.612,-0.058
8.613,-0.059
8.614,-0.053
8.615,-0.056
8.616,-0.058
8.617,-0.059
8.618,-0.059
8.619,-0.063
8.620,-0.059
8.621,-0.059
8.622,-0.053
8.623,-0.050
8.624,-0.050
8.625,-0.053
8.626,-0.054
8.627,-0.056
8.628,-0.056
8.629,-0.056
8.630,-0.056
8.631,-0.056
8.632,-0.058
8.633,-0.059
8.634,-0.059
8.635,-0.063
8.636,-0.061
8.637,-0.063
8.638,-0.063
8.639,-0.059
8.640,-0.063
8.641,-0.063
8.642,-0.063
8.643,-0.059
8.644,-0.058
8.645,-0.056
8.646,-0.058
8.647,-0.056
8.648,-0.058
8.649,-0.059
8.650,-0.056
8.651,-0.059
8.652,-0.058
8.653,-0.056
8.654,-0.061
8.655,-0.059
8.656,-0.058
8.657,-0.053
8.658,-0.054
8.659,-0.056
8.660,-0.061
8.661,-0.063
8.662,-0.067
8.663,-0.066
8.664,-0.063
8.665,-0.056
8.666,-0.056
8.667,-0.056
8.668,-0.056
8.669,-0.056
8.670,-0.056
8.671,-0.059
8.672,-0.056
8.673,-0.056
8.674,-0.056
8.675,-0.059
8.676,-0.059
8.677,-0.059
8.678,-0.058
8.679,-0.056
8.680,-0.056
8.681,-0.056
8.682,-0.058
8.683,-0.059
8.684,-0.055
8.685,-0.056
8.686,-0.053
8.687,-0.053
8.688,-0.058
8.689,-0.059
8.690,-0.058
8.691,-0.059
8.692,-0.058
8.693,-0.059
8.694,-0.056
8.695,-0.056
8.696,-0.055
8.697,-0.053
8.698,-0.053
8.699,-0.053
8.700,-0.052
8.701,-0.053
8.702,-0.053
8.703,-0.053
8.704,-0.051
8.705,-0.053
8.706,-0.058
8.707,-0.056
8.708,-0.056
8.709,-0.056
8.710,-0.056
8.711,-0.056
8.712,-0.056
8.713,-0.056
8.714,-0.056
8.715,-0.056
8.716,-0.056
8.717,-0.056
8.718,-0.056
8.719,-0.056
8.720,-0.056
8.721,-0.056
8.722,-0.056
8.723,-0.056
8.724,-0.056
8.725,-0.053
8.726,-0.050
8.727,-0.050
8.728,-0.053
8.729,-0.053
8.730,-0.047
8.731,-0.041
8.732,-0.034
8.733,-0.028
8.734,-0.019
8.735,-0.019
8.736,-0.017
8.737,-0.016
8.738,-0.014
8.739,-0.016
8.740,-0.013
8.741,-0.013
8.742,-0.011
8.743,-0.009
8.744,-0.006
8.745,-0.006
8.746,-0.003
8.747,-0.003
8.748,0.000
8.749,-0.003
8.750,-0.003
8.751,-0.003
8.752,-0.001
8.753,-0.003
8.754,-0.001
8.755,0.003
8.756,0.009
8.757,0.025
8.758,0.039
8.759,0.053
8.760,0.072
8.761,0.091
8.762,0.109
8.763,0.125
8.764,0.134
8.765,0.134
8.766,0.133
8.767,0.128
8.768,0.123
8.769,0.125
8.770,0.124
8.771,0.122
8.772,0.123
8.773,0.122
8.774,0.122
8.775,0.116
8.776,0.113
8.777,0.109
8.778,0.104
8.779,0.097
8.780,0.089
8.781,0.087
8.782,0.089
8.783,0.091
8.784,0.089
8.785,0.087
8.786,0.078
8.787,0.066
8.788,0.056
8.789,0.047
8.790,0.051
8.791,0.053
8.792,0.050
8.793,0.050
8.794,0.053
8.795,0.053
8.796,0.050
8.797,0.047
8.798,0.044
8.799,0.044
8.800,0.048
8.801,0.050
8.802,0.050
8.803,0.050
8.804,0.043
8.805,0.028
8.806,0.019
8.807,0.012
8.808,0.003
8.809,-0.006
8.810,-0.016
8.811,-0.019
8.812,-0.022
8.813,-0.022
8.814,-0.024
8.815,-0.025
8.816,-0.028
8.817,-0.034
8.818,-0.039
8.819,-0.044
8.820,-0.046
8.821,-0.047
8.822,-0.047
8.823,-0.047
8.824,-0.047
8.825,-0.047
8.826,-0.051
8.827,-0.056
8.828,-0.059
8.829,-0.059
8.830,-0.058
8.831,-0.056
8.832,-0.059
8.833,-0.056
8.834,-0.063
8.835,-0.063
8.836,-0.066
8.837,-0.063
8.838,-0.059
8.839,-0.063
8.840,-0.064
8.841,-0.066
8.842,-0.070
8.843,-0.072
8.844,-0.072
8.845,-0.075
8.846,-0.075
8.847,-0.075
8.848,-0.077
8.849,-0.075
8.850,-0.077
8.851,-0.075
8.852,-0.075
8.853,-0.078
8.854,-0.079
8.855,-0.081
8.856,-0.079
8.857,-0.081
8.858,-0.084
8.859,-0.084
8.860,-0.084
8.861,-0.084
8.862,-0.084
8.863,-0.084
8.864,-0.084
8.865,-0.088
8.866,-0.086
8.867,-0.088
8.868,-0.088
8.869,-0.088
8.870,-0.084
8.871,-0.081
8.872,-0.080
8.873,-0.078
8.874,-0.077
8.875,-0.078
8.876,-0.081
8.877,-0.081
8.878,-0.078
8.879,-0.075
8.880,-0.073
8.881,-0.075
8.882,-0.076
8.883,-0.075
8.884,-0.075
8.885,-0.075
8.886,-0.072
8.887,-0.075
8.888,-0.075
8.889,-0.081
8.890,-0.083
8.891,-0.088
8.892,-0.100
8.893,-0.109
8.894,-0.117
8.895,-0.113
8.896,-0.102
8.897,-0.091
8.898,-0.079
8.899,-0.066
8.900,-0.047
8.901,-0.019
8.902,0.009
8.903,0.022
8.904,0.028
8.905,0.041
8.906,0.046
8.907,0.069
8.908,0.086
8.909,0.128
8.910,0.164
8.911,0.225
8.912,0.286
8.913,0.347
8.914,0.416
8.915,0.475
8.916,0.526
8.917,0.600
8.918,0.669
8.919,0.697
8.920,0.703
8.921,0.722
8.922,0.755
8.923,0.825
8.924,0.912
8.925,0.984
8.926,1.016
8.927,0.984
8.928,0.938
8.929,0.825
8.930,0.692
8.931,0.569
8.932,0.449
8.933,0.378
8.934,0.309
8.935,0.256
8.936,0.209
8.937,0.175
8.938,0.152
8.939,0.131
8.940,0.106
8.941,0.078
8.942,0.052
8.943,0.044
8.944,0.046
8.945,0.047
8.946,0.049
8.947,0.047
8.948,0.046
8.949,0.047
8.950,0.062
8.951,0.081
8.952,0.100
8.953,0.103
8.954,0.106
8.955,0.113
8.956,0.120
8.957,0.116
8.958,0.114
8.959,0.106
8.960,0.094
8.961,0.084
8.962,0.075
8.963,0.069
8.964,0.056
8.965,0.047
8.966,0.041
8.967,0.031
8.968,0.023
8.969,0.019
8.970,0.009
8.971,0.003
8.972,0.002
8.973,0.003
8.974,0.006
8.975,0.006
8.976,0.006
8.977,0.006
8.978,0.004
8.979,0.006
8.980,0.004
8.981,0.003
8.982,-0.006
8.983,-0.016
8.984,-0.014
8.985,-0.016
8.986,-0.014
8.987,-0.013
8.988,-0.016
8.989,-0.016
8.990,-0.017
8.991,-0.016
8.992,-0.014
8.993,-0.013
8.994,-0.011
8.995,-0.013
8.996,-0.009
8.997,-0.009
8.998,-0.013
8.999,-0.013
9.000,-0.019
9.001,-0.019
9.002,-0.019
9.003,-0.019
9.004,-0.013
9.005,-0.016
9.006,-0.016
9.007,-0.016
9.008,-0.016
9.009,-0.016
9.010,-0.017
9.011,-0.019
9.012,-0.020
9.013,-0.019
9.014,-0.023
9.015,-0.025
9.016,-0.021
9.017,-0.019
9.018,-0.019
9.019,-0.019
9.020,-0.019
9.021,-0.019
9.022,-0.020
9.023,-0.019
9.024,-0.016
9.025,-0.016
9.026,-0.016
9.027,-0.013
9.028,-0.016
9.029,-0.013
9.030,-0.013
9.031,-0.013
9.032,-0.013
9.033,-0.016
9.034,-0.014
9.035,-0.016
9.036,-0.016
9.037,-0.013
9.038,-0.017
9.039,-0.016
9.040,-0.014
9.041,-0.013
9.042,-0.009
9.043,-0.009
9.044,-0.006
9.045,-0.006
9.046,-0.005
9.047,-0.003
9.048,-0.003
9.049,-0.003
9.050,-0.003
9.051,-0.003
9.052,-0.003
9.053,-0.006
9.054,-0.008
9.055,-0.009
9.056,-0.009
9.057,-0.009
9.058,-0.011
9.059,-0.013
9.060,-0.014
9.061,-0.016
9.062,-0.011
9.063,-0.009
9.064,-0.009
9.065,-0.009
9.066,-0.009
9.067,-0.009
9.068,-0.008
9.069,-0.006
9.070,-0.005
9.071,-0.003
9.072,-0.003
9.073,-0.003
9.074,-0.003
9.075,-0.003
9.076,0.000
9.077,0.000
9.078,0.000
9.079,0.000
9.080,0.000
9.081,0.000
9.082,0.000
9.083,0.000
9.084,-0.001
9.085,-0.003
9.086,-0.003
9.087,-0.003
9.088,-0.004
9.089,-0.003
9.090,-0.003
9.091,-0.003
9.092,-0.003
9.093,-0.003
9.094,-0.002
9.095,0.000
9.096,0.000
9.097,0.000
9.098,0.003
9.099,0.000
9.100,0.001
9.101,0.003
9.102,0.006
9.103,0.009
9.104,0.009
9.105,0.009
9.106,0.006
9.107,0.006
9.108,0.006
9.109,0.006
9.110,0.002
9.111,0.003
9.112,0.000
9.113,0.000
9.114,0.001
9.115,0.000
9.116,0.000
9.117,0.006
9.118,0.008
9.119,0.009
9.120,0.011
9.121,0.009
9.122,0.011
9.123,0.009
9.124,0.009
9.125,0.009
9.126,0.008
9.127,0.009
9.128,0.009
9.129,0.009
9.130,0.008
9.131,0.009
9.132,0.009
9.133,0.009
9.134,0.009
9.135,0.006
9.136,0.009
9.137,0.006
9.138,0.005
9.139,0.006
9.140,0.007
9.141,0.006
9.142,0.009
9.143,0.009
9.144,0.011
9.145,0.012
9.146,0.014
9.147,0.016
9.148,0.017
9.149,0.016
9.150,0.011
9.151,0.012
9.152,0.014
9.153,0.012
9.154,0.012
9.155,0.012
9.156,0.011
9.157,0.012
9.158,0.009
9.159,0.009
9.160,0.009
9.161,0.012
9.162,0.009
9.163,0.009
9.164,0.012
9.165,0.012
9.166,0.009
9.167,0.009
9.168,0.011
9.169,0.012
9.170,0.014
9.171,0.016
9.172,0.011
9.173,0.012
9.174,0.012
9.175,0.012
9.176,0.011
9.177,0.009
9.178,0.006
9.179,0.006
9.180,0.011
9.181,0.009
9.182,0.011
9.183,0.009
9.184,0.011
9.185,0.012
9.186,0.011
9.187,0.012
9.188,0.012
9.189,0.012
9.190,0.012
9.191,0.012
9.192,0.009
9.193,0.009
9.194,0.009
9.195,0.009
9.196,0.008
9.197,0.006
9.198,0.006
9.199,0.006
9.200,0.006
9.201,0.006
9.202,0.006
9.203,0.006
9.204,0.005
9.205,0.006
9.206,0.005
9.207,0.003
9.208,0.003
9.209,0.003
9.210,0.003
9.211,0.003
9.212,0.006
9.213,0.009
9.214,0.007
9.215,0.009
9.216,0.005
9.217,0.000
9.218,0.003
9.219,0.003
9.220,0.000
9.221,0.003
9.222,0.003
9.223,0.003
9.224,0.005
9.225,0.003
9.226,0.002
9.227,0.003
9.228,0.004
9.229,0.003
9.230,0.003
9.231,0.003
9.232,0.000
9.233,-0.003
9.234,-0.003
9.235,-0.003
9.236,-0.006
9.237,-0.003
9.238,0.000
9.239,0.000
9.240,0.001
9.241,0.003
9.242,0.004
9.243,0.006
9.244,0.003
9.245,0.003
9.246,0.003
9.247,0.000
9.248,0.003
9.249,0.000
9.250,0.002
9.251,0.003
9.252,0.003
9.253,0.003
9.254,0.002
9.255,0.000
9.256,0.001
9.257,0.006
9.258,0.007
9.259,0.009
9.260,0.011
9.261,0.009
9.262,0.009
9.263,0.009
9.264,0.008
9.265,0.009
9.266,0.009
9.267,0.009
9.268,0.009
9.269,0.009
9.270,0.011
9.271,0.009
9.272,0.011
9.273,0.016
9.274,0.019
9.275,0.019
9.276,0.019
9.277,0.022
9.278,0.023
9.279,0.028
9.280,0.031
9.281,0.031
9.282,0.028
9.283,0.028
9.284,0.025
9.285,0.025
9.286,0.029
9.287,0.028
9.288,0.028
9.289,0.034
9.290,0.038
9.291,0.041
9.292,0.043
9.293,0.044
9.294,0.044
9.295,0.047
9.296,0.054
9.297,0.059
9.298,0.059
9.299,0.056
9.300,0.059
9.301,0.059
9.302,0.062
9.303,0.062
9.304,0.064
9.305,0.062
9.306,0.062
9.307,0.069
9.308,0.067
9.309,0.069
9.310,0.070
9.311,0.075
9.312,0.078
9.313,0.081
9.314,0.080
9.315,0.081
9.316,0.086
9.317,0.091
9.318,0.094
9.319,0.097
9.320,0.096
9.321,0.097
9.322,0.101
9.323,0.100
9.324,0.101
9.325,0.100
9.326,0.100
9.327,0.103
9.328,0.103
9.329,0.106
9.330,0.104
9.331,0.109
9.332,0.111
9.333,0.109
9.334,0.111
9.335,0.109
9.336,0.105
9.337,0.103
9.338,0.105
9.339,0.103
9.340,0.081
9.341,0.059
9.342,0.025
9.343,0.000
9.344,0.003
9.345,0.003
9.346,-0.002
9.347,0.000
9.348,0.025
9.349,0.047
9.350,0.081
9.351,0.103
9.352,0.101
9.353,0.100
9.354,0.097
9.355,0.087
9.356,0.087
9.357,0.084
9.358,0.086
9.359,0.084
9.360,0.079
9.361,0.081
9.362,0.080
9.363,0.072
9.364,0.075
9.365,0.075
9.366,0.072
9.367,0.069
9.368,0.064
9.369,0.062
9.370,0.066
9.371,0.062
9.372,0.056
9.373,0.053
9.374,0.054
9.375,0.050
9.376,0.051
9.377,0.050
9.378,0.051
9.379,0.053
9.380,0.050
9.381,0.047
9.382,0.046
9.383,0.038
9.384,0.038
9.385,0.034
9.386,0.038
9.387,0.038
9.388,0.034
9.389,0.034
9.390,0.030
9.391,0.028
9.392,0.022
9.393,0.019
9.394,0.017
9.395,0.016
9.396,0.017
9.397,0.016
9.398,0.017
9.399,0.012
9.400,0.011
9.401,0.009
9.402,0.007
9.403,0.009
9.404,0.003
9.405,-0.003
9.406,-0.002
9.407,0.000
9.408,-0.003
9.409,0.000
9.410,-0.004
9.411,-0.006
9.412,-0.011
9.413,-0.009
9.414,-0.009
9.415,-0.009
9.416,-0.014
9.417,-0.016
9.418,-0.014
9.419,-0.016
9.420,-0.016
9.421,-0.016
9.422,-0.014
9.423,-0.016
9.424,-0.016
9.425,-0.019
9.426,-0.019
9.427,-0.025
9.428,-0.025
9.429,-0.025
9.430,-0.025
9.431,-0.028
9.432,-0.029
9.433,-0.028
9.434,-0.028
9.435,-0.028
9.436,-0.027
9.437,-0.028
9.438,-0.028
9.439,-0.028
9.440,-0.028
9.441,-0.028
9.442,-0.027
9.443,-0.025
9.444,-0.028
9.445,-0.028
9.446,-0.031
9.447,-0.031
9.448,-0.027
9.449,-0.028
9.450,-0.029
9.451,-0.031
9.452,-0.031
9.453,-0.028
9.454,-0.032
9.455,-0.034
9.456,-0.034
9.457,-0.034
9.458,-0.034
9.459,-0.034
9.460,-0.033
9.461,-0.034
9.462,-0.033
9.463,-0.034
9.464,-0.036
9.465,-0.034
9.466,-0.034
9.467,-0.034
9.468,-0.038
9.469,-0.034
9.470,-0.033
9.471,-0.034
9.472,-0.039
9.473,-0.047
9.474,-0.036
9.475,-0.034
9.476,-0.041
9.477,-0.044
9.478,-0.041
9.479,-0.044
9.480,-0.046
9.481,-0.044
9.482,-0.044
9.483,-0.044
9.484,-0.041
9.485,-0.041
9.486,-0.041
9.487,-0.041
9.488,-0.041
9.489,-0.041
9.490,-0.038
9.491,-0.041
9.492,-0.044
