'Elapsed time','II'
'seconds','mV'
0.000,-0.109
0.001,-0.109
0.002,-0.109
0.003,-0.109
0.004,-0.111
0.005,-0.112
0.006,-0.112
0.007,-0.112
0.008,-0.111
0.009,-0.112
0.010,-0.116
0.011,-0.122
0.012,-0.124
0.013,-0.131
0.014,-0.131
0.015,-0.138
0.016,-0.149
0.017,-0.159
0.018,-0.178
0.019,-0.200
0.020,-0.219
0.021,-0.234
0.022,-0.254
0.023,-0.266
0.024,-0.270
0.025,-0.269
0.026,-0.257
0.027,-0.241
0.028,-0.217
0.029,-0.184
0.030,-0.149
0.031,-0.112
0.032,-0.069
0.033,-0.028
0.034,0.006
0.035,0.044
0.036,0.081
0.037,0.128
0.038,0.181
0.039,0.231
0.040,0.286
0.041,0.341
0.042,0.402
0.043,0.472
0.044,0.558
0.045,0.641
0.046,0.729
0.047,0.819
0.048,0.900
0.049,0.972
0.050,1.034
0.051,1.094
0.052,1.152
0.053,1.212
0.054,1.267
0.055,1.312
0.056,1.361
0.057,1.391
0.058,1.404
0.059,1.381
0.060,1.297
0.061,1.209
0.062,1.106
0.063,1.003
0.064,0.911
0.065,0.822
0.066,0.725
0.067,0.644
0.068,0.576
0.069,0.509
0.070,0.427
0.071,0.344
0.072,0.274
0.073,0.203
0.074,0.153
0.075,0.109
0.076,0.062
0.077,0.009
0.078,-0.053
0.079,-0.109
0.080,-0.148
0.081,-0.175
0.082,-0.197
0.083,-0.206
0.084,-0.214
0.085,-0.213
0.086,-0.194
0.087,-0.181
0.088,-0.164
0.089,-0.144
0.090,-0.124
0.091,-0.106
0.092,-0.093
0.093,-0.084
0.094,-0.073
0.095,-0.066
0.096,-0.047
0.097,-0.038
0.098,-0.033
0.099,-0.031
0.100,-0.031
0.101,-0.028
0.102,-0.028
0.103,-0.025
0.104,-0.025
0.105,-0.028
0.106,-0.033
0.107,-0.038
0.108,-0.041
0.109,-0.044
0.110,-0.050
0.111,-0.050
0.112,-0.050
0.113,-0.050
0.114,-0.051
0.115,-0.053
0.116,-0.051
0.117,-0.053
0.118,-0.046
0.119,-0.044
0.120,-0.044
0.121,-0.044
0.122,-0.045
0.123,-0.050
0.124,-0.054
0.125,-0.059
0.126,-0.061
0.127,-0.063
0.128,-0.058
0.129,-0.056
0.130,-0.055
0.131,-0.050
0.132,-0.047
0.133,-0.044
0.134,-0.041
0.135,-0.041
0.136,-0.047
0.137,-0.047
0.138,-0.048
0.139,-0.050
0.140,-0.050
0.141,-0.050
0.142,-0.050
0.143,-0.050
0.144,-0.050
0.145,-0.050
0.146,-0.050
0.147,-0.050
0.148,-0.049
0.149,-0.044
0.150,-0.044
0.151,-0.044
0.152,-0.044
0.153,-0.044
0.154,-0.044
0.155,-0.044
0.156,-0.044
0.157,-0.044
0.158,-0.041
0.159,-0.041
0.160,-0.041
0.161,-0.044
0.162,-0.043
0.163,-0.041
0.164,-0.041
0.165,-0.034
0.166,-0.034
0.167,-0.034
0.168,-0.038
0.169,-0.034
0.170,-0.034
0.171,-0.034
0.172,-0.034
0.173,-0.034
0.174,-0.034
0.175,-0.034
0.176,-0.033
0.177,-0.028
0.178,-0.028
0.179,-0.028
0.180,-0.028
0.181,-0.025
0.182,-0.025
0.183,-0.025
0.184,-0.021
0.185,-0.022
0.186,-0.019
0.187,-0.019
0.188,-0.017
0.189,-0.019
0.190,-0.020
0.191,-0.019
0.192,-0.016
0.193,-0.013
0.194,-0.014
0.195,-0.013
0.196,-0.011
0.197,-0.013
0.198,-0.013
0.199,-0.013
0.200,-0.009
0.201,-0.006
0.202,-0.003
0.203,-0.003
0.204,-0.003
0.205,0.000
0.206,0.003
0.207,0.003
0.208,0.002
0.209,0.000
0.210,-0.001
0.211,0.000
0.212,0.004
0.213,0.006
0.214,0.004
0.215,0.009
0.216,0.009
0.217,0.009
0.218,0.011
0.219,0.009
0.220,0.009
0.221,0.009
0.222,0.009
0.223,0.009
0.224,0.011
0.225,0.016
0.226,0.017
0.227,0.019
0.228,0.016
0.229,0.016
0.230,0.016
0.231,0.016
0.232,0.017
0.233,0.016
0.234,0.019
0.235,0.022
0.236,0.020
0.237,0.025
0.238,0.025
0.239,0.025
0.240,0.025
0.241,0.025
0.242,0.029
0.243,0.028
0.244,0.022
0.245,0.022
0.246,0.026
0.247,0.028
0.248,0.025
0.249,0.025
0.250,0.025
0.251,0.025
0.252,0.025
0.253,0.025
0.254,0.026
0.255,0.028
0.256,0.025
0.257,0.025
0.258,0.025
0.259,0.025
0.260,0.026
0.261,0.025
0.262,0.025
0.263,0.025
0.264,0.026
0.265,0.025
0.266,0.026
0.267,0.025
0.268,0.026
0.269,0.025
0.270,0.026
0.271,0.025
0.272,0.025
0.273,0.022
0.274,0.023
0.275,0.025
0.276,0.021
0.277,0.016
0.278,0.014
0.279,0.016
0.280,0.011
0.281,0.009
0.282,0.011
0.283,0.009
0.284,0.006
0.285,0.003
0.286,0.001
0.287,0.003
0.288,0.001
0.289,0.000
0.290,0.000
0.291,-0.006
0.292,-0.008
0.293,-0.009
0.294,-0.009
0.295,-0.009
0.296,-0.008
0.297,-0.013
0.298,-0.014
0.299,-0.016
0.300,-0.013
0.301,-0.013
0.302,-0.019
0.303,-0.022
0.304,-0.023
0.305,-0.028
0.306,-0.028
0.307,-0.028
0.308,-0.031
0.309,-0.031
0.310,-0.033
0.311,-0.034
0.312,-0.038
0.313,-0.034
0.314,-0.033
0.315,-0.031
0.316,-0.034
0.317,-0.034
0.318,-0.034
0.319,-0.034
0.320,-0.034
0.321,-0.034
0.322,-0.036
0.323,-0.034
0.324,-0.033
0.325,-0.034
0.326,-0.034
0.327,-0.034
0.328,-0.033
0.329,-0.031
0.330,-0.034
0.331,-0.031
0.332,-0.028
0.333,-0.028
0.334,-0.029
0.335,-0.031
0.336,-0.029
0.337,-0.028
0.338,-0.028
0.339,-0.028
0.340,-0.024
0.341,-0.019
0.342,-0.022
0.343,-0.022
0.344,-0.023
0.345,-0.022
0.346,-0.018
0.347,-0.016
0.348,-0.014
0.349,-0.013
0.350,-0.009
0.351,-0.006
0.352,-0.004
0.353,-0.003
0.354,0.000
0.355,0.000
0.356,0.002
0.357,0.003
0.358,0.003
0.359,0.006
0.360,0.008
0.361,0.006
0.362,0.009
0.363,0.009
0.364,0.008
0.365,0.009
0.366,0.014
0.367,0.016
0.368,0.019
0.369,0.019
0.370,0.019
0.371,0.019
0.372,0.019
0.373,0.019
0.374,0.021
0.375,0.019
0.376,0.020
0.377,0.025
0.378,0.025
0.379,0.025
0.380,0.024
0.381,0.022
0.382,0.021
0.383,0.022
0.384,0.023
0.385,0.022
0.386,0.021
0.387,0.016
0.388,0.014
0.389,0.012
0.390,0.014
0.391,0.016
0.392,0.014
0.393,0.016
0.394,0.012
0.395,0.012
0.396,0.011
0.397,0.009
0.398,0.008
0.399,0.006
0.400,0.009
0.401,0.009
0.402,0.007
0.403,0.006
0.404,0.006
0.405,0.009
0.406,0.005
0.407,0.003
0.408,-0.003
0.409,-0.006
0.410,-0.006
0.411,-0.006
0.412,-0.008
0.413,-0.006
0.414,-0.009
0.415,-0.009
0.416,-0.011
0.417,-0.013
0.418,-0.016
0.419,-0.016
0.420,-0.014
0.421,-0.016
0.422,-0.019
0.423,-0.022
0.424,-0.022
0.425,-0.025
0.426,-0.022
0.427,-0.025
0.428,-0.024
0.429,-0.022
0.430,-0.028
0.431,-0.031
0.432,-0.031
0.433,-0.031
0.434,-0.033
0.435,-0.034
0.436,-0.033
0.437,-0.034
0.438,-0.034
0.439,-0.034
0.440,-0.034
0.441,-0.034
0.442,-0.034
0.443,-0.034
0.444,-0.034
0.445,-0.034
0.446,-0.034
0.447,-0.034
0.448,-0.034
0.449,-0.034
0.450,-0.034
0.451,-0.034
0.452,-0.034
0.453,-0.034
0.454,-0.036
0.455,-0.038
0.456,-0.034
0.457,-0.034
0.458,-0.034
0.459,-0.034
0.460,-0.034
0.461,-0.034
0.462,-0.031
0.463,-0.028
0.464,-0.028
0.465,-0.028
0.466,-0.025
0.467,-0.028
0.468,-0.029
0.469,-0.031
0.470,-0.031
0.471,-0.031
0.472,-0.031
0.473,-0.028
0.474,-0.027
0.475,-0.025
0.476,-0.028
0.477,-0.028
0.478,-0.029
0.479,-0.031
0.480,-0.031
0.481,-0.031
0.482,-0.031
0.483,-0.031
0.484,-0.027
0.485,-0.028
0.486,-0.027
0.487,-0.025
0.488,-0.029
0.489,-0.028
0.490,-0.028
0.491,-0.028
0.492,-0.028
0.493,-0.028
0.494,-0.028
0.495,-0.028
0.496,-0.027
0.497,-0.025
0.498,-0.029
0.499,-0.031
0.500,-0.031
0.501,-0.031
0.502,-0.031
0.503,-0.031
0.504,-0.031
0.505,-0.031
0.506,-0.031
0.507,-0.031
0.508,-0.033
0.509,-0.034
0.510,-0.034
0.511,-0.034
0.512,-0.033
0.513,-0.031
0.514,-0.034
0.515,-0.034
0.516,-0.034
0.517,-0.034
0.518,-0.033
0.519,-0.034
0.520,-0.034
0.521,-0.034
0.522,-0.033
0.523,-0.034
0.524,-0.034
0.525,-0.034
0.526,-0.036
0.527,-0.038
0.528,-0.038
0.529,-0.038
0.530,-0.039
0.531,-0.044
0.532,-0.041
0.533,-0.041
0.534,-0.045
0.535,-0.047
0.536,-0.045
0.537,-0.050
0.538,-0.047
0.539,-0.050
0.540,-0.050
0.541,-0.050
0.542,-0.050
0.543,-0.050
0.544,-0.049
0.545,-0.050
0.546,-0.050
0.547,-0.050
0.548,-0.053
0.549,-0.053
0.550,-0.052
0.551,-0.053
0.552,-0.053
0.553,-0.053
0.554,-0.054
0.555,-0.059
0.556,-0.059
0.557,-0.063
0.558,-0.059
0.559,-0.056
0.560,-0.058
0.561,-0.056
0.562,-0.061
0.563,-0.063
0.564,-0.058
0.565,-0.059
0.566,-0.058
0.567,-0.063
0.568,-0.064
0.569,-0.066
0.570,-0.066
0.571,-0.066
0.572,-0.068
0.573,-0.066
0.574,-0.066
0.575,-0.066
0.576,-0.064
0.577,-0.066
0.578,-0.067
0.579,-0.069
0.580,-0.068
0.581,-0.066
0.582,-0.064
0.583,-0.066
0.584,-0.067
0.585,-0.069
0.586,-0.069
0.587,-0.069
0.588,-0.068
0.589,-0.066
0.590,-0.070
0.591,-0.072
0.592,-0.071
0.593,-0.072
0.594,-0.072
0.595,-0.072
0.596,-0.072
0.597,-0.072
0.598,-0.075
0.599,-0.075
0.600,-0.075
0.601,-0.075
0.602,-0.074
0.603,-0.075
0.604,-0.075
0.605,-0.072
0.606,-0.075
0.607,-0.075
0.608,-0.078
0.609,-0.081
0.610,-0.081
0.611,-0.081
0.612,-0.078
0.613,-0.078
0.614,-0.078
0.615,-0.078
0.616,-0.079
0.617,-0.081
0.618,-0.081
0.619,-0.081
0.620,-0.080
0.621,-0.078
0.622,-0.078
0.623,-0.078
0.624,-0.079
0.625,-0.081
0.626,-0.078
0.627,-0.075
0.628,-0.073
0.629,-0.072
0.630,-0.071
0.631,-0.063
0.632,-0.056
0.633,-0.053
0.634,-0.044
0.635,-0.038
0.636,-0.039
0.637,-0.038
0.638,-0.036
0.639,-0.028
0.640,-0.022
0.641,-0.019
0.642,-0.016
0.643,-0.009
0.644,-0.002
0.645,-0.003
0.646,-0.001
0.647,0.000
0.648,-0.006
0.649,-0.006
0.650,-0.009
0.651,-0.009
0.652,-0.008
0.653,-0.009
0.654,-0.011
0.655,-0.013
0.656,-0.013
0.657,-0.009
0.658,-0.009
0.659,-0.009
0.660,-0.005
0.661,0.000
0.662,0.000
0.663,0.000
0.664,0.000
0.665,0.003
0.666,0.002
0.667,0.003
0.668,0.009
0.669,0.016
0.670,0.023
0.671,0.022
0.672,0.023
0.673,0.022
0.674,0.017
0.675,0.012
0.676,0.011
0.677,0.006
0.678,0.002
0.679,0.000
0.680,-0.005
0.681,-0.006
0.682,-0.011
0.683,-0.019
0.684,-0.021
0.685,-0.025
0.686,-0.027
0.687,-0.028
0.688,-0.033
0.689,-0.034
0.690,-0.038
0.691,-0.038
0.692,-0.041
0.693,-0.047
0.694,-0.053
0.695,-0.059
0.696,-0.059
0.697,-0.059
0.698,-0.056
0.699,-0.053
0.700,-0.056
0.701,-0.053
0.702,-0.052
0.703,-0.050
0.704,-0.053
0.705,-0.053
0.706,-0.063
0.707,-0.069
0.708,-0.075
0.709,-0.078
0.710,-0.084
0.711,-0.088
0.712,-0.091
0.713,-0.094
0.714,-0.097
0.715,-0.100
0.716,-0.106
0.717,-0.109
0.718,-0.111
0.719,-0.112
0.720,-0.109
0.721,-0.109
0.722,-0.109
0.723,-0.109
0.724,-0.112
0.725,-0.112
0.726,-0.112
0.727,-0.112
0.728,-0.112
0.729,-0.112
0.730,-0.116
0.731,-0.119
0.732,-0.122
0.733,-0.122
0.734,-0.122
0.735,-0.122
0.736,-0.122
0.737,-0.122
0.738,-0.121
0.739,-0.119
0.740,-0.122
0.741,-0.122
0.742,-0.123
0.743,-0.122
0.744,-0.121
0.745,-0.122
0.746,-0.122
0.747,-0.122
0.748,-0.122
0.749,-0.122
0.750,-0.122
0.751,-0.122
0.752,-0.122
0.753,-0.122
0.754,-0.119
0.755,-0.122
0.756,-0.122
0.757,-0.122
0.758,-0.122
0.759,-0.122
0.760,-0.122
0.761,-0.122
0.762,-0.122
0.763,-0.122
0.764,-0.122
0.765,-0.122
0.766,-0.122
0.767,-0.122
0.768,-0.119
0.769,-0.119
0.770,-0.122
0.771,-0.122
0.772,-0.122
0.773,-0.122
0.774,-0.121
0.775,-0.119
0.776,-0.119
0.777,-0.119
0.778,-0.122
0.779,-0.125
0.780,-0.125
0.781,-0.128
0.782,-0.125
0.783,-0.125
0.784,-0.131
0.785,-0.144
0.786,-0.148
0.787,-0.159
0.788,-0.176
0.789,-0.194
0.790,-0.213
0.791,-0.234
0.792,-0.249
0.793,-0.259
0.794,-0.271
0.795,-0.272
0.796,-0.266
0.797,-0.253
0.798,-0.236
0.799,-0.213
0.800,-0.188
0.801,-0.153
0.802,-0.120
0.803,-0.088
0.804,-0.051
0.805,-0.019
0.806,0.020
0.807,0.062
0.808,0.106
0.809,0.159
0.810,0.214
0.811,0.266
0.812,0.326
0.813,0.388
0.814,0.457
0.815,0.537
0.816,0.631
0.817,0.722
0.818,0.806
0.819,0.891
0.820,0.962
0.821,1.025
0.822,1.089
0.823,1.150
0.824,1.209
0.825,1.272
0.826,1.325
0.827,1.369
0.828,1.392
0.829,1.397
0.830,1.366
0.831,1.297
0.832,1.206
0.833,1.112
0.834,1.022
0.835,0.931
0.836,0.834
0.837,0.741
0.838,0.657
0.839,0.591
0.840,0.522
0.841,0.453
0.842,0.374
0.843,0.294
0.844,0.237
0.845,0.181
0.846,0.136
0.847,0.097
0.848,0.042
0.849,-0.019
0.850,-0.074
0.851,-0.122
0.852,-0.153
0.853,-0.172
0.854,-0.191
0.855,-0.197
0.856,-0.200
0.857,-0.194
0.858,-0.175
0.859,-0.163
0.860,-0.144
0.861,-0.122
0.862,-0.103
0.863,-0.088
0.864,-0.075
0.865,-0.069
0.866,-0.058
0.867,-0.050
0.868,-0.039
0.869,-0.038
0.870,-0.034
0.871,-0.034
0.872,-0.036
0.873,-0.034
0.874,-0.033
0.875,-0.028
0.876,-0.028
0.877,-0.031
0.878,-0.038
0.879,-0.044
0.880,-0.046
0.881,-0.047
0.882,-0.051
0.883,-0.050
0.884,-0.050
0.885,-0.050
0.886,-0.051
0.887,-0.053
0.888,-0.050
0.889,-0.050
0.890,-0.047
0.891,-0.050
0.892,-0.050
0.893,-0.050
0.894,-0.050
0.895,-0.053
0.896,-0.055
0.897,-0.056
0.898,-0.058
0.899,-0.059
0.900,-0.056
0.901,-0.056
0.902,-0.056
0.903,-0.053
0.904,-0.052
0.905,-0.050
0.906,-0.047
0.907,-0.047
0.908,-0.051
0.909,-0.050
0.910,-0.050
0.911,-0.050
0.912,-0.050
0.913,-0.050
0.914,-0.049
0.915,-0.047
0.916,-0.047
0.917,-0.047
0.918,-0.047
0.919,-0.047
0.920,-0.048
0.921,-0.047
0.922,-0.048
0.923,-0.050
0.924,-0.050
0.925,-0.050
0.926,-0.050
0.927,-0.050
0.928,-0.050
0.929,-0.050
0.930,-0.046
0.931,-0.044
0.932,-0.041
0.933,-0.041
0.934,-0.039
0.935,-0.038
0.936,-0.038
0.937,-0.031
0.938,-0.031
0.939,-0.031
0.940,-0.034
0.941,-0.031
0.942,-0.031
0.943,-0.031
0.944,-0.033
0.945,-0.034
0.946,-0.034
0.947,-0.034
0.948,-0.033
0.949,-0.028
0.950,-0.028
0.951,-0.028
0.952,-0.029
0.953,-0.028
0.954,-0.029
0.955,-0.031
0.956,-0.022
0.957,-0.019
0.958,-0.016
0.959,-0.016
0.960,-0.014
0.961,-0.016
0.962,-0.017
0.963,-0.016
0.964,-0.017
0.965,-0.019
0.966,-0.018
0.967,-0.013
0.968,-0.009
0.969,-0.009
0.970,-0.011
0.971,-0.013
0.972,-0.009
0.973,-0.006
0.974,-0.003
0.975,-0.003
0.976,-0.004
0.977,-0.003
0.978,-0.001
0.979,-0.003
0.980,0.001
0.981,0.006
0.982,0.005
0.983,0.006
0.984,0.011
0.985,0.012
0.986,0.008
0.987,0.009
0.988,0.009
0.989,0.009
0.990,0.011
0.991,0.009
0.992,0.016
0.993,0.022
0.994,0.021
0.995,0.019
0.996,0.017
0.997,0.019
0.998,0.019
0.999,0.019
1.000,0.016
1.001,0.016
1.002,0.016
1.003,0.016
1.004,0.020
1.005,0.022
1.006,0.025
1.007,0.028
1.008,0.025
1.009,0.028
1.010,0.028
1.011,0.028
1.012,0.027
1.013,0.025
1.014,0.029
1.015,0.028
1.016,0.024
1.017,0.025
1.018,0.028
1.019,0.028
1.020,0.025
1.021,0.025
1.022,0.025
1.023,0.025
1.024,0.026
1.025,0.028
1.026,0.028
1.027,0.028
1.028,0.025
1.029,0.025
1.030,0.025
1.031,0.025
1.032,0.025
1.033,0.022
1.034,0.022
1.035,0.022
1.036,0.021
1.037,0.016
1.038,0.016
1.039,0.012
1.040,0.014
1.041,0.012
1.042,0.014
1.043,0.012
1.044,0.014
1.045,0.012
1.046,0.012
1.047,0.012
1.048,0.011
1.049,0.009
1.050,0.006
1.051,0.006
1.052,0.003
1.053,0.003
1.054,0.004
1.055,0.003
1.056,-0.001
1.057,-0.006
1.058,-0.008
1.059,-0.006
1.060,-0.009
1.061,-0.013
1.062,-0.008
1.063,-0.009
1.064,-0.013
1.065,-0.016
1.066,-0.022
1.067,-0.028
1.068,-0.027
1.069,-0.031
1.070,-0.031
1.071,-0.031
1.072,-0.031
1.073,-0.034
1.074,-0.038
1.075,-0.038
1.076,-0.036
1.077,-0.038
1.078,-0.041
1.079,-0.044
1.080,-0.047
1.081,-0.047
1.082,-0.046
1.083,-0.044
1.084,-0.048
1.085,-0.047
1.086,-0.046
1.087,-0.044
1.088,-0.047
1.089,-0.047
1.090,-0.047
1.091,-0.047
1.092,-0.047
1.093,-0.047
1.094,-0.048
1.095,-0.047
1.096,-0.046
1.097,-0.047
1.098,-0.046
1.099,-0.044
1.100,-0.042
1.101,-0.041
1.102,-0.044
1.103,-0.041
1.104,-0.038
1.105,-0.038
1.106,-0.039
1.107,-0.041
1.108,-0.036
1.109,-0.031
1.110,-0.031
1.111,-0.031
1.112,-0.029
1.113,-0.028
1.114,-0.025
1.115,-0.019
1.116,-0.020
1.117,-0.019
1.118,-0.017
1.119,-0.019
1.120,-0.017
1.121,-0.016
1.122,-0.014
1.123,-0.013
1.124,-0.008
1.125,-0.003
1.126,0.000
1.127,0.000
1.128,0.000
1.129,0.000
1.130,0.000
1.131,0.003
1.132,0.006
1.133,0.006
1.134,0.008
1.135,0.006
1.136,0.006
1.137,0.009
1.138,0.014
1.139,0.016
1.140,0.017
1.141,0.016
1.142,0.019
1.143,0.022
1.144,0.021
1.145,0.019
1.146,0.019
1.147,0.016
1.148,0.014
1.149,0.016
1.150,0.019
1.151,0.022
1.152,0.021
1.153,0.019
1.154,0.016
1.155,0.016
1.156,0.017
1.157,0.016
1.158,0.017
1.159,0.016
1.160,0.016
1.161,0.016
1.162,0.017
1.163,0.019
1.164,0.014
1.165,0.012
1.166,0.008
1.167,0.006
1.168,0.006
1.169,0.006
1.170,0.005
1.171,0.003
1.172,0.003
1.173,0.000
1.174,-0.003
1.175,-0.006
1.176,-0.006
1.177,-0.003
1.178,-0.008
1.179,-0.009
1.180,-0.013
1.181,-0.013
1.182,-0.011
1.183,-0.009
1.184,-0.013
1.185,-0.013
1.186,-0.017
1.187,-0.019
1.188,-0.018
1.189,-0.016
1.190,-0.019
1.191,-0.019
1.192,-0.022
1.193,-0.028
1.194,-0.028
1.195,-0.028
1.196,-0.028
1.197,-0.031
1.198,-0.028
1.199,-0.031
1.200,-0.030
1.201,-0.028
1.202,-0.033
1.203,-0.034
1.204,-0.034
1.205,-0.034
1.206,-0.036
1.207,-0.038
1.208,-0.036
1.209,-0.038
1.210,-0.038
1.211,-0.038
1.212,-0.036
1.213,-0.034
1.214,-0.036
1.215,-0.038
1.216,-0.038
1.217,-0.038
1.218,-0.036
1.219,-0.034
1.220,-0.036
1.221,-0.038
1.222,-0.038
1.223,-0.038
1.224,-0.038
1.225,-0.038
1.226,-0.038
1.227,-0.038
1.228,-0.036
1.229,-0.038
1.230,-0.034
1.231,-0.031
1.232,-0.031
1.233,-0.031
1.234,-0.033
1.235,-0.034
1.236,-0.034
1.237,-0.034
1.238,-0.028
1.239,-0.028
1.240,-0.029
1.241,-0.031
1.242,-0.031
1.243,-0.031
1.244,-0.031
1.245,-0.028
1.246,-0.029
1.247,-0.031
1.248,-0.033
1.249,-0.031
1.250,-0.033
1.251,-0.034
1.252,-0.034
1.253,-0.034
1.254,-0.034
1.255,-0.034
1.256,-0.031
1.257,-0.034
1.258,-0.034
1.259,-0.034
1.260,-0.039
1.261,-0.038
1.262,-0.038
1.263,-0.038
1.264,-0.038
1.265,-0.038
1.266,-0.038
1.267,-0.038
1.268,-0.036
1.269,-0.034
1.270,-0.038
1.271,-0.038
1.272,-0.038
1.273,-0.038
1.274,-0.038
1.275,-0.038
1.276,-0.038
1.277,-0.038
1.278,-0.036
1.279,-0.034
1.280,-0.034
1.281,-0.034
1.282,-0.034
1.283,-0.034
1.284,-0.033
1.285,-0.031
1.286,-0.034
1.287,-0.034
1.288,-0.034
1.289,-0.034
1.290,-0.033
1.291,-0.034
1.292,-0.034
1.293,-0.034
1.294,-0.033
1.295,-0.034
1.296,-0.036
1.297,-0.038
1.298,-0.038
1.299,-0.038
1.300,-0.038
1.301,-0.038
1.302,-0.039
1.303,-0.044
1.304,-0.043
1.305,-0.044
1.306,-0.047
1.307,-0.047
1.308,-0.044
1.309,-0.047
1.310,-0.045
1.311,-0.050
1.312,-0.051
1.313,-0.053
1.314,-0.053
1.315,-0.053
1.316,-0.052
1.317,-0.053
1.318,-0.052
1.319,-0.050
1.320,-0.053
1.321,-0.053
1.322,-0.054
1.323,-0.059
1.324,-0.061
1.325,-0.063
1.326,-0.061
1.327,-0.063
1.328,-0.058
1.329,-0.056
1.330,-0.059
1.331,-0.063
1.332,-0.064
1.333,-0.063
1.334,-0.069
1.335,-0.072
1.336,-0.069
1.337,-0.072
1.338,-0.066
1.339,-0.066
1.340,-0.067
1.341,-0.069
1.342,-0.069
1.343,-0.069
1.344,-0.072
1.345,-0.072
1.346,-0.073
1.347,-0.075
1.348,-0.075
1.349,-0.078
1.350,-0.077
1.351,-0.075
1.352,-0.075
1.353,-0.075
1.354,-0.075
1.355,-0.078
1.356,-0.079
1.357,-0.081
1.358,-0.081
1.359,-0.081
1.360,-0.077
1.361,-0.072
1.362,-0.075
1.363,-0.078
1.364,-0.078
1.365,-0.078
1.366,-0.081
1.367,-0.081
1.368,-0.083
1.369,-0.084
1.370,-0.084
1.371,-0.088
1.372,-0.088
1.373,-0.084
1.374,-0.084
1.375,-0.081
1.376,-0.083
1.377,-0.084
1.378,-0.086
1.379,-0.088
1.380,-0.086
1.381,-0.088
1.382,-0.088
1.383,-0.088
1.384,-0.088
1.385,-0.088
1.386,-0.088
1.387,-0.088
1.388,-0.088
1.389,-0.088
1.390,-0.088
1.391,-0.088
1.392,-0.088
1.393,-0.088
1.394,-0.086
1.395,-0.084
1.396,-0.080
1.397,-0.075
1.398,-0.076
1.399,-0.072
1.400,-0.064
1.401,-0.059
1.402,-0.053
1.403,-0.050
1.404,-0.046
1.405,-0.038
1.406,-0.036
1.407,-0.028
1.408,-0.023
1.409,-0.022
1.410,-0.020
1.411,-0.016
1.412,-0.006
1.413,-0.006
1.414,-0.004
1.415,-0.003
1.416,-0.008
1.417,-0.006
1.418,-0.011
1.419,-0.013
1.420,-0.013
1.421,-0.016
1.422,-0.016
1.423,-0.016
1.424,-0.017
1.425,-0.016
1.426,-0.014
1.427,-0.013
1.428,-0.011
1.429,-0.009
1.430,-0.009
1.431,-0.009
1.432,-0.006
1.433,0.000
1.434,0.000
1.435,0.003
1.436,0.005
1.437,0.006
1.438,0.012
1.439,0.009
1.440,0.011
1.441,0.009
1.442,0.007
1.443,0.006
1.444,0.009
1.445,0.009
1.446,0.003
1.447,0.000
1.448,-0.011
1.449,-0.019
1.450,-0.022
1.451,-0.028
1.452,-0.030
1.453,-0.034
1.454,-0.038
1.455,-0.041
1.456,-0.046
1.457,-0.047
1.458,-0.050
1.459,-0.050
1.460,-0.049
1.461,-0.050
1.462,-0.052
1.463,-0.053
1.464,-0.053
1.465,-0.053
1.466,-0.053
1.467,-0.053
1.468,-0.056
1.469,-0.053
1.470,-0.053
1.471,-0.053
1.472,-0.064
1.473,-0.072
1.474,-0.079
1.475,-0.084
1.476,-0.088
1.477,-0.088
1.478,-0.097
1.479,-0.103
1.480,-0.103
1.481,-0.103
1.482,-0.105
1.483,-0.106
1.484,-0.111
1.485,-0.112
1.486,-0.112
1.487,-0.112
1.488,-0.114
1.489,-0.119
1.490,-0.119
1.491,-0.119
1.492,-0.122
1.493,-0.122
1.494,-0.122
1.495,-0.122
1.496,-0.122
1.497,-0.122
1.498,-0.122
1.499,-0.122
1.500,-0.125
1.501,-0.125
1.502,-0.124
1.503,-0.122
1.504,-0.122
1.505,-0.122
1.506,-0.123
1.507,-0.125
1.508,-0.128
1.509,-0.128
1.510,-0.125
1.511,-0.119
1.512,-0.118
1.513,-0.119
1.514,-0.119
1.515,-0.119
1.516,-0.119
1.517,-0.119
1.518,-0.120
1.519,-0.122
1.520,-0.123
1.521,-0.125
1.522,-0.122
1.523,-0.125
1.524,-0.126
1.525,-0.128
1.526,-0.129
1.527,-0.131
1.528,-0.127
1.529,-0.122
1.530,-0.122
1.531,-0.122
1.532,-0.123
1.533,-0.125
1.534,-0.125
1.535,-0.125
1.536,-0.122
1.537,-0.122
1.538,-0.125
1.539,-0.125
1.540,-0.125
1.541,-0.125
1.542,-0.125
1.543,-0.125
1.544,-0.125
1.545,-0.125
1.546,-0.125
1.547,-0.125
1.548,-0.124
1.549,-0.125
1.550,-0.126
1.551,-0.131
1.552,-0.134
1.553,-0.144
1.554,-0.151
1.555,-0.166
1.556,-0.183
1.557,-0.200
1.558,-0.219
1.559,-0.241
1.560,-0.255
1.561,-0.266
1.562,-0.274
1.563,-0.272
1.564,-0.266
1.565,-0.253
1.566,-0.234
1.567,-0.209
1.568,-0.181
1.569,-0.144
1.570,-0.108
1.571,-0.072
1.572,-0.036
1.573,-0.003
1.574,0.036
1.575,0.078
1.576,0.123
1.577,0.178
1.578,0.231
1.579,0.281
1.580,0.344
1.581,0.406
1.582,0.481
1.583,0.566
1.584,0.662
1.585,0.756
1.586,0.837
1.587,0.919
1.588,0.989
1.589,1.050
1.590,1.120
1.591,1.187
1.592,1.246
1.593,1.306
1.594,1.356
1.595,1.397
1.596,1.392
1.597,1.369
1.598,1.322
1.599,1.237
1.600,1.152
1.601,1.062
1.602,0.976
1.603,0.891
1.604,0.796
1.605,0.703
1.606,0.625
1.607,0.562
1.608,0.491
1.609,0.419
1.610,0.347
1.611,0.275
1.612,0.220
1.613,0.166
1.614,0.112
1.615,0.066
1.616,0.008
1.617,-0.056
1.618,-0.102
1.619,-0.141
1.620,-0.172
1.621,-0.191
1.622,-0.205
1.623,-0.206
1.624,-0.208
1.625,-0.200
1.626,-0.180
1.627,-0.166
1.628,-0.148
1.629,-0.128
1.630,-0.108
1.631,-0.091
1.632,-0.079
1.633,-0.075
1.634,-0.066
1.635,-0.059
1.636,-0.047
1.637,-0.044
1.638,-0.038
1.639,-0.034
1.640,-0.036
1.641,-0.034
1.642,-0.036
1.643,-0.034
1.644,-0.033
1.645,-0.034
1.646,-0.041
1.647,-0.047
1.648,-0.049
1.649,-0.050
1.650,-0.056
1.651,-0.056
1.652,-0.056
1.653,-0.056
1.654,-0.055
1.655,-0.053
1.656,-0.050
1.657,-0.050
1.658,-0.047
1.659,-0.050
1.660,-0.051
1.661,-0.053
1.662,-0.052
1.663,-0.053
1.664,-0.055
1.665,-0.056
1.666,-0.058
1.667,-0.059
1.668,-0.056
1.669,-0.056
1.670,-0.055
1.671,-0.050
1.672,-0.051
1.673,-0.053
1.674,-0.050
1.675,-0.050
1.676,-0.053
1.677,-0.050
1.678,-0.050
1.679,-0.050
1.680,-0.050
1.681,-0.050
1.682,-0.050
1.683,-0.050
1.684,-0.050
1.685,-0.050
1.686,-0.050
1.687,-0.050
1.688,-0.051
1.689,-0.050
1.690,-0.050
1.691,-0.050
1.692,-0.050
1.693,-0.050
1.694,-0.050
1.695,-0.050
1.696,-0.051
1.697,-0.053
1.698,-0.047
1.699,-0.044
1.700,-0.041
1.701,-0.041
1.702,-0.039
1.703,-0.038
1.704,-0.042
1.705,-0.041
1.706,-0.038
1.707,-0.034
1.708,-0.038
1.709,-0.034
1.710,-0.034
1.711,-0.034
1.712,-0.034
1.713,-0.034
1.714,-0.034
1.715,-0.034
1.716,-0.036
1.717,-0.034
1.718,-0.034
1.719,-0.034
1.720,-0.033
1.721,-0.028
1.722,-0.029
1.723,-0.031
1.724,-0.028
1.725,-0.031
1.726,-0.027
1.727,-0.025
1.728,-0.021
1.729,-0.019
1.730,-0.020
1.731,-0.019
1.732,-0.019
1.733,-0.019
1.734,-0.019
1.735,-0.016
1.736,-0.013
1.737,-0.013
1.738,-0.013
1.739,-0.013
1.740,-0.013
1.741,-0.013
1.742,-0.008
1.743,-0.006
1.744,-0.006
1.745,-0.003
1.746,-0.001
1.747,-0.003
1.748,-0.003
1.749,-0.003
1.750,-0.003
1.751,0.000
1.752,0.004
1.753,0.006
1.754,0.002
1.755,0.003
1.756,0.004
1.757,0.006
1.758,0.009
1.759,0.009
1.760,0.009
1.761,0.009
1.762,0.009
1.763,0.009
1.764,0.008
1.765,0.009
1.766,0.009
1.767,0.009
1.768,0.008
1.769,0.009
1.770,0.012
1.771,0.016
1.772,0.017
1.773,0.016
1.774,0.017
1.775,0.019
1.776,0.014
1.777,0.016
1.778,0.017
1.779,0.019
1.780,0.020
1.781,0.022
1.782,0.025
1.783,0.022
1.784,0.017
1.785,0.019
1.786,0.021
1.787,0.019
1.788,0.019
1.789,0.022
1.790,0.022
1.791,0.022
1.792,0.021
1.793,0.019
1.794,0.020
1.795,0.022
1.796,0.019
1.797,0.019
1.798,0.017
1.799,0.016
1.800,0.016
1.801,0.012
1.802,0.012
1.803,0.012
1.804,0.012
1.805,0.009
1.806,0.009
1.807,0.006
1.808,0.007
1.809,0.006
1.810,0.007
1.811,0.006
1.812,0.006
1.813,0.003
1.814,0.003
1.815,0.003
1.816,0.003
1.817,0.003
1.818,0.000
1.819,0.000
1.820,-0.004
1.821,-0.006
1.822,-0.006
1.823,-0.009
1.824,-0.011
1.825,-0.013
1.826,-0.014
1.827,-0.013
1.828,-0.017
1.829,-0.022
1.830,-0.022
1.831,-0.028
1.832,-0.030
1.833,-0.031
1.834,-0.028
1.835,-0.025
1.836,-0.025
1.837,-0.031
1.838,-0.031
1.839,-0.031
1.840,-0.031
1.841,-0.034
1.842,-0.038
1.843,-0.038
1.844,-0.039
1.845,-0.044
1.846,-0.044
1.847,-0.044
1.848,-0.047
1.849,-0.047
1.850,-0.047
1.851,-0.047
1.852,-0.051
1.853,-0.050
1.854,-0.049
1.855,-0.047
1.856,-0.050
1.857,-0.050
1.858,-0.050
1.859,-0.050
1.860,-0.050
1.861,-0.050
1.862,-0.051
1.863,-0.050
1.864,-0.047
1.865,-0.047
1.866,-0.044
1.867,-0.041
1.868,-0.042
1.869,-0.044
1.870,-0.047
1.871,-0.044
1.872,-0.041
1.873,-0.041
1.874,-0.039
1.875,-0.038
1.876,-0.036
1.877,-0.034
1.878,-0.034
1.879,-0.034
1.880,-0.031
1.881,-0.028
1.882,-0.029
1.883,-0.028
1.884,-0.027
1.885,-0.022
1.886,-0.019
1.887,-0.019
1.888,-0.016
1.889,-0.013
1.890,-0.013
1.891,-0.013
1.892,-0.013
1.893,-0.013
1.894,-0.006
1.895,-0.003
1.896,0.000
1.897,0.003
1.898,0.003
1.899,0.006
1.900,0.008
1.901,0.006
1.902,0.008
1.903,0.006
1.904,0.006
1.905,0.009
1.906,0.012
1.907,0.012
1.908,0.014
1.909,0.012
1.910,0.016
1.911,0.019
1.912,0.019
1.913,0.019
1.914,0.021
1.915,0.019
1.916,0.017
1.917,0.019
1.918,0.020
1.919,0.022
1.920,0.022
1.921,0.022
1.922,0.021
1.923,0.022
1.924,0.023
1.925,0.022
1.926,0.022
1.927,0.019
1.928,0.019
1.929,0.019
1.930,0.019
1.931,0.019
1.932,0.014
1.933,0.012
1.934,0.009
1.935,0.009
1.936,0.009
1.937,0.009
1.938,0.008
1.939,0.006
1.940,0.009
1.941,0.009
1.942,0.006
1.943,0.003
1.944,0.002
1.945,0.003
1.946,0.000
1.947,0.000
1.948,-0.003
1.949,-0.003
1.950,-0.003
1.951,-0.003
1.952,-0.006
1.953,-0.006
1.954,-0.011
1.955,-0.013
1.956,-0.013
1.957,-0.013
1.958,-0.016
1.959,-0.016
1.960,-0.013
1.961,-0.013
1.962,-0.013
1.963,-0.013
1.964,-0.013
1.965,-0.016
1.966,-0.014
1.967,-0.019
1.968,-0.018
1.969,-0.016
1.970,-0.023
1.971,-0.028
1.972,-0.027
1.973,-0.025
1.974,-0.024
1.975,-0.022
1.976,-0.022
1.977,-0.025
1.978,-0.025
1.979,-0.025
1.980,-0.026
1.981,-0.028
1.982,-0.028
1.983,-0.028
1.984,-0.028
1.985,-0.028
1.986,-0.028
1.987,-0.028
1.988,-0.029
1.989,-0.031
1.990,-0.028
1.991,-0.025
1.992,-0.025
1.993,-0.025
1.994,-0.026
1.995,-0.028
1.996,-0.026
1.997,-0.028
1.998,-0.028
1.999,-0.028
2.000,-0.028
2.001,-0.028
2.002,-0.028
2.003,-0.028
2.004,-0.029
2.005,-0.031
2.006,-0.025
2.007,-0.025
2.008,-0.022
2.009,-0.019
2.010,-0.020
2.011,-0.022
2.012,-0.023
2.013,-0.022
2.014,-0.021
2.015,-0.019
2.016,-0.022
2.017,-0.022
2.018,-0.022
2.019,-0.022
2.020,-0.022
2.021,-0.022
2.022,-0.025
2.023,-0.028
2.024,-0.024
2.025,-0.025
2.026,-0.022
2.027,-0.019
2.028,-0.023
2.029,-0.022
2.030,-0.022
2.031,-0.022
2.032,-0.022
2.033,-0.022
2.034,-0.022
2.035,-0.022
2.036,-0.021
2.037,-0.019
2.038,-0.022
2.039,-0.022
2.040,-0.022
2.041,-0.022
2.042,-0.022
2.043,-0.022
2.044,-0.022
2.045,-0.022
2.046,-0.023
2.047,-0.025
2.048,-0.026
2.049,-0.028
2.050,-0.028
2.051,-0.028
2.052,-0.027
2.053,-0.025
2.054,-0.029
2.055,-0.031
2.056,-0.033
2.057,-0.034
2.058,-0.033
2.059,-0.034
2.060,-0.034
2.061,-0.034
2.062,-0.033
2.063,-0.034
2.064,-0.034
2.065,-0.034
2.066,-0.034
2.067,-0.034
2.068,-0.034
2.069,-0.034
2.070,-0.036
2.071,-0.041
2.072,-0.039
2.073,-0.041
2.074,-0.044
2.075,-0.044
2.076,-0.039
2.077,-0.041
2.078,-0.039
2.079,-0.044
2.080,-0.044
2.081,-0.044
2.082,-0.045
2.083,-0.047
2.084,-0.047
2.085,-0.050
2.086,-0.050
2.087,-0.050
2.088,-0.052
2.089,-0.050
2.090,-0.051
2.091,-0.056
2.092,-0.056
2.093,-0.056
2.094,-0.056
2.095,-0.059
2.096,-0.059
2.097,-0.063
2.098,-0.061
2.099,-0.059
2.100,-0.063
2.101,-0.063
2.102,-0.064
2.103,-0.063
2.104,-0.056
2.105,-0.056
2.106,-0.054
2.107,-0.059
2.108,-0.063
2.109,-0.066
2.110,-0.064
2.111,-0.063
2.112,-0.066
2.113,-0.066
2.114,-0.066
2.115,-0.066
2.116,-0.066
2.117,-0.069
2.118,-0.069
2.119,-0.069
2.120,-0.068
2.121,-0.066
2.122,-0.065
2.123,-0.066
2.124,-0.067
2.125,-0.069
2.126,-0.069
2.127,-0.069
2.128,-0.072
2.129,-0.078
2.130,-0.077
2.131,-0.075
2.132,-0.075
2.133,-0.075
2.134,-0.079
2.135,-0.081
2.136,-0.078
2.137,-0.081
2.138,-0.081
2.139,-0.081
2.140,-0.081
2.141,-0.081
2.142,-0.080
2.143,-0.078
2.144,-0.081
2.145,-0.081
2.146,-0.081
2.147,-0.081
2.148,-0.081
2.149,-0.081
2.150,-0.081
2.151,-0.081
2.152,-0.081
2.153,-0.081
2.154,-0.081
2.155,-0.081
2.156,-0.081
2.157,-0.078
2.158,-0.075
2.159,-0.072
2.160,-0.068
2.161,-0.066
2.162,-0.058
2.163,-0.050
2.164,-0.047
2.165,-0.041
2.166,-0.038
2.167,-0.034
2.168,-0.028
2.169,-0.028
2.170,-0.022
2.171,-0.016
2.172,-0.013
2.173,-0.009
2.174,-0.004
2.175,0.000
2.176,-0.002
2.177,0.003
2.178,0.006
2.179,0.000
2.180,-0.003
2.181,-0.009
2.182,-0.009
2.183,-0.009
2.184,-0.013
2.185,-0.013
2.186,-0.014
2.187,-0.016
2.188,-0.014
2.189,-0.013
2.190,-0.009
2.191,-0.006
2.192,0.000
2.193,0.003
2.194,0.003
2.195,0.003
2.196,0.006
2.197,0.006
2.198,0.011
2.199,0.016
2.200,0.019
2.201,0.025
2.202,0.023
2.203,0.025
2.204,0.022
2.205,0.019
2.206,0.014
2.207,0.012
2.208,0.008
2.209,0.003
2.210,0.002
2.211,-0.006
2.212,-0.008
2.213,-0.009
2.214,-0.016
2.215,-0.019
2.216,-0.025
2.217,-0.028
2.218,-0.031
2.219,-0.038
2.220,-0.041
2.221,-0.044
2.222,-0.044
2.223,-0.044
2.224,-0.047
2.225,-0.050
2.226,-0.053
2.227,-0.053
2.228,-0.052
2.229,-0.050
2.230,-0.049
2.231,-0.050
2.232,-0.048
2.233,-0.050
2.234,-0.051
2.235,-0.059
2.236,-0.063
2.237,-0.069
2.238,-0.069
2.239,-0.072
2.240,-0.076
2.241,-0.084
2.242,-0.091
2.243,-0.097
2.244,-0.101
2.245,-0.106
2.246,-0.105
2.247,-0.106
2.248,-0.109
2.249,-0.109
2.250,-0.109
2.251,-0.109
2.252,-0.112
2.253,-0.112
2.254,-0.111
2.255,-0.112
2.256,-0.114
2.257,-0.116
2.258,-0.114
2.259,-0.112
2.260,-0.114
2.261,-0.116
2.262,-0.116
2.263,-0.119
2.264,-0.116
2.265,-0.112
2.266,-0.114
2.267,-0.116
2.268,-0.117
2.269,-0.119
2.270,-0.119
2.271,-0.122
2.272,-0.122
2.273,-0.122
2.274,-0.118
2.275,-0.116
2.276,-0.119
2.277,-0.119
2.278,-0.120
2.279,-0.122
2.280,-0.122
2.281,-0.122
2.282,-0.123
2.283,-0.125
2.284,-0.122
2.285,-0.116
2.286,-0.119
2.287,-0.119
2.288,-0.122
2.289,-0.125
2.290,-0.126
2.291,-0.128
2.292,-0.128
2.293,-0.128
2.294,-0.127
2.295,-0.125
2.296,-0.122
2.297,-0.119
2.298,-0.119
2.299,-0.116
2.300,-0.117
2.301,-0.122
2.302,-0.123
2.303,-0.125
2.304,-0.126
2.305,-0.128
2.306,-0.125
2.307,-0.122
2.308,-0.123
2.309,-0.125
2.310,-0.124
2.311,-0.122
2.312,-0.126
2.313,-0.128
2.314,-0.130
2.315,-0.131
2.316,-0.145
2.317,-0.153
2.318,-0.164
2.319,-0.181
2.320,-0.198
2.321,-0.219
2.322,-0.241
2.323,-0.259
2.324,-0.268
2.325,-0.272
2.326,-0.269
2.327,-0.259
2.328,-0.246
2.329,-0.225
2.330,-0.200
2.331,-0.172
2.332,-0.133
2.333,-0.094
2.334,-0.064
2.335,-0.031
2.336,0.003
2.337,0.041
2.338,0.087
2.339,0.137
2.340,0.186
2.341,0.237
2.342,0.291
2.343,0.347
2.344,0.416
2.345,0.494
2.346,0.572
2.347,0.666
2.348,0.757
2.349,0.847
2.350,0.925
2.351,0.994
2.352,1.056
2.353,1.119
2.354,1.187
2.355,1.253
2.356,1.311
2.357,1.359
2.358,1.392
2.359,1.406
2.360,1.375
2.361,1.316
2.362,1.246
2.363,1.150
2.364,1.067
2.365,0.978
2.366,0.884
2.367,0.791
2.368,0.704
2.369,0.622
2.370,0.551
2.371,0.484
2.372,0.416
2.373,0.344
2.374,0.278
2.375,0.222
2.376,0.166
2.377,0.122
2.378,0.069
2.379,0.009
2.380,-0.043
2.381,-0.100
2.382,-0.147
2.383,-0.175
2.384,-0.194
2.385,-0.206
2.386,-0.209
2.387,-0.206
2.388,-0.196
2.389,-0.175
2.390,-0.164
2.391,-0.147
2.392,-0.126
2.393,-0.109
2.394,-0.095
2.395,-0.084
2.396,-0.079
2.397,-0.069
2.398,-0.063
2.399,-0.053
2.400,-0.047
2.401,-0.038
2.402,-0.034
2.403,-0.034
2.404,-0.033
2.405,-0.034
2.406,-0.033
2.407,-0.034
2.408,-0.041
2.409,-0.047
2.410,-0.050
2.411,-0.056
2.412,-0.059
2.413,-0.059
2.414,-0.053
2.415,-0.050
2.416,-0.050
2.417,-0.050
2.418,-0.053
2.419,-0.053
2.420,-0.053
2.421,-0.050
2.422,-0.053
2.423,-0.053
2.424,-0.053
2.425,-0.053
2.426,-0.055
2.427,-0.056
2.428,-0.059
2.429,-0.059
2.430,-0.059
2.431,-0.056
2.432,-0.056
2.433,-0.056
2.434,-0.053
2.435,-0.053
2.436,-0.054
2.437,-0.053
2.438,-0.052
2.439,-0.053
2.440,-0.051
2.441,-0.053
2.442,-0.053
2.443,-0.053
2.444,-0.052
2.445,-0.050
2.446,-0.050
2.447,-0.050
2.448,-0.047
2.449,-0.044
2.450,-0.045
2.451,-0.047
2.452,-0.045
2.453,-0.047
2.454,-0.046
2.455,-0.044
2.456,-0.043
2.457,-0.041
2.458,-0.041
2.459,-0.041
2.460,-0.042
2.461,-0.041
2.462,-0.042
2.463,-0.041
2.464,-0.038
2.465,-0.034
2.466,-0.034
2.467,-0.038
2.468,-0.034
2.469,-0.034
2.470,-0.036
2.471,-0.038
2.472,-0.033
2.473,-0.034
2.474,-0.034
2.475,-0.034
2.476,-0.039
2.477,-0.044
2.478,-0.041
2.479,-0.038
2.480,-0.034
2.481,-0.034
2.482,-0.034
2.483,-0.034
2.484,-0.030
2.485,-0.028
2.486,-0.028
2.487,-0.025
2.488,-0.029
2.489,-0.028
2.490,-0.029
2.491,-0.028
2.492,-0.027
2.493,-0.025
2.494,-0.021
2.495,-0.019
2.496,-0.018
2.497,-0.016
2.498,-0.014
2.499,-0.013
2.500,-0.013
2.501,-0.013
2.502,-0.013
2.503,-0.013
2.504,-0.011
2.505,-0.006
2.506,-0.005
2.507,-0.003
2.508,0.000
2.509,0.003
2.510,0.000
2.511,-0.003
2.512,-0.002
2.513,0.000
2.514,0.004
2.515,0.009
2.516,0.009
2.517,0.006
2.518,0.008
2.519,0.006
2.520,0.006
2.521,0.009
2.522,0.009
2.523,0.009
2.524,0.009
2.525,0.009
2.526,0.008
2.527,0.006
2.528,0.009
2.529,0.009
2.530,0.009
2.531,0.009
2.532,0.011
2.533,0.009
2.534,0.008
2.535,0.009
2.536,0.009
2.537,0.009
2.538,0.011
2.539,0.009
2.540,0.014
2.541,0.016
2.542,0.017
2.543,0.019
2.544,0.017
2.545,0.019
2.546,0.017
2.547,0.016
2.548,0.020
2.549,0.025
2.550,0.026
2.551,0.025
2.552,0.025
2.553,0.025
2.554,0.024
2.555,0.022
2.556,0.019
2.557,0.016
2.558,0.016
2.559,0.012
2.560,0.012
2.561,0.012
2.562,0.014
2.563,0.016
2.564,0.011
2.565,0.009
2.566,0.009
2.567,0.009
2.568,0.009
2.569,0.012
2.570,0.009
2.571,0.009
2.572,0.005
2.573,0.003
2.574,0.001
2.575,0.003
2.576,0.000
2.577,0.000
2.578,-0.001
2.579,-0.006
2.580,-0.009
2.581,-0.013
2.582,-0.013
2.583,-0.016
2.584,-0.014
2.585,-0.013
2.586,-0.016
2.587,-0.019
2.588,-0.022
2.589,-0.025
2.590,-0.022
2.591,-0.022
2.592,-0.028
2.593,-0.028
2.594,-0.031
2.595,-0.034
2.596,-0.036
2.597,-0.034
2.598,-0.033
2.599,-0.031
2.600,-0.038
2.601,-0.038
2.602,-0.036
2.603,-0.034
2.604,-0.039
2.605,-0.044
2.606,-0.044
2.607,-0.044
2.608,-0.047
2.609,-0.047
2.610,-0.047
2.611,-0.050
2.612,-0.051
2.613,-0.053
2.614,-0.052
2.615,-0.053
2.616,-0.050
2.617,-0.050
2.618,-0.050
2.619,-0.053
2.620,-0.052
2.621,-0.050
2.622,-0.050
2.623,-0.050
2.624,-0.051
2.625,-0.053
2.626,-0.050
2.627,-0.050
2.628,-0.056
2.629,-0.059
2.630,-0.061
2.631,-0.059
2.632,-0.055
2.633,-0.056
2.634,-0.056
2.635,-0.056
2.636,-0.053
2.637,-0.050
2.638,-0.050
2.639,-0.047
2.640,-0.045
2.641,-0.047
2.642,-0.050
2.643,-0.050
2.644,-0.044
2.645,-0.041
2.646,-0.039
2.647,-0.041
2.648,-0.038
2.649,-0.034
2.650,-0.034
2.651,-0.031
2.652,-0.028
2.653,-0.028
2.654,-0.027
2.655,-0.022
2.656,-0.019
2.657,-0.016
2.658,-0.016
2.659,-0.013
2.660,-0.011
2.661,-0.013
2.662,-0.009
2.663,-0.006
2.664,-0.003
2.665,0.003
2.666,0.003
2.667,0.003
2.668,0.003
2.669,0.003
2.670,0.004
2.671,0.009
2.672,0.009
2.673,0.009
2.674,0.008
2.675,0.006
2.676,0.006
2.677,0.009
2.678,0.009
2.679,0.009
2.680,0.011
2.681,0.009
2.682,0.009
2.683,0.009
2.684,0.011
2.685,0.012
2.686,0.016
2.687,0.016
2.688,0.012
2.689,0.012
2.690,0.009
2.691,0.009
2.692,0.009
2.693,0.009
2.694,0.011
2.695,0.009
2.696,0.009
2.697,0.006
2.698,0.006
2.699,0.006
2.700,0.006
2.701,0.006
2.702,0.006
2.703,0.006
2.704,0.000
2.705,-0.006
2.706,-0.008
2.707,-0.006
2.708,-0.003
2.709,-0.006
2.710,-0.006
2.711,-0.009
2.712,-0.009
2.713,-0.009
2.714,-0.008
2.715,-0.009
2.716,-0.009
2.717,-0.013
2.718,-0.013
2.719,-0.013
2.720,-0.016
2.721,-0.022
2.722,-0.021
2.723,-0.019
2.724,-0.022
2.725,-0.022
2.726,-0.023
2.727,-0.025
2.728,-0.029
2.729,-0.028
2.730,-0.030
2.731,-0.028
2.732,-0.028
2.733,-0.031
2.734,-0.031
2.735,-0.031
2.736,-0.031
2.737,-0.031
2.738,-0.031
2.739,-0.031
2.740,-0.034
2.741,-0.034
2.742,-0.036
2.743,-0.038
2.744,-0.036
2.745,-0.034
2.746,-0.034
2.747,-0.034
2.748,-0.034
2.749,-0.034
2.750,-0.034
2.751,-0.034
2.752,-0.034
2.753,-0.034
2.754,-0.034
2.755,-0.034
2.756,-0.034
2.757,-0.034
2.758,-0.034
2.759,-0.031
2.760,-0.031
2.761,-0.031
2.762,-0.031
2.763,-0.031
2.764,-0.031
2.765,-0.031
2.766,-0.033
2.767,-0.034
2.768,-0.033
2.769,-0.028
2.770,-0.031
2.771,-0.031
2.772,-0.033
2.773,-0.034
2.774,-0.034
2.775,-0.034
2.776,-0.033
2.777,-0.034
2.778,-0.033
2.779,-0.034
2.780,-0.034
2.781,-0.034
2.782,-0.034
2.783,-0.034
2.784,-0.034
2.785,-0.034
2.786,-0.034
2.787,-0.031
2.788,-0.034
2.789,-0.034
2.790,-0.033
2.791,-0.034
2.792,-0.031
2.793,-0.031
2.794,-0.031
2.795,-0.031
2.796,-0.031
2.797,-0.031
2.798,-0.031
2.799,-0.031
2.800,-0.031
2.801,-0.034
2.802,-0.036
2.803,-0.038
2.804,-0.038
2.805,-0.038
2.806,-0.036
2.807,-0.034
2.808,-0.036
2.809,-0.038
2.810,-0.038
2.811,-0.038
2.812,-0.039
2.813,-0.041
2.814,-0.041
2.815,-0.041
2.816,-0.039
2.817,-0.041
2.818,-0.041
2.819,-0.041
2.820,-0.042
2.821,-0.044
2.822,-0.047
2.823,-0.047
2.824,-0.046
2.825,-0.044
2.826,-0.046
2.827,-0.044
2.828,-0.044
2.829,-0.044
2.830,-0.044
2.831,-0.044
2.832,-0.044
2.833,-0.044
2.834,-0.046
2.835,-0.044
2.836,-0.046
2.837,-0.047
2.838,-0.050
2.839,-0.050
2.840,-0.053
2.841,-0.050
2.842,-0.053
2.843,-0.053
2.844,-0.053
2.845,-0.053
2.846,-0.053
2.847,-0.053
2.848,-0.058
2.849,-0.059
2.850,-0.056
2.851,-0.056
2.852,-0.056
2.853,-0.056
2.854,-0.061
2.855,-0.063
2.856,-0.061
2.857,-0.059
2.858,-0.063
2.859,-0.059
2.860,-0.059
2.861,-0.059
2.862,-0.061
2.863,-0.066
2.864,-0.066
2.865,-0.069
2.866,-0.069
2.867,-0.066
2.868,-0.070
2.869,-0.069
2.870,-0.072
2.871,-0.072
2.872,-0.072
2.873,-0.072
2.874,-0.071
2.875,-0.072
2.876,-0.072
2.877,-0.072
2.878,-0.072
2.879,-0.072
2.880,-0.073
2.881,-0.075
2.882,-0.074
2.883,-0.072
2.884,-0.075
2.885,-0.075
2.886,-0.076
2.887,-0.078
2.888,-0.077
2.889,-0.078
2.890,-0.081
2.891,-0.081
2.892,-0.084
2.893,-0.084
2.894,-0.083
2.895,-0.081
2.896,-0.077
2.897,-0.072
2.898,-0.073
2.899,-0.078
2.900,-0.083
2.901,-0.088
2.902,-0.088
2.903,-0.088
2.904,-0.088
2.905,-0.088
2.906,-0.088
2.907,-0.088
2.908,-0.088
2.909,-0.088
2.910,-0.088
2.911,-0.088
2.912,-0.083
2.913,-0.078
2.914,-0.075
2.915,-0.072
2.916,-0.073
2.917,-0.069
2.918,-0.061
2.919,-0.056
2.920,-0.051
2.921,-0.050
2.922,-0.048
2.923,-0.044
2.924,-0.039
2.925,-0.028
2.926,-0.023
2.927,-0.022
2.928,-0.020
2.929,-0.016
2.930,-0.005
2.931,-0.003
2.932,-0.001
2.933,0.000
2.934,-0.006
2.935,-0.006
2.936,-0.011
2.937,-0.013
2.938,-0.013
2.939,-0.016
2.940,-0.013
2.941,-0.009
2.942,-0.008
2.943,-0.003
2.944,-0.001
2.945,0.000
2.946,0.000
2.947,0.000
2.948,0.001
2.949,0.003
2.950,0.002
2.951,0.003
2.952,0.000
2.953,0.000
2.954,0.006
2.955,0.012
2.956,0.020
2.957,0.019
2.958,0.017
2.959,0.012
2.960,0.009
2.961,0.006
2.962,0.005
2.963,0.000
2.964,-0.004
2.965,-0.006
2.966,-0.011
2.967,-0.013
2.968,-0.016
2.969,-0.022
2.970,-0.022
2.971,-0.025
2.972,-0.025
2.973,-0.025
2.974,-0.031
2.975,-0.034
2.976,-0.038
2.977,-0.038
2.978,-0.041
2.979,-0.047
2.980,-0.047
2.981,-0.047
2.982,-0.048
2.983,-0.050
2.984,-0.050
2.985,-0.050
2.986,-0.054
2.987,-0.053
2.988,-0.052
2.989,-0.050
2.990,-0.058
2.991,-0.063
2.992,-0.070
2.993,-0.075
2.994,-0.080
2.995,-0.081
2.996,-0.088
2.997,-0.091
2.998,-0.091
2.999,-0.091
3.000,-0.095
3.001,-0.100
3.002,-0.106
3.003,-0.109
3.004,-0.109
3.005,-0.109
3.006,-0.108
3.007,-0.109
3.008,-0.109
3.009,-0.109
3.010,-0.112
3.011,-0.112
3.012,-0.112
3.013,-0.112
3.014,-0.116
3.015,-0.119
3.016,-0.119
3.017,-0.119
3.018,-0.123
3.019,-0.125
3.020,-0.125
3.021,-0.125
3.022,-0.125
3.023,-0.125
3.024,-0.125
3.025,-0.125
3.026,-0.128
3.027,-0.128
3.028,-0.127
3.029,-0.122
3.030,-0.121
3.031,-0.122
3.032,-0.123
3.033,-0.125
3.034,-0.122
3.035,-0.119
3.036,-0.119
3.037,-0.119
3.038,-0.119
3.039,-0.119
3.040,-0.116
3.041,-0.119
3.042,-0.116
3.043,-0.112
3.044,-0.112
3.045,-0.112
3.046,-0.112
3.047,-0.112
3.048,-0.116
3.049,-0.119
3.050,-0.120
3.051,-0.122
3.052,-0.122
3.053,-0.122
3.054,-0.119
3.055,-0.119
3.056,-0.122
3.057,-0.122
3.058,-0.122
3.059,-0.122
3.060,-0.123
3.061,-0.125
3.062,-0.124
3.063,-0.122
3.064,-0.123
3.065,-0.125
3.066,-0.125
3.067,-0.128
3.068,-0.128
3.069,-0.131
3.070,-0.134
3.071,-0.144
3.072,-0.147
3.073,-0.156
3.074,-0.175
3.075,-0.194
3.076,-0.211
3.077,-0.231
3.078,-0.249
3.079,-0.263
3.080,-0.275
3.081,-0.278
3.082,-0.274
3.083,-0.263
3.084,-0.246
3.085,-0.222
3.086,-0.194
3.087,-0.156
3.088,-0.121
3.089,-0.084
3.090,-0.047
3.091,-0.013
3.092,0.026
3.093,0.069
3.094,0.117
3.095,0.175
3.096,0.224
3.097,0.269
3.098,0.324
3.099,0.378
3.100,0.453
3.101,0.537
3.102,0.627
3.103,0.712
3.104,0.792
3.105,0.872
3.106,0.942
3.107,1.003
3.108,1.067
3.109,1.128
3.110,1.187
3.111,1.250
3.112,1.303
3.113,1.347
3.114,1.361
3.115,1.356
3.116,1.316
3.117,1.237
3.118,1.149
3.119,1.056
3.120,0.972
3.121,0.888
3.122,0.800
3.123,0.716
3.124,0.632
3.125,0.566
3.126,0.504
3.127,0.444
3.128,0.378
3.129,0.312
3.130,0.251
3.131,0.191
3.132,0.139
3.133,0.094
3.134,0.042
3.135,-0.016
3.136,-0.078
3.137,-0.134
3.138,-0.173
3.139,-0.200
3.140,-0.226
3.141,-0.241
3.142,-0.242
3.143,-0.234
3.144,-0.214
3.145,-0.200
3.146,-0.183
3.147,-0.163
3.148,-0.141
3.149,-0.122
3.150,-0.108
3.151,-0.100
3.152,-0.086
3.153,-0.075
3.154,-0.063
3.155,-0.059
3.156,-0.054
3.157,-0.053
3.158,-0.054
3.159,-0.053
3.160,-0.053
3.161,-0.050
3.162,-0.049
3.163,-0.050
3.164,-0.054
3.165,-0.059
3.166,-0.061
3.167,-0.063
3.168,-0.067
3.169,-0.066
3.170,-0.064
3.171,-0.063
3.172,-0.058
3.173,-0.053
3.174,-0.050
3.175,-0.050
3.176,-0.047
3.177,-0.050
3.178,-0.054
3.179,-0.059
3.180,-0.058
3.181,-0.059
3.182,-0.061
3.183,-0.063
3.184,-0.059
3.185,-0.056
3.186,-0.053
3.187,-0.053
3.188,-0.054
3.189,-0.053
3.190,-0.054
3.191,-0.056
3.192,-0.053
3.193,-0.053
3.194,-0.058
3.195,-0.056
3.196,-0.053
3.197,-0.050
3.198,-0.050
3.199,-0.050
3.200,-0.050
3.201,-0.050
3.202,-0.050
3.203,-0.050
3.204,-0.051
3.205,-0.053
3.206,-0.054
3.207,-0.053
3.208,-0.053
3.209,-0.053
3.210,-0.053
3.211,-0.053
3.212,-0.052
3.213,-0.050
3.214,-0.050
3.215,-0.050
3.216,-0.048
3.217,-0.050
3.218,-0.046
3.219,-0.044
3.220,-0.039
3.221,-0.034
3.222,-0.039
3.223,-0.038
3.224,-0.038
3.225,-0.038
3.226,-0.041
3.227,-0.038
3.228,-0.038
3.229,-0.038
3.230,-0.039
3.231,-0.041
3.232,-0.036
3.233,-0.031
3.234,-0.033
3.235,-0.031
3.236,-0.033
3.237,-0.034
3.238,-0.033
3.239,-0.028
3.240,-0.028
3.241,-0.028
3.242,-0.025
3.243,-0.028
3.244,-0.028
3.245,-0.031
3.246,-0.027
3.247,-0.025
3.248,-0.022
3.249,-0.016
3.250,-0.017
3.251,-0.019
3.252,-0.022
3.253,-0.022
3.254,-0.019
3.255,-0.019
3.256,-0.016
3.257,-0.013
3.258,-0.014
3.259,-0.016
3.260,-0.013
3.261,-0.013
3.262,-0.013
3.263,-0.009
3.264,-0.003
3.265,0.000
3.266,0.000
3.267,0.000
3.268,-0.003
3.269,-0.003
3.270,0.001
3.271,0.003
3.272,0.000
3.273,0.003
3.274,0.002
3.275,0.000
3.276,0.003
3.277,0.003
3.278,0.004
3.279,0.006
3.280,0.006
3.281,0.006
3.282,0.005
3.283,0.006
3.284,0.005
3.285,0.003
3.286,0.004
3.287,0.009
3.288,0.009
3.289,0.009
3.290,0.011
3.291,0.009
3.292,0.009
3.293,0.009
3.294,0.005
3.295,0.006
3.296,0.011
3.297,0.016
3.298,0.014
3.299,0.012
3.300,0.016
3.301,0.012
3.302,0.011
3.303,0.016
3.304,0.017
3.305,0.016
3.306,0.012
3.307,0.012
3.308,0.012
3.309,0.012
3.310,0.012
3.311,0.012
3.312,0.014
3.313,0.016
3.314,0.012
3.315,0.012
3.316,0.011
3.317,0.009
3.318,0.012
3.319,0.012
3.320,0.011
3.321,0.009
3.322,0.008
3.323,0.003
3.324,0.006
3.325,0.006
3.326,0.006
3.327,0.003
3.328,0.003
3.329,0.000
3.330,0.001
3.331,0.000
3.332,-0.003
3.333,-0.006
3.334,-0.009
3.335,-0.013
3.336,-0.017
3.337,-0.019
3.338,-0.022
3.339,-0.022
3.340,-0.022
3.341,-0.025
3.342,-0.027
3.343,-0.028
3.344,-0.030
3.345,-0.028
3.346,-0.033
3.347,-0.038
3.348,-0.033
3.349,-0.034
3.350,-0.036
3.351,-0.038
3.352,-0.039
3.353,-0.041
3.354,-0.041
3.355,-0.047
3.356,-0.048
3.357,-0.050
3.358,-0.050
3.359,-0.053
3.360,-0.056
3.361,-0.056
3.362,-0.055
3.363,-0.056
3.364,-0.059
3.365,-0.063
3.366,-0.064
3.367,-0.063
3.368,-0.061
3.369,-0.059
3.370,-0.061
3.371,-0.056
3.372,-0.056
3.373,-0.056
3.374,-0.059
3.375,-0.059
3.376,-0.063
3.377,-0.066
3.378,-0.066
3.379,-0.066
3.380,-0.067
3.381,-0.066
3.382,-0.064
3.383,-0.066
3.384,-0.066
3.385,-0.066
3.386,-0.061
3.387,-0.056
3.388,-0.059
3.389,-0.056
3.390,-0.053
3.391,-0.053
3.392,-0.056
3.393,-0.059
3.394,-0.056
3.395,-0.053
3.396,-0.052
3.397,-0.050
3.398,-0.047
3.399,-0.044
3.400,-0.044
3.401,-0.041
3.402,-0.039
3.403,-0.034
3.404,-0.031
3.405,-0.031
3.406,-0.029
3.407,-0.028
3.408,-0.029
3.409,-0.031
3.410,-0.031
3.411,-0.031
3.412,-0.028
3.413,-0.028
3.414,-0.022
3.415,-0.016
3.416,-0.019
3.417,-0.019
3.418,-0.013
3.419,-0.009
3.420,-0.005
3.421,-0.003
3.422,-0.004
3.423,-0.003
3.424,-0.001
3.425,-0.003
3.426,0.003
3.427,0.006
3.428,0.007
3.429,0.009
3.430,0.009
3.431,0.009
3.432,0.012
3.433,0.012
3.434,0.009
3.435,0.009
3.436,0.009
3.437,0.009
3.438,0.012
3.439,0.016
3.440,0.017
3.441,0.022
3.442,0.022
3.443,0.019
3.444,0.017
3.445,0.012
3.446,0.012
3.447,0.012
3.448,0.012
3.449,0.012
3.450,0.009
3.451,0.009
3.452,0.006
3.453,0.006
3.454,0.006
3.455,0.006
3.456,0.006
3.457,0.006
3.458,0.007
3.459,0.006
3.460,0.004
3.461,0.003
3.462,0.002
3.463,0.003
3.464,0.001
3.465,0.003
3.466,0.000
3.467,0.000
3.468,-0.001
3.469,-0.003
3.470,-0.006
3.471,-0.006
3.472,-0.009
3.473,-0.009
3.474,-0.009
3.475,-0.009
3.476,-0.013
3.477,-0.013
3.478,-0.013
3.479,-0.016
3.480,-0.016
3.481,-0.016
3.482,-0.014
3.483,-0.016
3.484,-0.014
3.485,-0.019
3.486,-0.020
3.487,-0.022
3.488,-0.021
3.489,-0.016
3.490,-0.017
3.491,-0.019
3.492,-0.022
3.493,-0.025
3.494,-0.024
3.495,-0.025
3.496,-0.025
3.497,-0.025
3.498,-0.025
3.499,-0.025
3.500,-0.026
3.501,-0.028
3.502,-0.029
3.503,-0.031
3.504,-0.031
3.505,-0.031
3.506,-0.031
3.507,-0.031
3.508,-0.031
3.509,-0.031
3.510,-0.030
3.511,-0.028
3.512,-0.028
3.513,-0.028
3.514,-0.026
3.515,-0.028
3.516,-0.024
3.517,-0.019
3.518,-0.018
3.519,-0.016
3.520,-0.016
3.521,-0.016
3.522,-0.016
3.523,-0.016
3.524,-0.013
3.525,-0.016
3.526,-0.017
3.527,-0.019
3.528,-0.022
3.529,-0.025
3.530,-0.025
3.531,-0.022
3.532,-0.023
3.533,-0.025
3.534,-0.029
3.535,-0.031
3.536,-0.030
3.537,-0.028
3.538,-0.028
3.539,-0.028
3.540,-0.028
3.541,-0.028
3.542,-0.025
3.543,-0.028
3.544,-0.024
3.545,-0.019
3.546,-0.023
3.547,-0.022
3.548,-0.022
3.549,-0.022
3.550,-0.025
3.551,-0.028
3.552,-0.028
3.553,-0.028
3.554,-0.027
3.555,-0.025
3.556,-0.028
3.557,-0.028
3.558,-0.028
3.559,-0.028
3.560,-0.025
3.561,-0.022
3.562,-0.022
3.563,-0.022
3.564,-0.025
3.565,-0.028
3.566,-0.028
3.567,-0.028
3.568,-0.028
3.569,-0.028
3.570,-0.027
3.571,-0.025
3.572,-0.028
3.573,-0.028
3.574,-0.029
3.575,-0.031
3.576,-0.030
3.577,-0.031
3.578,-0.031
3.579,-0.031
3.580,-0.030
3.581,-0.031
3.582,-0.033
3.583,-0.034
3.584,-0.036
3.585,-0.038
3.586,-0.038
3.587,-0.038
3.588,-0.036
3.589,-0.038
3.590,-0.036
3.591,-0.038
3.592,-0.041
3.593,-0.041
3.594,-0.038
3.595,-0.041
3.596,-0.039
3.597,-0.044
3.598,-0.045
3.599,-0.047
3.600,-0.047
3.601,-0.047
3.602,-0.047
3.603,-0.050
3.604,-0.050
3.605,-0.050
3.606,-0.053
3.607,-0.053
3.608,-0.053
3.609,-0.056
3.610,-0.059
3.611,-0.063
3.612,-0.061
3.613,-0.063
3.614,-0.058
3.615,-0.056
3.616,-0.055
3.617,-0.053
3.618,-0.055
3.619,-0.053
3.620,-0.056
3.621,-0.056
3.622,-0.053
3.623,-0.056
3.624,-0.054
3.625,-0.059
3.626,-0.058
3.627,-0.056
3.628,-0.056
3.629,-0.056
3.630,-0.063
3.631,-0.066
3.632,-0.066
3.633,-0.066
3.634,-0.066
3.635,-0.066
3.636,-0.066
3.637,-0.066
3.638,-0.068
3.639,-0.066
3.640,-0.066
3.641,-0.066
3.642,-0.066
3.643,-0.069
3.644,-0.069
3.645,-0.066
3.646,-0.069
3.647,-0.069
3.648,-0.069
3.649,-0.069
3.650,-0.070
3.651,-0.072
3.652,-0.072
3.653,-0.075
3.654,-0.075
3.655,-0.075
3.656,-0.075
3.657,-0.075
3.658,-0.075
3.659,-0.075
3.660,-0.075
3.661,-0.075
3.662,-0.074
3.663,-0.072
3.664,-0.071
3.665,-0.069
3.666,-0.067
3.667,-0.066
3.668,-0.061
3.669,-0.056
3.670,-0.058
3.671,-0.053
3.672,-0.048
3.673,-0.047
3.674,-0.041
3.675,-0.038
3.676,-0.031
3.677,-0.022
3.678,-0.028
3.679,-0.028
3.680,-0.025
3.681,-0.025
3.682,-0.018
3.683,-0.006
3.684,0.003
3.685,0.003
3.686,0.005
3.687,0.006
3.688,0.001
3.689,0.003
3.690,0.000
3.691,0.000
3.692,-0.001
3.693,-0.006
3.694,-0.003
3.695,0.000
3.696,-0.003
3.697,-0.003
3.698,0.001
3.699,0.006
3.700,0.008
3.701,0.009
3.702,0.009
3.703,0.009
3.704,0.008
3.705,0.009
3.706,0.011
3.707,0.016
3.708,0.019
3.709,0.022
3.710,0.028
3.711,0.025
3.712,0.022
3.713,0.016
3.714,0.016
3.715,0.016
3.716,0.017
3.717,0.016
3.718,0.009
3.719,0.006
3.720,-0.003
3.721,-0.009
3.722,-0.013
3.723,-0.019
3.724,-0.022
3.725,-0.028
3.726,-0.030
3.727,-0.031
3.728,-0.038
3.729,-0.041
3.730,-0.044
3.731,-0.044
3.732,-0.041
3.733,-0.041
3.734,-0.043
3.735,-0.044
3.736,-0.045
3.737,-0.047
3.738,-0.046
3.739,-0.044
3.740,-0.048
3.741,-0.047
3.742,-0.047
3.743,-0.047
3.744,-0.050
3.745,-0.050
3.746,-0.063
3.747,-0.072
3.748,-0.079
3.749,-0.084
3.750,-0.086
3.751,-0.084
3.752,-0.088
3.753,-0.091
3.754,-0.094
3.755,-0.097
3.756,-0.103
3.757,-0.106
3.758,-0.106
3.759,-0.106
3.760,-0.106
3.761,-0.109
3.762,-0.109
3.763,-0.109
3.764,-0.114
3.765,-0.116
3.766,-0.119
3.767,-0.122
3.768,-0.122
3.769,-0.122
3.770,-0.121
3.771,-0.119
3.772,-0.121
3.773,-0.119
3.774,-0.119
3.775,-0.119
3.776,-0.120
3.777,-0.122
3.778,-0.122
3.779,-0.122
3.780,-0.125
3.781,-0.125
3.782,-0.126
3.783,-0.125
3.784,-0.124
3.785,-0.125
3.786,-0.125
3.787,-0.125
3.788,-0.124
3.789,-0.122
3.790,-0.122
3.791,-0.122
3.792,-0.122
3.793,-0.122
3.794,-0.118
3.795,-0.119
3.796,-0.119
3.797,-0.119
3.798,-0.119
3.799,-0.119
3.800,-0.119
3.801,-0.119
3.802,-0.120
3.803,-0.122
3.804,-0.122
3.805,-0.122
3.806,-0.122
3.807,-0.122
3.808,-0.118
3.809,-0.116
3.810,-0.118
3.811,-0.116
3.812,-0.116
3.813,-0.116
3.814,-0.119
3.815,-0.122
3.816,-0.123
3.817,-0.125
3.818,-0.124
3.819,-0.122
3.820,-0.121
3.821,-0.122
3.822,-0.122
3.823,-0.125
3.824,-0.125
3.825,-0.131
3.826,-0.134
3.827,-0.144
3.828,-0.161
3.829,-0.178
3.830,-0.197
3.831,-0.219
3.832,-0.241
3.833,-0.259
3.834,-0.272
3.835,-0.275
3.836,-0.275
3.837,-0.269
3.838,-0.254
3.839,-0.234
3.840,-0.208
3.841,-0.172
3.842,-0.138
3.843,-0.103
3.844,-0.059
3.845,-0.019
3.846,0.017
3.847,0.056
3.848,0.100
3.849,0.153
3.850,0.212
3.851,0.269
3.852,0.319
3.853,0.369
3.854,0.436
3.855,0.512
3.856,0.597
3.857,0.678
3.858,0.766
3.859,0.853
3.860,0.927
3.861,0.991
3.862,1.050
3.863,1.106
3.864,1.161
3.865,1.219
3.866,1.273
3.867,1.319
3.868,1.356
3.869,1.375
3.870,1.359
3.871,1.306
3.872,1.222
3.873,1.134
3.874,1.041
3.875,0.947
3.876,0.856
3.877,0.769
3.878,0.680
3.879,0.606
3.880,0.542
3.881,0.478
3.882,0.407
3.883,0.337
3.884,0.272
3.885,0.206
3.886,0.157
3.887,0.116
3.888,0.067
3.889,0.012
3.890,-0.056
3.891,-0.119
3.892,-0.164
3.893,-0.197
3.894,-0.220
3.895,-0.231
3.896,-0.239
3.897,-0.238
3.898,-0.219
3.899,-0.206
3.900,-0.189
3.901,-0.169
3.902,-0.147
3.903,-0.128
3.904,-0.114
3.905,-0.106
3.906,-0.094
3.907,-0.084
3.908,-0.069
3.909,-0.063
3.910,-0.055
3.911,-0.050
3.912,-0.051
3.913,-0.050
3.914,-0.049
3.915,-0.044
3.916,-0.041
3.917,-0.041
3.918,-0.043
3.919,-0.044
3.920,-0.050
3.921,-0.056
3.922,-0.061
3.923,-0.059
3.924,-0.058
3.925,-0.056
3.926,-0.053
3.927,-0.050
3.928,-0.048
3.929,-0.050
3.930,-0.044
3.931,-0.044
3.932,-0.044
3.933,-0.044
3.934,-0.044
3.935,-0.047
3.936,-0.050
3.937,-0.053
3.938,-0.053
3.939,-0.053
3.940,-0.051
3.941,-0.053
3.942,-0.058
3.943,-0.059
3.944,-0.061
3.945,-0.063
3.946,-0.061
3.947,-0.063
3.948,-0.067
3.949,-0.066
3.950,-0.061
3.951,-0.056
3.952,-0.058
3.953,-0.059
3.954,-0.063
3.955,-0.066
3.956,-0.063
3.957,-0.059
3.958,-0.058
3.959,-0.056
3.960,-0.056
3.961,-0.053
3.962,-0.052
3.963,-0.050
3.964,-0.050
3.965,-0.050
3.966,-0.050
3.967,-0.050
3.968,-0.050
3.969,-0.050
3.970,-0.050
3.971,-0.053
3.972,-0.050
3.973,-0.050
3.974,-0.049
3.975,-0.047
3.976,-0.051
3.977,-0.050
3.978,-0.050
3.979,-0.050
3.980,-0.047
3.981,-0.038
3.982,-0.038
3.983,-0.038
3.984,-0.036
3.985,-0.034
3.986,-0.034
3.987,-0.034
3.988,-0.036
3.989,-0.034
3.990,-0.033
3.991,-0.031
3.992,-0.033
3.993,-0.031
3.994,-0.031
3.995,-0.031
3.996,-0.029
3.997,-0.034
3.998,-0.033
3.999,-0.034
4.000,-0.031
4.001,-0.031
4.002,-0.033
4.003,-0.031
4.004,-0.031
4.005,-0.031
4.006,-0.033
4.007,-0.031
4.008,-0.025
4.009,-0.022
4.010,-0.021
4.011,-0.019
4.012,-0.019
4.013,-0.019
4.014,-0.017
4.015,-0.019
4.016,-0.019
4.017,-0.016
4.018,-0.013
4.019,-0.013
4.020,-0.009
4.021,-0.006
4.022,-0.006
4.023,-0.003
4.024,-0.003
4.025,-0.006
4.026,-0.009
4.027,-0.006
4.028,-0.005
4.029,-0.003
4.030,-0.001
4.031,-0.003
4.032,-0.003
4.033,-0.003
4.034,-0.003
4.035,-0.003
4.036,-0.004
4.037,-0.003
4.038,0.000
4.039,0.003
4.040,0.002
4.041,0.003
4.042,0.003
4.043,0.003
4.044,0.007
4.045,0.009
4.046,0.009
4.047,0.009
4.048,0.005
4.049,0.006
4.050,0.007
4.051,0.009
4.052,0.009
4.053,0.009
4.054,0.011
4.055,0.006
4.056,0.003
4.057,0.006
4.058,0.011
4.059,0.012
4.060,0.009
4.061,0.009
4.062,0.008
4.063,0.006
4.064,0.007
4.065,0.009
4.066,0.011
4.067,0.012
4.068,0.008
4.069,0.006
4.070,0.005
4.071,0.003
4.072,0.004
4.073,0.003
4.074,0.003
4.075,0.003
4.076,0.004
4.077,0.003
4.078,0.004
4.079,0.003
4.080,0.003
4.081,0.000
4.082,0.001
4.083,0.000
4.084,-0.001
4.085,-0.006
4.086,-0.008
4.087,-0.009
4.088,-0.011
4.089,-0.013
4.090,-0.017
4.091,-0.019
4.092,-0.022
4.093,-0.022
4.094,-0.022
4.095,-0.025
4.096,-0.025
4.097,-0.025
4.098,-0.033
4.099,-0.038
4.100,-0.041
4.101,-0.044
4.102,-0.041
4.103,-0.044
4.104,-0.047
4.105,-0.050
4.106,-0.051
4.107,-0.053
4.108,-0.050
4.109,-0.053
4.110,-0.058
4.111,-0.063
4.112,-0.063
4.113,-0.066
4.114,-0.069
4.115,-0.069
4.116,-0.068
4.117,-0.069
4.118,-0.069
4.119,-0.069
4.120,-0.071
4.121,-0.069
4.122,-0.069
4.123,-0.069
4.124,-0.073
4.125,-0.072
4.126,-0.071
4.127,-0.069
4.128,-0.072
4.129,-0.072
4.130,-0.072
4.131,-0.072
4.132,-0.071
4.133,-0.069
4.134,-0.069
4.135,-0.066
4.136,-0.064
4.137,-0.066
4.138,-0.067
4.139,-0.069
4.140,-0.067
4.141,-0.066
4.142,-0.070
4.143,-0.069
4.144,-0.061
4.145,-0.056
4.146,-0.061
4.147,-0.066
4.148,-0.064
4.149,-0.063
4.150,-0.061
4.151,-0.059
4.152,-0.055
4.153,-0.050
4.154,-0.049
4.155,-0.044
4.156,-0.044
4.157,-0.041
4.158,-0.039
4.159,-0.041
4.160,-0.038
4.161,-0.034
4.162,-0.033
4.163,-0.031
4.164,-0.029
4.165,-0.028
4.166,-0.024
4.167,-0.022
4.168,-0.018
4.169,-0.013
4.170,-0.014
4.171,-0.013
4.172,-0.011
4.173,-0.013
4.174,-0.011
4.175,-0.013
4.176,-0.013
4.177,-0.009
4.178,-0.003
4.179,0.000
4.180,0.002
4.181,0.000
4.182,0.000
4.183,0.000
4.184,0.000
4.185,0.000
4.186,0.004
4.187,0.006
4.188,0.006
4.189,0.009
4.190,0.008
4.191,0.006
4.192,0.006
4.193,0.006
4.194,0.006
4.195,0.009
4.196,0.009
4.197,0.006
4.198,0.007
4.199,0.006
4.200,0.009
4.201,0.012
4.202,0.012
4.203,0.012
4.204,0.011
4.205,0.012
4.206,0.008
4.207,0.006
4.208,0.006
4.209,0.006
4.210,0.005
4.211,0.003
4.212,0.003
4.213,0.000
4.214,-0.003
4.215,-0.006
4.216,-0.009
4.217,-0.009
4.218,-0.011
4.219,-0.009
4.220,-0.013
4.221,-0.013
4.222,-0.011
4.223,-0.009
4.224,-0.013
4.225,-0.013
4.226,-0.016
4.227,-0.016
4.228,-0.014
4.229,-0.013
4.230,-0.014
4.231,-0.013
4.232,-0.014
4.233,-0.019
4.234,-0.019
4.235,-0.019
4.236,-0.019
4.237,-0.022
4.238,-0.020
4.239,-0.025
4.240,-0.026
4.241,-0.028
4.242,-0.031
4.243,-0.031
4.244,-0.030
4.245,-0.028
4.246,-0.028
4.247,-0.028
4.248,-0.027
4.249,-0.028
4.250,-0.028
4.251,-0.028
4.252,-0.028
4.253,-0.028
4.254,-0.029
4.255,-0.031
4.256,-0.031
4.257,-0.031
4.258,-0.031
4.259,-0.031
4.260,-0.033
4.261,-0.034
4.262,-0.033
4.263,-0.031
4.264,-0.031
4.265,-0.031
4.266,-0.031
4.267,-0.031
4.268,-0.029
4.269,-0.031
4.270,-0.031
4.271,-0.031
4.272,-0.031
4.273,-0.031
4.274,-0.031
4.275,-0.031
4.276,-0.031
4.277,-0.031
4.278,-0.028
4.279,-0.031
4.280,-0.031
4.281,-0.031
4.282,-0.031
4.283,-0.031
4.284,-0.031
4.285,-0.028
4.286,-0.027
4.287,-0.025
4.288,-0.028
4.289,-0.028
4.290,-0.029
4.291,-0.031
4.292,-0.031
4.293,-0.031
4.294,-0.031
4.295,-0.031
4.296,-0.028
4.297,-0.031
4.298,-0.031
4.299,-0.031
4.300,-0.036
4.301,-0.034
4.302,-0.034
4.303,-0.034
4.304,-0.034
4.305,-0.034
4.306,-0.034
4.307,-0.034
4.308,-0.033
4.309,-0.031
4.310,-0.034
4.311,-0.034
4.312,-0.034
4.313,-0.034
4.314,-0.034
4.315,-0.034
4.316,-0.034
4.317,-0.034
4.318,-0.034
4.319,-0.034
4.320,-0.034
4.321,-0.034
4.322,-0.034
4.323,-0.034
4.324,-0.031
4.325,-0.028
4.326,-0.033
4.327,-0.034
4.328,-0.036
4.329,-0.038
4.330,-0.036
4.331,-0.038
4.332,-0.038
4.333,-0.038
4.334,-0.038
4.335,-0.041
4.336,-0.041
4.337,-0.041
4.338,-0.042
4.339,-0.044
4.340,-0.044
4.341,-0.044
4.342,-0.039
4.343,-0.038
4.344,-0.038
4.345,-0.041
4.346,-0.045
4.347,-0.047
4.348,-0.041
4.349,-0.041
4.350,-0.038
4.351,-0.041
4.352,-0.044
4.353,-0.047
4.354,-0.047
4.355,-0.047
4.356,-0.046
4.357,-0.047
4.358,-0.048
4.359,-0.050
4.360,-0.053
4.361,-0.053
4.362,-0.052
4.363,-0.053
4.364,-0.053
4.365,-0.053
4.366,-0.052
4.367,-0.053
4.368,-0.051
4.369,-0.053
4.370,-0.054
4.371,-0.056
4.372,-0.059
4.373,-0.059
4.374,-0.063
4.375,-0.063
4.376,-0.059
4.377,-0.063
4.378,-0.061
4.379,-0.066
4.380,-0.067
4.381,-0.069
4.382,-0.068
4.383,-0.066
4.384,-0.069
4.385,-0.069
4.386,-0.069
4.387,-0.069
4.388,-0.069
4.389,-0.069
4.390,-0.069
4.391,-0.069
4.392,-0.069
4.393,-0.072
4.394,-0.072
4.395,-0.072
4.396,-0.071
4.397,-0.069
4.398,-0.072
4.399,-0.072
4.400,-0.069
4.401,-0.072
4.402,-0.072
4.403,-0.072
4.404,-0.072
4.405,-0.072
4.406,-0.072
4.407,-0.072
4.408,-0.075
4.409,-0.075
4.410,-0.075
4.411,-0.075
4.412,-0.078
4.413,-0.081
4.414,-0.081
4.415,-0.081
4.416,-0.080
4.417,-0.078
4.418,-0.078
4.419,-0.078
4.420,-0.079
4.421,-0.078
4.422,-0.076
4.423,-0.075
4.424,-0.071
4.425,-0.069
4.426,-0.067
4.427,-0.066
4.428,-0.058
4.429,-0.047
4.430,-0.044
4.431,-0.041
4.432,-0.034
4.433,-0.034
4.434,-0.029
4.435,-0.025
4.436,-0.018
4.437,-0.009
4.438,-0.004
4.439,0.000
4.440,0.000
4.441,0.006
4.442,0.011
4.443,0.006
4.444,0.006
4.445,0.003
4.446,0.002
4.447,0.000
4.448,-0.004
4.449,-0.006
4.450,-0.006
4.451,-0.006
4.452,-0.004
4.453,-0.003
4.454,0.000
4.455,0.003
4.456,0.006
4.457,0.006
4.458,0.006
4.459,0.006
4.460,0.008
4.461,0.006
4.462,0.008
4.463,0.009
4.464,0.012
4.465,0.019
4.466,0.019
4.467,0.022
4.468,0.020
4.469,0.019
4.470,0.012
4.471,0.009
4.472,0.007
4.473,0.006
4.474,0.011
4.475,0.009
4.476,0.009
4.477,0.009
4.478,0.003
4.479,0.000
4.480,-0.009
4.481,-0.016
4.482,-0.019
4.483,-0.025
4.484,-0.028
4.485,-0.031
4.486,-0.031
4.487,-0.031
4.488,-0.034
4.489,-0.038
4.490,-0.042
4.491,-0.044
4.492,-0.045
4.493,-0.047
4.494,-0.047
4.495,-0.050
4.496,-0.048
4.497,-0.050
4.498,-0.049
4.499,-0.053
4.500,-0.052
4.501,-0.053
4.502,-0.058
4.503,-0.066
4.504,-0.068
4.505,-0.072
4.506,-0.072
4.507,-0.072
4.508,-0.078
4.509,-0.084
4.510,-0.091
4.511,-0.100
4.512,-0.104
4.513,-0.106
4.514,-0.108
4.515,-0.109
4.516,-0.111
4.517,-0.109
4.518,-0.108
4.519,-0.109
4.520,-0.109
4.521,-0.109
4.522,-0.109
4.523,-0.109
4.524,-0.109
4.525,-0.109
4.526,-0.108
4.527,-0.109
4.528,-0.112
4.529,-0.116
4.530,-0.117
4.531,-0.119
4.532,-0.119
4.533,-0.119
4.534,-0.116
4.535,-0.116
4.536,-0.116
4.537,-0.116
4.538,-0.116
4.539,-0.119
4.540,-0.122
4.541,-0.122
4.542,-0.122
4.543,-0.122
4.544,-0.119
4.545,-0.116
4.546,-0.116
4.547,-0.116
4.548,-0.116
4.549,-0.112
4.550,-0.117
4.551,-0.119
4.552,-0.116
4.553,-0.112
4.554,-0.114
4.555,-0.116
4.556,-0.117
4.557,-0.119
4.558,-0.119
4.559,-0.119
4.560,-0.120
4.561,-0.122
4.562,-0.123
4.563,-0.122
4.564,-0.121
4.565,-0.122
4.566,-0.122
4.567,-0.122
4.568,-0.121
4.569,-0.119
4.570,-0.119
4.571,-0.119
4.572,-0.116
4.573,-0.112
4.574,-0.112
4.575,-0.112
4.576,-0.116
4.577,-0.116
4.578,-0.118
4.579,-0.119
4.580,-0.129
4.581,-0.134
4.582,-0.141
4.583,-0.153
4.584,-0.164
4.585,-0.178
4.586,-0.203
4.587,-0.225
4.588,-0.242
4.589,-0.256
4.590,-0.267
4.591,-0.272
4.592,-0.272
4.593,-0.266
4.594,-0.248
4.595,-0.228
4.596,-0.195
4.597,-0.163
4.598,-0.127
4.599,-0.088
4.600,-0.053
4.601,-0.016
4.602,0.022
4.603,0.062
4.604,0.112
4.605,0.166
4.606,0.217
4.607,0.272
4.608,0.321
4.609,0.378
4.610,0.450
4.611,0.537
4.612,0.625
4.613,0.709
4.614,0.801
4.615,0.884
4.616,0.954
4.617,1.025
4.618,1.087
4.619,1.147
4.620,1.212
4.621,1.269
4.622,1.325
4.623,1.362
4.624,1.409
4.625,1.428
4.626,1.394
4.627,1.334
4.628,1.241
4.629,1.141
4.630,1.042
4.631,0.944
4.632,0.842
4.633,0.744
4.634,0.664
4.635,0.587
4.636,0.517
4.637,0.444
4.638,0.359
4.639,0.284
4.640,0.216
4.641,0.159
4.642,0.120
4.643,0.075
4.644,0.019
4.645,-0.044
4.646,-0.108
4.647,-0.153
4.648,-0.183
4.649,-0.206
4.650,-0.214
4.651,-0.216
4.652,-0.209
4.653,-0.194
4.654,-0.181
4.655,-0.163
4.656,-0.142
4.657,-0.125
4.658,-0.106
4.659,-0.091
4.660,-0.081
4.661,-0.066
4.662,-0.056
4.663,-0.044
4.664,-0.041
4.665,-0.034
4.666,-0.031
4.667,-0.031
4.668,-0.028
4.669,-0.028
4.670,-0.025
4.671,-0.025
4.672,-0.027
4.673,-0.028
4.674,-0.030
4.675,-0.034
4.676,-0.042
4.677,-0.047
4.678,-0.045
4.679,-0.047
4.680,-0.047
4.681,-0.047
4.682,-0.050
4.683,-0.050
4.684,-0.049
4.685,-0.044
4.686,-0.047
4.687,-0.047
4.688,-0.048
4.689,-0.050
4.690,-0.052
4.691,-0.053
4.692,-0.056
4.693,-0.056
4.694,-0.058
4.695,-0.056
4.696,-0.055
4.697,-0.053
4.698,-0.050
4.699,-0.050
4.700,-0.051
4.701,-0.050
4.702,-0.049
4.703,-0.050
4.704,-0.048
4.705,-0.050
4.706,-0.050
4.707,-0.050
4.708,-0.050
4.709,-0.050
4.710,-0.050
4.711,-0.050
4.712,-0.050
4.713,-0.050
4.714,-0.047
4.715,-0.044
4.716,-0.041
4.717,-0.041
4.718,-0.041
4.719,-0.041
4.720,-0.041
4.721,-0.041
4.722,-0.041
4.723,-0.041
4.724,-0.042
4.725,-0.041
4.726,-0.039
4.727,-0.034
4.728,-0.038
4.729,-0.041
4.730,-0.041
4.731,-0.044
4.732,-0.042
4.733,-0.044
4.734,-0.043
4.735,-0.041
4.736,-0.034
4.737,-0.034
4.738,-0.034
4.739,-0.034
4.740,-0.034
4.741,-0.034
4.742,-0.034
4.743,-0.034
4.744,-0.031
4.745,-0.031
4.746,-0.031
4.747,-0.031
4.748,-0.027
4.749,-0.025
4.750,-0.025
4.751,-0.022
4.752,-0.025
4.753,-0.022
4.754,-0.022
4.755,-0.019
4.756,-0.019
4.757,-0.019
4.758,-0.017
4.759,-0.019
4.760,-0.019
4.761,-0.019
4.762,-0.017
4.763,-0.016
4.764,-0.016
4.765,-0.016
4.766,-0.016
4.767,-0.016
4.768,-0.014
4.769,-0.009
4.770,-0.009
4.771,-0.009
4.772,-0.005
4.773,0.000
4.774,-0.001
4.775,-0.003
4.776,-0.003
4.777,-0.003
4.778,0.000
4.779,0.003
4.780,0.003
4.781,0.000
4.782,0.002
4.783,0.000
4.784,0.001
4.785,0.006
4.786,0.006
4.787,0.006
4.788,0.006
4.789,0.006
4.790,0.006
4.791,0.006
4.792,0.009
4.793,0.009
4.794,0.009
4.795,0.009
4.796,0.012
4.797,0.012
4.798,0.014
4.799,0.019
4.800,0.017
4.801,0.016
4.802,0.017
4.803,0.016
4.804,0.020
4.805,0.022
4.806,0.023
4.807,0.025
4.808,0.024
4.809,0.025
4.810,0.023
4.811,0.022
4.812,0.024
4.813,0.025
4.814,0.026
4.815,0.025
4.816,0.021
4.817,0.016
4.818,0.014
4.819,0.012
4.820,0.012
4.821,0.012
4.822,0.019
4.823,0.022
4.824,0.022
4.825,0.022
4.826,0.022
4.827,0.022
4.828,0.019
4.829,0.019
4.830,0.017
4.831,0.016
4.832,0.011
4.833,0.009
4.834,0.007
4.835,0.009
4.836,0.007
4.837,0.009
4.838,0.005
4.839,0.003
4.840,0.000
4.841,0.000
4.842,0.003
4.843,0.003
4.844,-0.001
4.845,-0.006
4.846,-0.006
4.847,-0.009
4.848,-0.008
4.849,-0.006
4.850,-0.009
4.851,-0.013
4.852,-0.017
4.853,-0.022
4.854,-0.023
4.855,-0.028
4.856,-0.031
4.857,-0.028
4.858,-0.030
4.859,-0.031
4.860,-0.034
4.861,-0.034
4.862,-0.034
4.863,-0.034
4.864,-0.042
4.865,-0.044
4.866,-0.044
4.867,-0.044
4.868,-0.046
4.869,-0.047
4.870,-0.047
4.871,-0.047
4.872,-0.050
4.873,-0.050
4.874,-0.049
4.875,-0.050
4.876,-0.050
4.877,-0.050
4.878,-0.050
4.879,-0.053
4.880,-0.051
4.881,-0.053
4.882,-0.054
4.883,-0.059
4.884,-0.061
4.885,-0.063
4.886,-0.058
4.887,-0.053
4.888,-0.054
4.889,-0.056
4.890,-0.054
4.891,-0.056
4.892,-0.061
4.893,-0.063
4.894,-0.064
4.895,-0.063
4.896,-0.058
4.897,-0.059
4.898,-0.058
4.899,-0.056
4.900,-0.056
4.901,-0.056
4.902,-0.056
4.903,-0.053
4.904,-0.050
4.905,-0.050
4.906,-0.047
4.907,-0.041
4.908,-0.039
4.909,-0.041
4.910,-0.038
4.911,-0.038
4.912,-0.034
4.913,-0.031
4.914,-0.031
4.915,-0.028
4.916,-0.026
4.917,-0.028
4.918,-0.027
4.919,-0.022
4.920,-0.018
4.921,-0.013
4.922,-0.014
4.923,-0.013
4.924,-0.011
4.925,-0.013
4.926,-0.009
4.927,-0.006
4.928,-0.002
4.929,0.006
4.930,0.005
4.931,0.003
4.932,0.006
4.933,0.009
4.934,0.008
4.935,0.009
4.936,0.009
4.937,0.009
4.938,0.009
4.939,0.009
4.940,0.014
4.941,0.022
4.942,0.022
4.943,0.022
4.944,0.024
4.945,0.022
4.946,0.021
4.947,0.019
4.948,0.019
4.949,0.019
4.950,0.022
4.951,0.022
4.952,0.020
4.953,0.022
4.954,0.019
4.955,0.019
4.956,0.019
4.957,0.019
4.958,0.019
4.959,0.016
4.960,0.016
4.961,0.012
4.962,0.012
4.963,0.012
4.964,0.012
4.965,0.012
4.966,0.011
4.967,0.009
4.968,0.009
4.969,0.009
4.970,0.006
4.971,0.006
4.972,0.008
4.973,0.003
4.974,0.003
4.975,0.000
4.976,0.000
4.977,0.000
4.978,0.001
4.979,0.000
4.980,-0.001
4.981,-0.006
4.982,-0.006
4.983,-0.006
4.984,-0.006
4.985,-0.009
4.986,-0.008
4.987,-0.006
4.988,-0.011
4.989,-0.013
4.990,-0.013
4.991,-0.013
4.992,-0.016
4.993,-0.013
4.994,-0.016
4.995,-0.016
4.996,-0.016
4.997,-0.019
4.998,-0.020
4.999,-0.022
5.000,-0.023
5.001,-0.025
5.002,-0.024
5.003,-0.022
5.004,-0.025
5.005,-0.025
5.006,-0.025
5.007,-0.025
5.008,-0.025
5.009,-0.025
5.010,-0.025
5.011,-0.025
5.012,-0.024
5.013,-0.022
5.014,-0.022
5.015,-0.022
5.016,-0.023
5.017,-0.025
5.018,-0.021
5.019,-0.016
5.020,-0.017
5.021,-0.019
5.022,-0.023
5.023,-0.025
5.024,-0.022
5.025,-0.019
5.026,-0.020
5.027,-0.022
5.028,-0.023
5.029,-0.025
5.030,-0.025
5.031,-0.025
5.032,-0.024
5.033,-0.019
5.034,-0.022
5.035,-0.022
5.036,-0.023
5.037,-0.025
5.038,-0.025
5.039,-0.025
5.040,-0.023
5.041,-0.025
5.042,-0.024
5.043,-0.025
5.044,-0.025
5.045,-0.025
5.046,-0.025
5.047,-0.025
5.048,-0.025
5.049,-0.025
5.050,-0.024
5.051,-0.019
5.052,-0.022
5.053,-0.022
5.054,-0.022
5.055,-0.025
5.056,-0.021
5.057,-0.019
5.058,-0.020
5.059,-0.022
5.060,-0.023
5.061,-0.025
5.062,-0.022
5.063,-0.019
5.064,-0.020
5.065,-0.025
5.066,-0.025
5.067,-0.025
5.068,-0.022
5.069,-0.019
5.070,-0.019
5.071,-0.019
5.072,-0.020
5.073,-0.022
5.074,-0.023
5.075,-0.025
5.076,-0.025
5.077,-0.025
5.078,-0.026
5.079,-0.028
5.080,-0.029
5.081,-0.034
5.082,-0.033
5.083,-0.031
5.084,-0.028
5.085,-0.025
5.086,-0.028
5.087,-0.028
5.088,-0.028
5.089,-0.028
5.090,-0.031
5.091,-0.031
5.092,-0.031
5.093,-0.031
5.094,-0.031
5.095,-0.031
5.096,-0.034
5.097,-0.038
5.098,-0.041
5.099,-0.041
5.100,-0.043
5.101,-0.044
5.102,-0.043
5.103,-0.038
5.104,-0.044
5.105,-0.044
5.106,-0.046
5.107,-0.044
5.108,-0.043
5.109,-0.041
5.110,-0.042
5.111,-0.044
5.112,-0.047
5.113,-0.047
5.114,-0.046
5.115,-0.047
5.116,-0.046
5.117,-0.044
5.118,-0.047
5.119,-0.047
5.120,-0.046
5.121,-0.044
5.122,-0.050
5.123,-0.050
5.124,-0.051
5.125,-0.053
5.126,-0.052
5.127,-0.053
5.128,-0.052
5.129,-0.053
5.130,-0.059
5.131,-0.063
5.132,-0.064
5.133,-0.059
5.134,-0.063
5.135,-0.063
5.136,-0.064
5.137,-0.066
5.138,-0.066
5.139,-0.066
5.140,-0.066
5.141,-0.066
5.142,-0.066
5.143,-0.066
5.144,-0.069
5.145,-0.069
5.146,-0.069
5.147,-0.069
5.148,-0.068
5.149,-0.069
5.150,-0.070
5.151,-0.069
5.152,-0.072
5.153,-0.072
5.154,-0.072
5.155,-0.072
5.156,-0.072
5.157,-0.072
5.158,-0.071
5.159,-0.072
5.160,-0.072
5.161,-0.072
5.162,-0.072
5.163,-0.072
5.164,-0.075
5.165,-0.078
5.166,-0.077
5.167,-0.075
5.168,-0.074
5.169,-0.072
5.170,-0.073
5.171,-0.075
5.172,-0.073
5.173,-0.072
5.174,-0.068
5.175,-0.063
5.176,-0.063
5.177,-0.056
5.178,-0.049
5.179,-0.044
5.180,-0.038
5.181,-0.034
5.182,-0.031
5.183,-0.025
5.184,-0.025
5.185,-0.019
5.186,-0.013
5.187,-0.009
5.188,-0.006
5.189,0.000
5.190,0.005
5.191,0.000
5.192,0.002
5.193,0.003
5.194,-0.002
5.195,0.000
5.196,-0.004
5.197,-0.006
5.198,-0.005
5.199,-0.006
5.200,-0.005
5.201,-0.003
5.202,-0.004
5.203,-0.003
5.204,-0.003
5.205,-0.003
5.206,0.000
5.207,0.003
5.208,0.003
5.209,0.003
5.210,0.003
5.211,0.006
5.212,0.007
5.213,0.012
5.214,0.017
5.215,0.022
5.216,0.028
5.217,0.025
5.218,0.024
5.219,0.019
5.220,0.017
5.221,0.016
5.222,0.017
5.223,0.016
5.224,0.011
5.225,0.009
5.226,0.003
5.227,0.000
5.228,-0.004
5.229,-0.013
5.230,-0.014
5.231,-0.019
5.232,-0.022
5.233,-0.025
5.234,-0.033
5.235,-0.038
5.236,-0.042
5.237,-0.044
5.238,-0.045
5.239,-0.050
5.240,-0.052
5.241,-0.053
5.242,-0.053
5.243,-0.053
5.244,-0.053
5.245,-0.053
5.246,-0.056
5.247,-0.053
5.248,-0.053
5.249,-0.053
5.250,-0.056
5.251,-0.056
5.252,-0.063
5.253,-0.066
5.254,-0.075
5.255,-0.081
5.256,-0.088
5.257,-0.091
5.258,-0.095
5.259,-0.100
5.260,-0.102
5.261,-0.103
5.262,-0.108
5.263,-0.109
5.264,-0.109
5.265,-0.109
5.266,-0.108
5.267,-0.109
5.268,-0.109
5.269,-0.109
5.270,-0.112
5.271,-0.112
5.272,-0.114
5.273,-0.116
5.274,-0.116
5.275,-0.116
5.276,-0.114
5.277,-0.112
5.278,-0.116
5.279,-0.116
5.280,-0.116
5.281,-0.116
5.282,-0.117
5.283,-0.119
5.284,-0.119
5.285,-0.119
5.286,-0.122
5.287,-0.122
5.288,-0.123
5.289,-0.122
5.290,-0.122
5.291,-0.125
5.292,-0.125
5.293,-0.125
5.294,-0.125
5.295,-0.125
5.296,-0.124
5.297,-0.122
5.298,-0.123
5.299,-0.125
5.300,-0.122
5.301,-0.125
5.302,-0.125
5.303,-0.125
5.304,-0.125
5.305,-0.125
5.306,-0.125
5.307,-0.125
5.308,-0.126
5.309,-0.128
5.310,-0.127
5.311,-0.125
5.312,-0.125
5.313,-0.125
5.314,-0.123
5.315,-0.125
5.316,-0.127
5.317,-0.125
5.318,-0.125
5.319,-0.125
5.320,-0.125
5.321,-0.125
5.322,-0.125
5.323,-0.125
5.324,-0.124
5.325,-0.122
5.326,-0.121
5.327,-0.122
5.328,-0.125
5.329,-0.131
5.330,-0.134
5.331,-0.144
5.332,-0.148
5.333,-0.159
5.334,-0.176
5.335,-0.194
5.336,-0.211
5.337,-0.231
5.338,-0.247
5.339,-0.259
5.340,-0.271
5.341,-0.272
5.342,-0.266
5.343,-0.253
5.344,-0.233
5.345,-0.206
5.346,-0.181
5.347,-0.147
5.348,-0.114
5.349,-0.081
5.350,-0.047
5.351,-0.016
5.352,0.023
5.353,0.066
5.354,0.116
5.355,0.175
5.356,0.230
5.357,0.281
5.358,0.342
5.359,0.403
5.360,0.473
5.361,0.553
5.362,0.647
5.363,0.737
5.364,0.816
5.365,0.894
5.366,0.964
5.367,1.025
5.368,1.094
5.369,1.159
5.370,1.220
5.371,1.284
5.372,1.334
5.373,1.375
5.374,1.386
5.375,1.378
5.376,1.331
5.377,1.247
5.378,1.158
5.379,1.066
5.380,0.973
5.381,0.881
5.382,0.789
5.383,0.700
5.384,0.620
5.385,0.556
5.386,0.481
5.387,0.406
5.388,0.341
5.389,0.275
5.390,0.222
5.391,0.169
5.392,0.117
5.393,0.072
5.394,0.017
5.395,-0.044
5.396,-0.096
5.397,-0.141
5.398,-0.174
5.399,-0.194
5.400,-0.208
5.401,-0.209
5.402,-0.203
5.403,-0.188
5.404,-0.168
5.405,-0.153
5.406,-0.134
5.407,-0.112
5.408,-0.097
5.409,-0.084
5.410,-0.072
5.411,-0.066
5.412,-0.056
5.413,-0.050
5.414,-0.041
5.415,-0.041
5.416,-0.036
5.417,-0.034
5.418,-0.033
5.419,-0.028
5.420,-0.029
5.421,-0.028
5.422,-0.028
5.423,-0.031
5.424,-0.036
5.425,-0.041
5.426,-0.044
5.427,-0.047
5.428,-0.051
5.429,-0.050
5.430,-0.050
5.431,-0.050
5.432,-0.051
5.433,-0.053
5.434,-0.051
5.435,-0.053
5.436,-0.049
5.437,-0.050
5.438,-0.050
5.439,-0.050
5.440,-0.049
5.441,-0.050
5.442,-0.052
5.443,-0.053
5.444,-0.053
5.445,-0.053
5.446,-0.051
5.447,-0.053
5.448,-0.054
5.449,-0.053
5.450,-0.053
5.451,-0.053
5.452,-0.050
5.453,-0.050
5.454,-0.054
5.455,-0.053
5.456,-0.053
5.457,-0.053
5.458,-0.053
5.459,-0.053
5.460,-0.053
5.461,-0.053
5.462,-0.053
5.463,-0.053
5.464,-0.053
5.465,-0.053
5.466,-0.053
5.467,-0.050
5.468,-0.050
5.469,-0.050
5.470,-0.050
5.471,-0.050
5.472,-0.050
5.473,-0.050
5.474,-0.049
5.475,-0.047
5.476,-0.045
5.477,-0.047
5.478,-0.041
5.479,-0.038
5.480,-0.039
5.481,-0.041
5.482,-0.045
5.483,-0.044
5.484,-0.043
5.485,-0.041
5.486,-0.044
5.487,-0.041
5.488,-0.038
5.489,-0.034
5.490,-0.034
5.491,-0.034
5.492,-0.034
5.493,-0.034
5.494,-0.034
5.495,-0.031
5.496,-0.031
5.497,-0.031
5.498,-0.031
5.499,-0.028
5.500,-0.028
5.501,-0.028
5.502,-0.025
5.503,-0.028
5.504,-0.025
5.505,-0.025
5.506,-0.021
5.507,-0.019
5.508,-0.020
5.509,-0.019
5.510,-0.019
5.511,-0.019
5.512,-0.019
5.513,-0.016
5.514,-0.013
5.515,-0.013
5.516,-0.013
5.517,-0.013
5.518,-0.013
5.519,-0.013
5.520,-0.009
5.521,-0.009
5.522,-0.009
5.523,-0.006
5.524,-0.003
5.525,-0.003
5.526,-0.002
5.527,0.000
5.528,0.000
5.529,0.003
5.530,0.006
5.531,0.006
5.532,0.003
5.533,0.006
5.534,0.003
5.535,0.000
5.536,0.004
5.537,0.006
5.538,0.007
5.539,0.009
5.540,0.009
5.541,0.009
5.542,0.009
5.543,0.012
5.544,0.012
5.545,0.012
5.546,0.016
5.547,0.022
5.548,0.021
5.549,0.019
5.550,0.019
5.551,0.016
5.552,0.016
5.553,0.016
5.554,0.011
5.555,0.012
5.556,0.014
5.557,0.016
5.558,0.017
5.559,0.019
5.560,0.023
5.561,0.022
5.562,0.019
5.563,0.022
5.564,0.025
5.565,0.025
5.566,0.019
5.567,0.016
5.568,0.016
5.569,0.016
5.570,0.017
5.571,0.019
5.572,0.020
5.573,0.022
5.574,0.017
5.575,0.016
5.576,0.014
5.577,0.012
5.578,0.014
5.579,0.012
5.580,0.012
5.581,0.012
5.582,0.014
5.583,0.012
5.584,0.012
5.585,0.009
5.586,0.008
5.587,0.003
5.588,0.003
5.589,0.000
5.590,-0.001
5.591,-0.006
5.592,-0.006
5.593,-0.006
5.594,-0.006
5.595,-0.006
5.596,-0.013
5.597,-0.016
5.598,-0.019
5.599,-0.019
5.600,-0.019
5.601,-0.022
5.602,-0.022
5.603,-0.022
5.604,-0.026
5.605,-0.028
5.606,-0.030
5.607,-0.031
5.608,-0.029
5.609,-0.034
5.610,-0.036
5.611,-0.038
5.612,-0.041
5.613,-0.044
5.614,-0.043
5.615,-0.047
5.616,-0.048
5.617,-0.050
5.618,-0.050
5.619,-0.053
5.620,-0.056
5.621,-0.056
5.622,-0.055
5.623,-0.056
5.624,-0.055
5.625,-0.053
5.626,-0.058
5.627,-0.059
5.628,-0.059
5.629,-0.059
5.630,-0.064
5.631,-0.063
5.632,-0.061
5.633,-0.059
5.634,-0.063
5.635,-0.063
5.636,-0.063
5.637,-0.063
5.638,-0.063
5.639,-0.063
5.640,-0.064
5.641,-0.063
5.642,-0.061
5.643,-0.063
5.644,-0.063
5.645,-0.063
5.646,-0.061
5.647,-0.059
5.648,-0.063
5.649,-0.059
5.650,-0.056
5.651,-0.056
5.652,-0.055
5.653,-0.053
5.654,-0.051
5.655,-0.050
5.656,-0.050
5.657,-0.050
5.658,-0.047
5.659,-0.044
5.660,-0.044
5.661,-0.041
5.662,-0.041
5.663,-0.038
5.664,-0.034
5.665,-0.034
5.666,-0.031
5.667,-0.028
5.668,-0.028
5.669,-0.028
5.670,-0.025
5.671,-0.022
5.672,-0.018
5.673,-0.016
5.674,-0.014
5.675,-0.013
5.676,-0.014
5.677,-0.013
5.678,-0.008
5.679,-0.006
5.680,-0.003
5.681,-0.003
5.682,-0.003
5.683,0.000
5.684,0.003
5.685,0.003
5.686,0.005
5.687,0.003
5.688,0.006
5.689,0.009
5.690,0.009
5.691,0.009
5.692,0.011
5.693,0.009
5.694,0.008
5.695,0.009
5.696,0.009
5.697,0.009
5.698,0.009
5.699,0.009
5.700,0.008
5.701,0.009
5.702,0.011
5.703,0.009
5.704,0.011
5.705,0.009
5.706,0.008
5.707,0.006
5.708,0.007
5.709,0.009
5.710,0.005
5.711,0.003
5.712,0.000
5.713,0.000
5.714,0.000
5.715,0.000
5.716,-0.003
5.717,-0.006
5.718,-0.003
5.719,-0.003
5.720,-0.006
5.721,-0.009
5.722,-0.011
5.723,-0.009
5.724,-0.011
5.725,-0.009
5.726,-0.011
5.727,-0.009
5.728,-0.011
5.729,-0.013
5.730,-0.014
5.731,-0.013
5.732,-0.017
5.733,-0.019
5.734,-0.022
5.735,-0.025
5.736,-0.028
5.737,-0.028
5.738,-0.027
5.739,-0.028
5.740,-0.025
5.741,-0.022
5.742,-0.021
5.743,-0.022
5.744,-0.022
5.745,-0.028
5.746,-0.028
5.747,-0.028
5.748,-0.033
5.749,-0.034
5.750,-0.034
5.751,-0.034
5.752,-0.034
5.753,-0.034
5.754,-0.033
5.755,-0.034
5.756,-0.034
5.757,-0.034
5.758,-0.034
5.759,-0.034
5.760,-0.034
5.761,-0.034
5.762,-0.034
5.763,-0.034
5.764,-0.034
5.765,-0.034
5.766,-0.034
5.767,-0.034
5.768,-0.034
5.769,-0.034
5.770,-0.034
5.771,-0.034
5.772,-0.033
5.773,-0.031
5.774,-0.029
5.775,-0.031
5.776,-0.033
5.777,-0.034
5.778,-0.034
5.779,-0.034
5.780,-0.034
5.781,-0.034
5.782,-0.033
5.783,-0.031
5.784,-0.028
5.785,-0.031
5.786,-0.031
5.787,-0.031
5.788,-0.031
5.789,-0.031
5.790,-0.031
5.791,-0.028
5.792,-0.024
5.793,-0.019
5.794,-0.022
5.795,-0.022
5.796,-0.022
5.797,-0.022
5.798,-0.023
5.799,-0.025
5.800,-0.025
5.801,-0.025
5.802,-0.023
5.803,-0.028
5.804,-0.027
5.805,-0.025
5.806,-0.031
5.807,-0.031
5.808,-0.031
5.809,-0.031
5.810,-0.031
5.811,-0.031
5.812,-0.033
5.813,-0.034
5.814,-0.031
5.815,-0.028
5.816,-0.030
5.817,-0.028
5.818,-0.028
5.819,-0.028
5.820,-0.029
5.821,-0.031
5.822,-0.031
5.823,-0.031
5.824,-0.033
5.825,-0.034
5.826,-0.034
5.827,-0.034
5.828,-0.034
5.829,-0.034
5.830,-0.033
5.831,-0.031
5.832,-0.034
5.833,-0.034
5.834,-0.034
5.835,-0.034
5.836,-0.033
5.837,-0.034
5.838,-0.036
5.839,-0.038
5.840,-0.036
5.841,-0.038
5.842,-0.041
5.843,-0.044
5.844,-0.045
5.845,-0.047
5.846,-0.046
5.847,-0.044
5.848,-0.043
5.849,-0.044
5.850,-0.044
5.851,-0.047
5.852,-0.051
5.853,-0.053
5.854,-0.049
5.855,-0.050
5.856,-0.047
5.857,-0.050
5.858,-0.050
5.859,-0.050
5.860,-0.051
5.861,-0.053
5.862,-0.052
5.863,-0.053
5.864,-0.053
5.865,-0.053
5.866,-0.056
5.867,-0.056
5.868,-0.058
5.869,-0.063
5.870,-0.064
5.871,-0.066
5.872,-0.066
5.873,-0.069
5.874,-0.066
5.875,-0.066
5.876,-0.064
5.877,-0.063
5.878,-0.064
5.879,-0.063
5.880,-0.066
5.881,-0.066
5.882,-0.063
5.883,-0.066
5.884,-0.063
5.885,-0.066
5.886,-0.067
5.887,-0.069
5.888,-0.070
5.889,-0.072
5.890,-0.072
5.891,-0.072
5.892,-0.071
5.893,-0.072
5.894,-0.072
5.895,-0.072
5.896,-0.073
5.897,-0.075
5.898,-0.078
5.899,-0.078
5.900,-0.075
5.901,-0.078
5.902,-0.079
5.903,-0.081
5.904,-0.078
5.905,-0.075
5.906,-0.075
5.907,-0.075
5.908,-0.079
5.909,-0.081
5.910,-0.081
5.911,-0.081
5.912,-0.081
5.913,-0.081
5.914,-0.081
5.915,-0.081
5.916,-0.081
5.917,-0.081
5.918,-0.081
5.919,-0.081
5.920,-0.081
5.921,-0.078
5.922,-0.075
5.923,-0.072
5.924,-0.068
5.925,-0.066
5.926,-0.058
5.927,-0.050
5.928,-0.050
5.929,-0.047
5.930,-0.043
5.931,-0.038
5.932,-0.030
5.933,-0.028
5.934,-0.022
5.935,-0.016
5.936,-0.014
5.937,-0.013
5.938,-0.006
5.939,0.000
5.940,-0.003
5.941,0.000
5.942,0.006
5.943,0.003
5.944,0.003
5.945,0.000
5.946,-0.003
5.947,-0.006
5.948,-0.011
5.949,-0.013
5.950,-0.013
5.951,-0.013
5.952,-0.008
5.953,-0.003
5.954,0.000
5.955,0.003
5.956,0.005
5.957,0.003
5.958,0.006
5.959,0.009
5.960,0.011
5.961,0.009
5.962,0.016
5.963,0.022
5.964,0.024
5.965,0.028
5.966,0.025
5.967,0.025
5.968,0.021
5.969,0.016
5.970,0.014
5.971,0.016
5.972,0.014
5.973,0.012
5.974,0.011
5.975,0.003
5.976,0.000
5.977,-0.003
5.978,-0.008
5.979,-0.009
5.980,-0.016
5.981,-0.019
5.982,-0.023
5.983,-0.031
5.984,-0.034
5.985,-0.038
5.986,-0.036
5.987,-0.034
5.988,-0.039
5.989,-0.044
5.990,-0.047
5.991,-0.047
5.992,-0.047
5.993,-0.047
5.994,-0.047
5.995,-0.050
5.996,-0.048
5.997,-0.050
5.998,-0.050
5.999,-0.056
6.000,-0.061
6.001,-0.069
6.002,-0.069
6.003,-0.072
6.004,-0.075
6.005,-0.081
6.006,-0.084
6.007,-0.088
6.008,-0.091
6.009,-0.094
6.010,-0.097
6.011,-0.103
6.012,-0.105
6.013,-0.103
6.014,-0.104
6.015,-0.106
6.016,-0.109
6.017,-0.109
6.018,-0.108
6.019,-0.109
6.020,-0.109
6.021,-0.109
6.022,-0.109
6.023,-0.109
6.024,-0.109
6.025,-0.109
6.026,-0.108
6.027,-0.109
6.028,-0.112
6.029,-0.116
6.030,-0.116
6.031,-0.116
6.032,-0.116
6.033,-0.116
6.034,-0.114
6.035,-0.116
6.036,-0.117
6.037,-0.119
6.038,-0.116
6.039,-0.116
6.040,-0.118
6.041,-0.116
6.042,-0.117
6.043,-0.119
6.044,-0.119
6.045,-0.119
6.046,-0.119
6.047,-0.119
6.048,-0.122
6.049,-0.122
6.050,-0.122
6.051,-0.119
6.052,-0.120
6.053,-0.122
6.054,-0.122
6.055,-0.122
6.056,-0.122
6.057,-0.122
6.058,-0.122
6.059,-0.122
6.060,-0.121
6.061,-0.119
6.062,-0.120
6.063,-0.119
6.064,-0.118
6.065,-0.119
6.066,-0.119
6.067,-0.119
6.068,-0.119
6.069,-0.119
6.070,-0.119
6.071,-0.119
6.072,-0.119
6.073,-0.119
6.074,-0.118
6.075,-0.116
6.076,-0.120
6.077,-0.122
6.078,-0.126
6.079,-0.131
6.080,-0.142
6.081,-0.147
6.082,-0.156
6.083,-0.172
6.084,-0.191
6.085,-0.213
6.086,-0.234
6.087,-0.253
6.088,-0.264
6.089,-0.272
6.090,-0.274
6.091,-0.269
6.092,-0.258
6.093,-0.241
6.094,-0.214
6.095,-0.184
6.096,-0.149
6.097,-0.112
6.098,-0.083
6.099,-0.050
6.100,-0.016
6.101,0.022
6.102,0.066
6.103,0.112
6.104,0.162
6.105,0.216
6.106,0.267
6.107,0.322
6.108,0.386
6.109,0.459
6.110,0.537
6.111,0.631
6.112,0.722
6.113,0.809
6.114,0.889
6.115,0.959
6.116,1.024
6.117,1.087
6.118,1.156
6.119,1.222
6.120,1.283
6.121,1.334
6.122,1.372
6.123,1.391
6.124,1.362
6.125,1.306
6.126,1.239
6.127,1.147
6.128,1.069
6.129,0.984
6.130,0.891
6.131,0.797
6.132,0.712
6.133,0.631
6.134,0.564
6.135,0.500
6.136,0.428
6.137,0.353
6.138,0.286
6.139,0.228
6.140,0.172
6.141,0.128
6.142,0.078
6.143,0.022
6.144,-0.031
6.145,-0.091
6.146,-0.136
6.147,-0.163
6.148,-0.186
6.149,-0.203
6.150,-0.208
6.151,-0.206
6.152,-0.197
6.153,-0.178
6.154,-0.164
6.155,-0.144
6.156,-0.123
6.157,-0.106
6.158,-0.094
6.159,-0.084
6.160,-0.077
6.161,-0.063
6.162,-0.054
6.163,-0.044
6.164,-0.042
6.165,-0.038
6.166,-0.033
6.167,-0.031
6.168,-0.027
6.169,-0.025
6.170,-0.022
6.171,-0.022
6.172,-0.026
6.173,-0.031
6.174,-0.038
6.175,-0.047
6.176,-0.052
6.177,-0.053
6.178,-0.050
6.179,-0.050
6.180,-0.051
6.181,-0.053
6.182,-0.053
6.183,-0.050
6.184,-0.050
6.185,-0.047
6.186,-0.047
6.187,-0.044
6.188,-0.045
6.189,-0.047
6.190,-0.050
6.191,-0.053
6.192,-0.058
6.193,-0.059
6.194,-0.061
6.195,-0.059
6.196,-0.058
6.197,-0.056
6.198,-0.049
6.199,-0.044
6.200,-0.044
6.201,-0.041
6.202,-0.041
6.203,-0.044
6.204,-0.042
6.205,-0.044
6.206,-0.045
6.207,-0.047
6.208,-0.048
6.209,-0.050
6.210,-0.050
6.211,-0.050
6.212,-0.049
6.213,-0.047
6.214,-0.047
6.215,-0.047
6.216,-0.045
6.217,-0.047
6.218,-0.046
6.219,-0.044
6.220,-0.043
6.221,-0.041
6.222,-0.041
6.223,-0.041
6.224,-0.042
6.225,-0.041
6.226,-0.041
6.227,-0.038
6.228,-0.036
6.229,-0.034
6.230,-0.034
6.231,-0.038
6.232,-0.036
6.233,-0.038
6.234,-0.038
6.235,-0.038
6.236,-0.033
6.237,-0.034
6.238,-0.034
6.239,-0.034
6.240,-0.034
6.241,-0.034
6.242,-0.033
6.243,-0.031
6.244,-0.027
6.245,-0.025
6.246,-0.025
6.247,-0.025
6.248,-0.023
6.249,-0.025
6.250,-0.025
6.251,-0.022
6.252,-0.026
6.253,-0.025
6.254,-0.022
6.255,-0.016
6.256,-0.016
6.257,-0.016
6.258,-0.014
6.259,-0.016
6.260,-0.016
6.261,-0.016
6.262,-0.014
6.263,-0.013
6.264,-0.013
6.265,-0.013
6.266,-0.006
6.267,0.000
6.268,-0.003
6.269,-0.003
6.270,-0.004
6.271,-0.006
6.272,-0.004
6.273,-0.003
6.274,-0.003
6.275,-0.003
6.276,-0.002
6.277,0.000
6.278,0.002
6.279,0.003
6.280,0.004
6.281,0.003
6.282,0.005
6.283,0.003
6.284,0.002
6.285,0.003
6.286,0.003
6.287,0.003
6.288,0.006
6.289,0.009
6.290,0.008
6.291,0.006
6.292,0.008
6.293,0.006
6.294,0.007
6.295,0.009
6.296,0.014
6.297,0.016
6.298,0.016
6.299,0.019
6.300,0.020
6.301,0.022
6.302,0.023
6.303,0.022
6.304,0.024
6.305,0.022
6.306,0.022
6.307,0.022
6.308,0.021
6.309,0.022
6.310,0.019
6.311,0.016
6.312,0.016
6.313,0.016
6.314,0.019
6.315,0.019
6.316,0.019
6.317,0.019
6.318,0.019
6.319,0.019
6.320,0.019
6.321,0.019
6.322,0.020
6.323,0.019
6.324,0.017
6.325,0.016
6.326,0.016
6.327,0.016
6.328,0.012
6.329,0.012
6.330,0.011
6.331,0.009
6.332,0.007
6.333,0.009
6.334,0.007
6.335,0.009
6.336,0.005
6.337,0.003
6.338,0.001
6.339,0.003
6.340,-0.003
6.341,-0.006
6.342,-0.005
6.343,-0.006
6.344,-0.008
6.345,-0.009
6.346,-0.009
6.347,-0.013
6.348,-0.016
6.349,-0.019
6.350,-0.021
6.351,-0.022
6.352,-0.025
6.353,-0.028
6.354,-0.027
6.355,-0.028
6.356,-0.031
6.357,-0.028
6.358,-0.033
6.359,-0.038
6.360,-0.041
6.361,-0.041
6.362,-0.041
6.363,-0.041
6.364,-0.047
6.365,-0.047
6.366,-0.048
6.367,-0.050
6.368,-0.052
6.369,-0.053
6.370,-0.052
6.371,-0.050
6.372,-0.054
6.373,-0.056
6.374,-0.058
6.375,-0.063
6.376,-0.063
6.377,-0.063
6.378,-0.063
6.379,-0.066
6.380,-0.061
6.381,-0.059
6.382,-0.056
6.383,-0.056
6.384,-0.058
6.385,-0.059
6.386,-0.063
6.387,-0.066
6.388,-0.066
6.389,-0.066
6.390,-0.064
6.391,-0.066
6.392,-0.068
6.393,-0.066
6.394,-0.064
6.395,-0.059
6.396,-0.056
6.397,-0.059
6.398,-0.058
6.399,-0.056
6.400,-0.053
6.401,-0.050
6.402,-0.051
6.403,-0.050
6.404,-0.048
6.405,-0.050
6.406,-0.049
6.407,-0.044
6.408,-0.041
6.409,-0.041
6.410,-0.038
6.411,-0.038
6.412,-0.038
6.413,-0.038
6.414,-0.036
6.415,-0.031
6.416,-0.028
6.417,-0.028
6.418,-0.027
6.419,-0.022
6.420,-0.020
6.421,-0.019
6.422,-0.019
6.423,-0.016
6.424,-0.013
6.425,-0.013
6.426,-0.009
6.427,-0.006
6.428,-0.006
6.429,-0.003
6.430,-0.003
6.431,-0.003
6.432,0.000
6.433,0.003
6.434,0.004
6.435,0.009
6.436,0.009
6.437,0.009
6.438,0.009
6.439,0.009
6.440,0.008
6.441,0.009
6.442,0.012
6.443,0.016
6.444,0.017
6.445,0.016
6.446,0.014
6.447,0.012
6.448,0.012
6.449,0.012
6.450,0.016
6.451,0.016
6.452,0.011
6.453,0.009
6.454,0.006
6.455,0.006
6.456,0.006
6.457,0.006
6.458,0.007
6.459,0.006
6.460,0.006
6.461,0.003
6.462,0.002
6.463,0.000
6.464,0.000
6.465,0.000
6.466,0.001
6.467,0.003
6.468,-0.001
6.469,-0.006
6.470,-0.009
6.471,-0.009
6.472,-0.006
6.473,-0.009
6.474,-0.008
6.475,-0.009
6.476,-0.011
6.477,-0.013
6.478,-0.013
6.479,-0.016
6.480,-0.014
6.481,-0.016
6.482,-0.016
6.483,-0.016
6.484,-0.014
6.485,-0.016
6.486,-0.017
6.487,-0.019
6.488,-0.023
6.489,-0.025
6.490,-0.024
6.491,-0.022
6.492,-0.025
6.493,-0.022
6.494,-0.025
6.495,-0.025
6.496,-0.025
6.497,-0.028
6.498,-0.028
6.499,-0.028
6.500,-0.028
6.501,-0.028
6.502,-0.028
6.503,-0.028
6.504,-0.031
6.505,-0.031
6.506,-0.030
6.507,-0.028
6.508,-0.028
6.509,-0.028
6.510,-0.028
6.511,-0.028
6.512,-0.029
6.513,-0.031
6.514,-0.031
6.515,-0.031
6.516,-0.031
6.517,-0.031
6.518,-0.030
6.519,-0.028
6.520,-0.028
6.521,-0.028
6.522,-0.029
6.523,-0.028
6.524,-0.028
6.525,-0.028
6.526,-0.028
6.527,-0.028
6.528,-0.028
6.529,-0.028
6.530,-0.028
6.531,-0.028
6.532,-0.029
6.533,-0.028
6.534,-0.030
6.535,-0.028
6.536,-0.028
6.537,-0.028
6.538,-0.028
6.539,-0.028
6.540,-0.026
6.541,-0.028
6.542,-0.027
6.543,-0.028
6.544,-0.028
6.545,-0.028
6.546,-0.028
6.547,-0.028
6.548,-0.028
6.549,-0.028
6.550,-0.028
6.551,-0.025
6.552,-0.028
6.553,-0.028
6.554,-0.028
6.555,-0.031
6.556,-0.028
6.557,-0.028
6.558,-0.028
6.559,-0.028
6.560,-0.028
6.561,-0.028
6.562,-0.028
6.563,-0.028
6.564,-0.028
6.565,-0.031
6.566,-0.031
6.567,-0.031
6.568,-0.031
6.569,-0.031
6.570,-0.031
6.571,-0.031
6.572,-0.031
6.573,-0.031
6.574,-0.031
6.575,-0.031
6.576,-0.031
6.577,-0.031
6.578,-0.033
6.579,-0.034
6.580,-0.034
6.581,-0.038
6.582,-0.038
6.583,-0.038
6.584,-0.036
6.585,-0.034
6.586,-0.041
6.587,-0.044
6.588,-0.043
6.589,-0.041
6.590,-0.045
6.591,-0.047
6.592,-0.048
6.593,-0.050
6.594,-0.050
6.595,-0.050
6.596,-0.050
6.597,-0.050
6.598,-0.052
6.599,-0.050
6.600,-0.052
6.601,-0.053
6.602,-0.054
6.603,-0.053
6.604,-0.056
6.605,-0.053
6.606,-0.056
6.607,-0.056
6.608,-0.056
6.609,-0.056
6.610,-0.053
6.611,-0.050
6.612,-0.053
6.613,-0.053
6.614,-0.056
6.615,-0.063
6.616,-0.061
6.617,-0.059
6.618,-0.061
6.619,-0.059
6.620,-0.061
6.621,-0.063
6.622,-0.067
6.623,-0.066
6.624,-0.066
6.625,-0.066
6.626,-0.064
6.627,-0.066
6.628,-0.064
6.629,-0.066
6.630,-0.066
6.631,-0.063
6.632,-0.066
6.633,-0.063
6.634,-0.066
6.635,-0.066
6.636,-0.066
6.637,-0.066
6.638,-0.064
6.639,-0.066
6.640,-0.067
6.641,-0.069
6.642,-0.070
6.643,-0.072
6.644,-0.072
6.645,-0.072
6.646,-0.074
6.647,-0.072
6.648,-0.072
6.649,-0.072
6.650,-0.071
6.651,-0.072
6.652,-0.075
6.653,-0.075
6.654,-0.079
6.655,-0.081
6.656,-0.081
6.657,-0.081
6.658,-0.080
6.659,-0.078
6.660,-0.078
6.661,-0.081
6.662,-0.081
6.663,-0.081
6.664,-0.081
6.665,-0.081
6.666,-0.081
6.667,-0.081
6.668,-0.081
6.669,-0.081
6.670,-0.081
6.671,-0.081
6.672,-0.081
6.673,-0.081
6.674,-0.079
6.675,-0.078
6.676,-0.076
6.677,-0.075
6.678,-0.076
6.679,-0.072
6.680,-0.061
6.681,-0.053
6.682,-0.048
6.683,-0.047
6.684,-0.044
6.685,-0.038
6.686,-0.036
6.687,-0.028
6.688,-0.021
6.689,-0.016
6.690,-0.019
6.691,-0.019
6.692,-0.011
6.693,-0.013
6.694,-0.011
6.695,-0.009
6.696,-0.013
6.697,-0.009
6.698,-0.013
6.699,-0.013
6.700,-0.011
6.701,-0.013
6.702,-0.013
6.703,-0.013
6.704,-0.011
6.705,-0.006
6.706,-0.004
6.707,-0.003
6.708,0.001
6.709,0.006
6.710,0.006
6.711,0.006
6.712,0.005
6.713,0.006
6.714,0.009
6.715,0.016
6.716,0.017
6.717,0.019
6.718,0.025
6.719,0.022
6.720,0.021
6.721,0.016
6.722,0.014
6.723,0.012
6.724,0.014
6.725,0.012
6.726,0.011
6.727,0.012
6.728,0.007
6.729,0.006
6.730,0.003
6.731,-0.003
6.732,-0.006
6.733,-0.013
6.734,-0.013
6.735,-0.013
6.736,-0.020
6.737,-0.025
6.738,-0.031
6.739,-0.034
6.740,-0.033
6.741,-0.034
6.742,-0.039
6.743,-0.044
6.744,-0.045
6.745,-0.047
6.746,-0.048
6.747,-0.050
6.748,-0.054
6.749,-0.053
6.750,-0.052
6.751,-0.050
6.752,-0.058
6.753,-0.063
6.754,-0.068
6.755,-0.069
6.756,-0.074
6.757,-0.075
6.758,-0.081
6.759,-0.084
6.760,-0.089
6.761,-0.094
6.762,-0.097
6.763,-0.100
6.764,-0.106
6.765,-0.109
6.766,-0.111
6.767,-0.112
6.768,-0.111
6.769,-0.112
6.770,-0.111
6.771,-0.109
6.772,-0.112
6.773,-0.112
6.774,-0.112
6.775,-0.112
6.776,-0.112
6.777,-0.112
6.778,-0.116
6.779,-0.119
6.780,-0.122
6.781,-0.122
6.782,-0.122
6.783,-0.122
6.784,-0.122
6.785,-0.122
6.786,-0.122
6.787,-0.122
6.788,-0.125
6.789,-0.125
6.790,-0.126
6.791,-0.125
6.792,-0.124
6.793,-0.125
6.794,-0.125
6.795,-0.125
6.796,-0.125
6.797,-0.125
6.798,-0.126
6.799,-0.128
6.800,-0.125
6.801,-0.122
6.802,-0.119
6.803,-0.122
6.804,-0.123
6.805,-0.125
6.806,-0.126
6.807,-0.128
6.808,-0.128
6.809,-0.128
6.810,-0.127
6.811,-0.125
6.812,-0.125
6.813,-0.125
6.814,-0.124
6.815,-0.122
6.816,-0.119
6.817,-0.119
6.818,-0.122
6.819,-0.122
6.820,-0.122
6.821,-0.122
6.822,-0.123
6.823,-0.125
6.824,-0.125
6.825,-0.125
6.826,-0.125
6.827,-0.125
6.828,-0.124
6.829,-0.125
6.830,-0.126
6.831,-0.131
6.832,-0.131
6.833,-0.138
6.834,-0.142
6.835,-0.153
6.836,-0.169
6.837,-0.184
6.838,-0.203
6.839,-0.225
6.840,-0.244
6.841,-0.259
6.842,-0.271
6.843,-0.272
6.844,-0.272
6.845,-0.266
6.846,-0.246
6.847,-0.219
6.848,-0.194
6.849,-0.159
6.850,-0.125
6.851,-0.091
6.852,-0.061
6.853,-0.034
6.854,0.003
6.855,0.044
6.856,0.091
6.857,0.147
6.858,0.199
6.859,0.247
6.860,0.300
6.861,0.353
6.862,0.426
6.863,0.509
6.864,0.600
6.865,0.687
6.866,0.773
6.867,0.859
6.868,0.933
6.869,0.997
6.870,1.069
6.871,1.137
6.872,1.203
6.873,1.272
6.874,1.328
6.875,1.375
6.876,1.397
6.877,1.400
6.878,1.359
6.879,1.281
6.880,1.192
6.881,1.100
6.882,1.016
6.883,0.931
6.884,0.834
6.885,0.741
6.886,0.659
6.887,0.594
6.888,0.526
6.889,0.459
6.890,0.388
6.891,0.316
6.892,0.257
6.893,0.200
6.894,0.153
6.895,0.112
6.896,0.056
6.897,-0.006
6.898,-0.069
6.899,-0.125
6.900,-0.161
6.901,-0.184
6.902,-0.206
6.903,-0.216
6.904,-0.214
6.905,-0.203
6.906,-0.183
6.907,-0.169
6.908,-0.153
6.909,-0.134
6.910,-0.114
6.911,-0.097
6.912,-0.084
6.913,-0.078
6.914,-0.069
6.915,-0.063
6.916,-0.047
6.917,-0.041
6.918,-0.036
6.919,-0.034
6.920,-0.031
6.921,-0.025
6.922,-0.025
6.923,-0.022
6.924,-0.023
6.925,-0.028
6.926,-0.033
6.927,-0.038
6.928,-0.041
6.929,-0.044
6.930,-0.050
6.931,-0.050
6.932,-0.051
6.933,-0.053
6.934,-0.052
6.935,-0.050
6.936,-0.046
6.937,-0.044
6.938,-0.039
6.939,-0.041
6.940,-0.041
6.941,-0.041
6.942,-0.039
6.943,-0.041
6.944,-0.044
6.945,-0.047
6.946,-0.047
6.947,-0.047
6.948,-0.045
6.949,-0.047
6.950,-0.048
6.951,-0.047
6.952,-0.047
6.953,-0.047
6.954,-0.044
6.955,-0.044
6.956,-0.048
6.957,-0.047
6.958,-0.047
6.959,-0.047
6.960,-0.048
6.961,-0.050
6.962,-0.050
6.963,-0.050
6.964,-0.050
6.965,-0.050
6.966,-0.050
6.967,-0.050
6.968,-0.049
6.969,-0.044
6.970,-0.043
6.971,-0.041
6.972,-0.041
6.973,-0.041
6.974,-0.039
6.975,-0.038
6.976,-0.038
6.977,-0.038
6.978,-0.034
6.979,-0.034
6.980,-0.031
6.981,-0.031
6.982,-0.033
6.983,-0.034
6.984,-0.039
6.985,-0.038
6.986,-0.036
6.987,-0.034
6.988,-0.036
6.989,-0.031
6.990,-0.031
6.991,-0.031
6.992,-0.027
6.993,-0.022
6.994,-0.023
6.995,-0.025
6.996,-0.026
6.997,-0.025
6.998,-0.026
6.999,-0.028
7.000,-0.028
7.001,-0.025
7.002,-0.024
7.003,-0.022
7.004,-0.018
7.005,-0.019
7.006,-0.016
7.007,-0.016
7.008,-0.013
7.009,-0.013
7.010,-0.011
7.011,-0.006
7.012,-0.006
7.013,-0.006
7.014,-0.008
7.015,-0.006
7.016,-0.003
7.017,-0.003
7.018,-0.003
7.019,-0.003
7.020,-0.002
7.021,0.000
7.022,0.003
7.023,0.003
7.024,0.002
7.025,0.003
7.026,0.005
7.027,0.003
7.028,0.003
7.029,0.003
7.030,0.000
7.031,0.000
7.032,0.004
7.033,0.006
7.034,0.004
7.035,0.009
7.036,0.009
7.037,0.009
7.038,0.011
7.039,0.009
7.040,0.009
7.041,0.009
7.042,0.011
7.043,0.012
7.044,0.012
7.045,0.016
7.046,0.017
7.047,0.019
7.048,0.019
7.049,0.022
7.050,0.023
7.051,0.025
7.052,0.028
7.053,0.028
7.054,0.028
7.055,0.028
7.056,0.024
7.057,0.025
7.058,0.024
7.059,0.022
7.060,0.022
7.061,0.022
7.062,0.028
7.063,0.028
7.064,0.024
7.065,0.025
7.066,0.027
7.067,0.025
7.068,0.023
7.069,0.025
7.070,0.024
7.071,0.022
7.072,0.022
7.073,0.022
7.074,0.021
7.075,0.019
7.076,0.014
7.077,0.012
7.078,0.012
7.079,0.012
7.080,0.012
7.081,0.009
7.082,0.009
7.083,0.009
7.084,0.011
7.085,0.009
7.086,0.011
7.087,0.009
7.088,0.009
7.089,0.006
7.090,0.007
7.091,0.006
7.092,0.006
7.093,0.003
7.094,0.003
7.095,0.003
7.096,-0.001
7.097,-0.006
7.098,-0.008
7.099,-0.006
7.100,-0.011
7.101,-0.013
7.102,-0.011
7.103,-0.013
7.104,-0.016
7.105,-0.019
7.106,-0.025
7.107,-0.028
7.108,-0.030
7.109,-0.031
7.110,-0.029
7.111,-0.034
7.112,-0.036
7.113,-0.038
7.114,-0.038
7.115,-0.038
7.116,-0.039
7.117,-0.047
7.118,-0.047
7.119,-0.047
7.120,-0.046
7.121,-0.047
7.122,-0.050
7.123,-0.050
7.124,-0.049
7.125,-0.050
7.126,-0.050
7.127,-0.050
7.128,-0.053
7.129,-0.053
7.130,-0.053
7.131,-0.053
7.132,-0.061
7.133,-0.063
7.134,-0.063
7.135,-0.063
7.136,-0.066
7.137,-0.066
7.138,-0.059
7.139,-0.053
7.140,-0.054
7.141,-0.056
7.142,-0.061
7.143,-0.063
7.144,-0.063
7.145,-0.066
7.146,-0.067
7.147,-0.069
7.148,-0.063
7.149,-0.056
7.150,-0.058
7.151,-0.053
7.152,-0.050
7.153,-0.050
7.154,-0.051
7.155,-0.053
7.156,-0.046
7.157,-0.038
7.158,-0.039
7.159,-0.041
7.160,-0.041
7.161,-0.041
7.162,-0.039
7.163,-0.034
7.164,-0.034
7.165,-0.031
7.166,-0.028
7.167,-0.028
7.168,-0.024
7.169,-0.019
7.170,-0.019
7.171,-0.019
7.172,-0.016
7.173,-0.013
7.174,-0.011
7.175,-0.013
7.176,-0.009
7.177,-0.006
7.178,-0.005
7.179,0.000
7.180,0.003
7.181,0.003
7.182,0.005
7.183,0.003
7.184,0.003
7.185,0.006
7.186,0.011
7.187,0.012
7.188,0.014
7.189,0.012
7.190,0.011
7.191,0.009
7.192,0.014
7.193,0.019
7.194,0.022
7.195,0.022
7.196,0.017
7.197,0.016
7.198,0.016
7.199,0.016
7.200,0.017
7.201,0.019
7.202,0.019
7.203,0.022
7.204,0.022
7.205,0.019
7.206,0.017
7.207,0.012
7.208,0.012
7.209,0.012
7.210,0.012
7.211,0.012
7.212,0.011
7.213,0.012
7.214,0.009
7.215,0.009
7.216,0.009
7.217,0.009
7.218,0.011
7.219,0.012
7.220,0.014
7.221,0.012
7.222,0.009
7.223,0.006
7.224,0.005
7.225,0.006
7.226,0.003
7.227,0.003
7.228,0.000
7.229,0.000
7.230,-0.003
7.231,-0.006
7.232,-0.008
7.233,-0.006
7.234,-0.009
7.235,-0.009
7.236,-0.009
7.237,-0.009
7.238,-0.011
7.239,-0.009
7.240,-0.009
7.241,-0.013
7.242,-0.014
7.243,-0.016
7.244,-0.014
7.245,-0.016
7.246,-0.013
7.247,-0.016
7.248,-0.014
7.249,-0.013
7.250,-0.016
7.251,-0.016
7.252,-0.016
7.253,-0.016
7.254,-0.016
7.255,-0.016
7.256,-0.016
7.257,-0.019
7.258,-0.020
7.259,-0.022
7.260,-0.022
7.261,-0.022
7.262,-0.019
7.263,-0.016
7.264,-0.016
7.265,-0.016
7.266,-0.019
7.267,-0.022
7.268,-0.023
7.269,-0.025
7.270,-0.022
7.271,-0.019
7.272,-0.020
7.273,-0.022
7.274,-0.021
7.275,-0.019
7.276,-0.016
7.277,-0.016
7.278,-0.016
7.279,-0.016
7.280,-0.016
7.281,-0.016
7.282,-0.017
7.283,-0.019
7.284,-0.018
7.285,-0.016
7.286,-0.011
7.287,-0.013
7.288,-0.014
7.289,-0.016
7.290,-0.016
7.291,-0.016
7.292,-0.017
7.293,-0.016
7.294,-0.017
7.295,-0.019
7.296,-0.023
7.297,-0.025
7.298,-0.021
7.299,-0.016
7.300,-0.016
7.301,-0.016
7.302,-0.017
7.303,-0.019
7.304,-0.016
7.305,-0.019
7.306,-0.019
7.307,-0.019
7.308,-0.021
7.309,-0.016
7.310,-0.016
7.311,-0.016
7.312,-0.019
7.313,-0.022
7.314,-0.023
7.315,-0.025
7.316,-0.024
7.317,-0.022
7.318,-0.025
7.319,-0.025
7.320,-0.025
7.321,-0.025
7.322,-0.025
7.323,-0.025
7.324,-0.025
7.325,-0.025
7.326,-0.025
7.327,-0.025
7.328,-0.025
7.329,-0.025
7.330,-0.025
7.331,-0.025
7.332,-0.025
7.333,-0.025
7.334,-0.028
7.335,-0.028
7.336,-0.029
7.337,-0.031
7.338,-0.030
7.339,-0.031
7.340,-0.031
7.341,-0.031
7.342,-0.031
7.343,-0.034
7.344,-0.036
7.345,-0.038
7.346,-0.038
7.347,-0.038
7.348,-0.038
7.349,-0.038
7.350,-0.036
7.351,-0.038
7.352,-0.036
7.353,-0.038
7.354,-0.041
7.355,-0.041
7.356,-0.041
7.357,-0.047
7.358,-0.043
7.359,-0.044
7.360,-0.044
7.361,-0.044
7.362,-0.045
7.363,-0.047
7.364,-0.046
7.365,-0.047
7.366,-0.048
7.367,-0.050
7.368,-0.053
7.369,-0.053
7.370,-0.052
7.371,-0.053
7.372,-0.053
7.373,-0.053
7.374,-0.053
7.375,-0.056
7.376,-0.058
7.377,-0.063
7.378,-0.061
7.379,-0.059
7.380,-0.061
7.381,-0.059
7.382,-0.061
7.383,-0.059
7.384,-0.056
7.385,-0.059
7.386,-0.058
7.387,-0.063
7.388,-0.063
7.389,-0.063
7.390,-0.063
7.391,-0.063
7.392,-0.061
7.393,-0.059
7.394,-0.064
7.395,-0.066
7.396,-0.066
7.397,-0.066
7.398,-0.064
7.399,-0.066
7.400,-0.066
7.401,-0.063
7.402,-0.066
7.403,-0.066
7.404,-0.066
7.405,-0.066
7.406,-0.066
7.407,-0.066
7.408,-0.064
7.409,-0.066
7.410,-0.067
7.411,-0.069
7.412,-0.069
7.413,-0.069
7.414,-0.069
7.415,-0.069
7.416,-0.069
7.417,-0.069
7.418,-0.069
7.419,-0.069
7.420,-0.069
7.421,-0.069
7.422,-0.067
7.423,-0.066
7.424,-0.066
7.425,-0.066
7.426,-0.064
7.427,-0.056
7.428,-0.047
7.429,-0.041
7.430,-0.036
7.431,-0.034
7.432,-0.030
7.433,-0.022
7.434,-0.019
7.435,-0.009
7.436,-0.008
7.437,-0.009
7.438,-0.008
7.439,-0.003
7.440,0.004
7.441,0.003
7.442,0.005
7.443,0.006
7.444,-0.003
7.445,-0.006
7.446,-0.008
7.447,-0.006
7.448,-0.005
7.449,-0.006
7.450,-0.006
7.451,-0.006
7.452,-0.006
7.453,-0.003
7.454,0.000
7.455,0.003
7.456,0.006
7.457,0.009
7.458,0.012
7.459,0.016
7.460,0.017
7.461,0.022
7.462,0.021
7.463,0.022
7.464,0.022
7.465,0.022
7.466,0.028
7.467,0.025
7.468,0.025
7.469,0.022
7.470,0.017
7.471,0.012
7.472,0.014
7.473,0.012
7.474,0.011
7.475,0.012
7.476,0.006
7.477,0.003
7.478,-0.001
7.479,-0.009
7.480,-0.016
7.481,-0.025
7.482,-0.027
7.483,-0.028
7.484,-0.033
7.485,-0.034
7.486,-0.041
7.487,-0.044
7.488,-0.041
7.489,-0.041
7.490,-0.044
7.491,-0.047
7.492,-0.047
7.493,-0.047
7.494,-0.047
7.495,-0.047
7.496,-0.051
7.497,-0.050
7.498,-0.049
7.499,-0.047
7.500,-0.052
7.501,-0.053
7.502,-0.059
7.503,-0.063
7.504,-0.068
7.505,-0.069
7.506,-0.078
7.507,-0.084
7.508,-0.086
7.509,-0.088
7.510,-0.091
7.511,-0.094
7.512,-0.099
7.513,-0.100
7.514,-0.101
7.515,-0.103
7.516,-0.103
7.517,-0.106
7.518,-0.105
7.519,-0.103
7.520,-0.106
7.521,-0.106
7.522,-0.108
7.523,-0.109
7.524,-0.111
7.525,-0.112
7.526,-0.111
7.527,-0.109
7.528,-0.112
7.529,-0.112
7.530,-0.112
7.531,-0.112
7.532,-0.112
7.533,-0.112
7.534,-0.111
7.535,-0.109
7.536,-0.112
7.537,-0.112
7.538,-0.114
7.539,-0.112
7.540,-0.114
7.541,-0.119
7.542,-0.120
7.543,-0.122
7.544,-0.122
7.545,-0.122
7.546,-0.122
7.547,-0.122
7.548,-0.123
7.549,-0.125
7.550,-0.119
7.551,-0.119
7.552,-0.119
7.553,-0.119
7.554,-0.119
7.555,-0.119
7.556,-0.119
7.557,-0.119
7.558,-0.120
7.559,-0.122
7.560,-0.122
7.561,-0.122
7.562,-0.119
7.563,-0.116
7.564,-0.114
7.565,-0.116
7.566,-0.120
7.567,-0.122
7.568,-0.121
7.569,-0.119
7.570,-0.118
7.571,-0.116
7.572,-0.117
7.573,-0.119
7.574,-0.120
7.575,-0.122
7.576,-0.121
7.577,-0.122
7.578,-0.121
7.579,-0.122
7.580,-0.128
7.581,-0.141
7.582,-0.147
7.583,-0.159
7.584,-0.176
7.585,-0.194
7.586,-0.208
7.587,-0.225
7.588,-0.244
7.589,-0.259
7.590,-0.269
7.591,-0.269
7.592,-0.259
7.593,-0.244
7.594,-0.224
7.595,-0.197
7.596,-0.169
7.597,-0.131
7.598,-0.098
7.599,-0.066
7.600,-0.029
7.601,0.003
7.602,0.044
7.603,0.087
7.604,0.137
7.605,0.197
7.606,0.249
7.607,0.297
7.608,0.354
7.609,0.412
7.610,0.484
7.611,0.566
7.612,0.652
7.613,0.734
7.614,0.811
7.615,0.888
7.616,0.955
7.617,1.012
7.618,1.079
7.619,1.144
7.620,1.199
7.621,1.256
7.622,1.306
7.623,1.347
7.624,1.347
7.625,1.328
7.626,1.284
7.627,1.203
7.628,1.109
7.629,1.012
7.630,0.926
7.631,0.841
7.632,0.751
7.633,0.666
7.634,0.592
7.635,0.534
7.636,0.475
7.637,0.416
7.638,0.353
7.639,0.291
7.640,0.234
7.641,0.178
7.642,0.128
7.643,0.084
7.644,0.028
7.645,-0.034
7.646,-0.096
7.647,-0.150
7.648,-0.188
7.649,-0.213
7.650,-0.230
7.651,-0.234
7.652,-0.234
7.653,-0.225
7.654,-0.202
7.655,-0.184
7.656,-0.166
7.657,-0.144
7.658,-0.128
7.659,-0.116
7.660,-0.102
7.661,-0.094
7.662,-0.080
7.663,-0.069
7.664,-0.053
7.665,-0.047
7.666,-0.042
7.667,-0.041
7.668,-0.042
7.669,-0.041
7.670,-0.041
7.671,-0.038
7.672,-0.038
7.673,-0.041
7.674,-0.043
7.675,-0.044
7.676,-0.047
7.677,-0.050
7.678,-0.054
7.679,-0.053
7.680,-0.053
7.681,-0.053
7.682,-0.054
7.683,-0.056
7.684,-0.054
7.685,-0.056
7.686,-0.053
7.687,-0.056
7.688,-0.053
7.689,-0.050
7.690,-0.049
7.691,-0.050
7.692,-0.052
7.693,-0.053
7.694,-0.052
7.695,-0.050
7.696,-0.048
7.697,-0.050
7.698,-0.051
7.699,-0.050
7.700,-0.050
7.701,-0.050
7.702,-0.047
7.703,-0.047
7.704,-0.051
7.705,-0.050
7.706,-0.050
7.707,-0.050
7.708,-0.044
7.709,-0.038
7.710,-0.039
7.711,-0.041
7.712,-0.042
7.713,-0.044
7.714,-0.044
7.715,-0.044
7.716,-0.047
7.717,-0.047
7.718,-0.046
7.719,-0.044
7.720,-0.044
7.721,-0.044
7.722,-0.045
7.723,-0.047
7.724,-0.044
7.725,-0.041
7.726,-0.039
7.727,-0.041
7.728,-0.041
7.729,-0.044
7.730,-0.041
7.731,-0.038
7.732,-0.042
7.733,-0.041
7.734,-0.041
7.735,-0.041
7.736,-0.041
7.737,-0.034
7.738,-0.034
7.739,-0.034
7.740,-0.030
7.741,-0.025
7.742,-0.025
7.743,-0.025
7.744,-0.026
7.745,-0.025
7.746,-0.024
7.747,-0.022
7.748,-0.026
7.749,-0.028
7.750,-0.029
7.751,-0.031
7.752,-0.027
7.753,-0.028
7.754,-0.024
7.755,-0.022
7.756,-0.019
7.757,-0.019
7.758,-0.020
7.759,-0.019
7.760,-0.019
7.761,-0.019
7.762,-0.018
7.763,-0.013
7.764,-0.009
7.765,-0.009
7.766,-0.009
7.767,-0.009
7.768,-0.011
7.769,-0.013
7.770,-0.011
7.771,-0.013
7.772,-0.009
7.773,-0.003
7.774,0.000
7.775,0.000
7.776,-0.001
7.777,-0.003
7.778,-0.004
7.779,-0.003
7.780,0.000
7.781,0.000
7.782,0.000
7.783,0.006
7.784,0.007
7.785,0.009
7.786,0.011
7.787,0.009
7.788,0.009
7.789,0.009
7.790,0.009
7.791,0.009
7.792,0.008
7.793,0.009
7.794,0.011
7.795,0.012
7.796,0.009
7.797,0.009
7.798,0.008
7.799,0.006
7.800,0.009
7.801,0.009
7.802,0.011
7.803,0.012
7.804,0.008
7.805,0.009
7.806,0.012
7.807,0.016
7.808,0.016
7.809,0.016
7.810,0.017
7.811,0.012
7.812,0.006
7.813,0.006
7.814,0.011
7.815,0.012
7.816,0.011
7.817,0.012
7.818,0.011
7.819,0.009
7.820,0.009
7.821,0.009
7.822,0.009
7.823,0.009
7.824,0.009
7.825,0.012
7.826,0.012
7.827,0.012
7.828,0.012
7.829,0.009
7.830,0.008
7.831,0.006
7.832,0.007
7.833,0.006
7.834,0.006
7.835,0.003
7.836,0.000
7.837,-0.006
7.838,-0.006
7.839,-0.009
7.840,-0.008
7.841,-0.009
7.842,-0.011
7.843,-0.013
7.844,-0.016
7.845,-0.019
7.846,-0.022
7.847,-0.022
7.848,-0.026
7.849,-0.028
7.850,-0.027
7.851,-0.028
7.852,-0.031
7.853,-0.034
7.854,-0.036
7.855,-0.034
7.856,-0.041
7.857,-0.047
7.858,-0.045
7.859,-0.050
7.860,-0.050
7.861,-0.050
7.862,-0.050
7.863,-0.050
7.864,-0.047
7.865,-0.050
7.866,-0.051
7.867,-0.053
7.868,-0.052
7.869,-0.053
7.870,-0.059
7.871,-0.063
7.872,-0.063
7.873,-0.066
7.874,-0.067
7.875,-0.069
7.876,-0.071
7.877,-0.069
7.878,-0.069
7.879,-0.069
7.880,-0.073
7.881,-0.072
7.882,-0.071
7.883,-0.069
7.884,-0.072
7.885,-0.072
7.886,-0.073
7.887,-0.075
7.888,-0.072
7.889,-0.069
7.890,-0.070
7.891,-0.069
7.892,-0.069
7.893,-0.072
7.894,-0.071
7.895,-0.069
7.896,-0.067
7.897,-0.066
7.898,-0.069
7.899,-0.066
7.900,-0.059
7.901,-0.056
7.902,-0.058
7.903,-0.059
7.904,-0.059
7.905,-0.059
7.906,-0.059
7.907,-0.059
7.908,-0.053
7.909,-0.047
7.910,-0.044
7.911,-0.038
7.912,-0.039
7.913,-0.038
7.914,-0.033
7.915,-0.031
7.916,-0.025
7.917,-0.019
7.918,-0.020
7.919,-0.022
7.920,-0.022
7.921,-0.022
7.922,-0.019
7.923,-0.019
7.924,-0.014
7.925,-0.009
7.926,-0.011
7.927,-0.009
7.928,-0.005
7.929,-0.003
7.930,-0.001
7.931,-0.003
7.932,-0.003
7.933,0.000
7.934,0.002
7.935,0.000
7.936,0.003
7.937,0.003
7.938,0.003
7.939,0.003
7.940,0.003
7.941,0.003
7.942,0.005
7.943,0.003
7.944,0.003
7.945,0.006
7.946,0.007
7.947,0.009
7.948,0.011
7.949,0.012
7.950,0.011
7.951,0.012
7.952,0.014
7.953,0.012
7.954,0.016
7.955,0.016
7.956,0.014
7.957,0.012
7.958,0.012
7.959,0.012
7.960,0.009
7.961,0.009
7.962,0.007
7.963,0.009
7.964,0.009
7.965,0.009
7.966,0.009
7.967,0.009
7.968,0.012
7.969,0.012
7.970,0.011
7.971,0.009
7.972,0.005
7.973,0.003
7.974,0.001
7.975,0.003
7.976,-0.003
7.977,-0.006
7.978,-0.006
7.979,-0.006
7.980,-0.008
7.981,-0.006
7.982,-0.011
7.983,-0.013
7.984,-0.014
7.985,-0.016
7.986,-0.018
7.987,-0.016
7.988,-0.016
7.989,-0.019
7.990,-0.018
7.991,-0.016
7.992,-0.016
7.993,-0.019
7.994,-0.016
7.995,-0.019
7.996,-0.018
7.997,-0.016
7.998,-0.019
7.999,-0.019
8.000,-0.020
8.001,-0.022
8.002,-0.023
8.003,-0.025
8.004,-0.024
8.005,-0.025
8.006,-0.025
8.007,-0.025
8.008,-0.025
8.009,-0.025
8.010,-0.025
8.011,-0.025
8.012,-0.025
8.013,-0.025
8.014,-0.025
8.015,-0.025
8.016,-0.025
8.017,-0.025
8.018,-0.025
8.019,-0.025
8.020,-0.022
8.021,-0.019
8.022,-0.019
8.023,-0.019
8.024,-0.017
8.025,-0.019
8.026,-0.020
8.027,-0.022
8.028,-0.023
8.029,-0.025
8.030,-0.024
8.031,-0.022
8.032,-0.022
8.033,-0.022
8.034,-0.020
8.035,-0.025
8.036,-0.025
8.037,-0.025
8.038,-0.025
8.039,-0.025
8.040,-0.025
8.041,-0.022
8.042,-0.021
8.043,-0.019
8.044,-0.018
8.045,-0.013
8.046,-0.011
8.047,-0.009
8.048,-0.011
8.049,-0.013
8.050,-0.014
8.051,-0.016
8.052,-0.017
8.053,-0.025
8.054,-0.025
8.055,-0.025
8.056,-0.027
8.057,-0.022
8.058,-0.023
8.059,-0.025
8.060,-0.022
8.061,-0.019
8.062,-0.019
8.063,-0.019
8.064,-0.019
8.065,-0.019
8.066,-0.023
8.067,-0.025
8.068,-0.025
8.069,-0.025
8.070,-0.026
8.071,-0.028
8.072,-0.027
8.073,-0.025
8.074,-0.025
8.075,-0.025
8.076,-0.025
8.077,-0.025
8.078,-0.025
8.079,-0.025
8.080,-0.026
8.081,-0.028
8.082,-0.031
8.083,-0.031
8.084,-0.030
8.085,-0.028
8.086,-0.028
8.087,-0.031
8.088,-0.031
8.089,-0.031
8.090,-0.030
8.091,-0.031
8.092,-0.033
8.093,-0.034
8.094,-0.033
8.095,-0.031
8.096,-0.031
8.097,-0.031
8.098,-0.031
8.099,-0.034
8.100,-0.039
8.101,-0.047
8.102,-0.050
8.103,-0.050
8.104,-0.048
8.105,-0.053
8.106,-0.049
8.107,-0.050
8.108,-0.050
8.109,-0.050
8.110,-0.047
8.111,-0.044
8.112,-0.044
8.113,-0.047
8.114,-0.047
8.115,-0.047
8.116,-0.050
8.117,-0.050
8.118,-0.049
8.119,-0.050
8.120,-0.051
8.121,-0.053
8.122,-0.052
8.123,-0.053
8.124,-0.053
8.125,-0.056
8.126,-0.055
8.127,-0.053
8.128,-0.055
8.129,-0.053
8.130,-0.056
8.131,-0.056
8.132,-0.053
8.133,-0.056
8.134,-0.053
8.135,-0.056
8.136,-0.056
8.137,-0.056
8.138,-0.056
8.139,-0.056
8.140,-0.061
8.141,-0.063
8.142,-0.063
8.143,-0.063
8.144,-0.063
8.145,-0.063
8.146,-0.064
8.147,-0.069
8.148,-0.069
8.149,-0.069
8.150,-0.068
8.151,-0.066
8.152,-0.068
8.153,-0.066
8.154,-0.063
8.155,-0.066
8.156,-0.066
8.157,-0.066
8.158,-0.066
8.159,-0.066
8.160,-0.064
8.161,-0.063
8.162,-0.066
8.163,-0.066
8.164,-0.067
8.165,-0.069
8.166,-0.069
8.167,-0.069
8.168,-0.069
8.169,-0.069
8.170,-0.069
8.171,-0.069
8.172,-0.070
8.173,-0.072
8.174,-0.075
8.175,-0.075
8.176,-0.075
8.177,-0.075
8.178,-0.073
8.179,-0.075
8.180,-0.069
8.181,-0.063
8.182,-0.058
8.183,-0.050
8.184,-0.047
8.185,-0.044
8.186,-0.036
8.187,-0.034
8.188,-0.027
8.189,-0.019
8.190,-0.016
8.191,-0.013
8.192,-0.006
8.193,0.000
8.194,-0.002
8.195,0.003
8.196,0.009
8.197,0.006
8.198,0.006
8.199,0.003
8.200,-0.003
8.201,-0.009
8.202,-0.009
8.203,-0.006
8.204,-0.008
8.205,-0.009
8.206,-0.008
8.207,-0.006
8.208,-0.003
8.209,0.000
8.210,0.004
8.211,0.006
8.212,0.006
8.213,0.006
8.214,0.008
8.215,0.006
8.216,0.008
8.217,0.009
8.218,0.011
8.219,0.016
8.220,0.017
8.221,0.022
8.222,0.022
8.223,0.022
8.224,0.016
8.225,0.012
8.226,0.009
8.227,0.006
8.228,0.009
8.229,0.006
8.230,0.006
8.231,0.006
8.232,-0.001
8.233,-0.006
8.234,-0.011
8.235,-0.013
8.236,-0.014
8.237,-0.019
8.238,-0.028
8.239,-0.038
8.240,-0.038
8.241,-0.038
8.242,-0.038
8.243,-0.038
8.244,-0.042
8.245,-0.044
8.246,-0.045
8.247,-0.047
8.248,-0.048
8.249,-0.053
8.250,-0.051
8.251,-0.053
8.252,-0.049
8.253,-0.050
8.254,-0.052
8.255,-0.056
8.256,-0.059
8.257,-0.066
8.258,-0.068
8.259,-0.072
8.260,-0.076
8.261,-0.081
8.262,-0.084
8.263,-0.088
8.264,-0.089
8.265,-0.094
8.266,-0.098
8.267,-0.100
8.268,-0.100
8.269,-0.100
8.270,-0.104
8.271,-0.106
8.272,-0.106
8.273,-0.109
8.274,-0.109
8.275,-0.109
8.276,-0.109
8.277,-0.109
8.278,-0.109
8.279,-0.109
8.280,-0.109
8.281,-0.112
8.282,-0.112
8.283,-0.112
8.284,-0.112
8.285,-0.112
8.286,-0.112
8.287,-0.112
8.288,-0.111
8.289,-0.112
8.290,-0.112
8.291,-0.112
8.292,-0.114
8.293,-0.119
8.294,-0.122
8.295,-0.122
8.296,-0.121
8.297,-0.119
8.298,-0.118
8.299,-0.116
8.300,-0.117
8.301,-0.119
8.302,-0.120
8.303,-0.119
8.304,-0.122
8.305,-0.122
8.306,-0.122
8.307,-0.122
8.308,-0.121
8.309,-0.119
8.310,-0.119
8.311,-0.119
8.312,-0.120
8.313,-0.122
8.314,-0.122
8.315,-0.122
8.316,-0.122
8.317,-0.119
8.318,-0.118
8.319,-0.119
8.320,-0.119
8.321,-0.119
8.322,-0.119
8.323,-0.119
8.324,-0.120
8.325,-0.122
8.326,-0.122
8.327,-0.122
8.328,-0.122
8.329,-0.122
8.330,-0.125
8.331,-0.125
8.332,-0.124
8.333,-0.122
8.334,-0.134
8.335,-0.141
8.336,-0.150
8.337,-0.166
8.338,-0.181
8.339,-0.200
8.340,-0.222
8.341,-0.241
8.342,-0.257
8.343,-0.272
8.344,-0.279
8.345,-0.281
8.346,-0.278
8.347,-0.269
8.348,-0.247
8.349,-0.222
8.350,-0.186
8.351,-0.150
8.352,-0.111
8.353,-0.069
8.354,-0.028
8.355,0.016
8.356,0.056
8.357,0.100
8.358,0.156
8.359,0.216
8.360,0.269
8.361,0.325
8.362,0.374
8.363,0.431
8.364,0.505
8.365,0.594
8.366,0.677
8.367,0.756
8.368,0.842
8.369,0.919
8.370,0.978
8.371,1.037
8.372,1.094
8.373,1.147
8.374,1.212
8.375,1.269
8.376,1.319
8.377,1.350
8.378,1.372
8.379,1.366
8.380,1.309
8.381,1.228
8.382,1.134
8.383,1.034
8.384,0.947
8.385,0.859
8.386,0.766
8.387,0.675
8.388,0.604
8.389,0.537
8.390,0.481
8.391,0.422
8.392,0.347
8.393,0.281
8.394,0.217
8.395,0.166
8.396,0.126
8.397,0.081
8.398,0.022
8.399,-0.044
8.400,-0.114
8.401,-0.166
8.402,-0.197
8.403,-0.222
8.404,-0.239
8.405,-0.250
8.406,-0.241
8.407,-0.222
8.408,-0.206
8.409,-0.184
8.410,-0.161
8.411,-0.141
8.412,-0.121
8.413,-0.103
8.414,-0.100
8.415,-0.091
8.416,-0.080
8.417,-0.066
8.418,-0.061
8.419,-0.053
8.420,-0.050
8.421,-0.050
8.422,-0.046
8.423,-0.044
8.424,-0.039
8.425,-0.038
8.426,-0.038
8.427,-0.038
8.428,-0.041
8.429,-0.047
8.430,-0.053
8.431,-0.056
8.432,-0.054
8.433,-0.056
8.434,-0.058
8.435,-0.059
8.436,-0.061
8.437,-0.059
8.438,-0.059
8.439,-0.056
8.440,-0.059
8.441,-0.059
8.442,-0.056
8.443,-0.053
8.444,-0.053
8.445,-0.053
8.446,-0.058
8.447,-0.059
8.448,-0.063
8.449,-0.063
8.450,-0.059
8.451,-0.056
8.452,-0.054
8.453,-0.056
8.454,-0.056
8.455,-0.053
8.456,-0.052
8.457,-0.053
8.458,-0.050
8.459,-0.050
8.460,-0.050
8.461,-0.050
8.462,-0.050
8.463,-0.050
8.464,-0.050
8.465,-0.050
8.466,-0.051
8.467,-0.053
8.468,-0.050
8.469,-0.047
8.470,-0.045
8.471,-0.047
8.472,-0.047
8.473,-0.047
8.474,-0.048
8.475,-0.050
8.476,-0.051
8.477,-0.053
8.478,-0.053
8.479,-0.050
8.480,-0.050
8.481,-0.047
8.482,-0.047
8.483,-0.047
8.484,-0.043
8.485,-0.041
8.486,-0.039
8.487,-0.041
8.488,-0.044
8.489,-0.047
8.490,-0.042
8.491,-0.044
8.492,-0.043
8.493,-0.041
8.494,-0.042
8.495,-0.044
8.496,-0.044
8.497,-0.044
8.498,-0.041
8.499,-0.041
8.500,-0.038
8.501,-0.034
8.502,-0.031
8.503,-0.031
8.504,-0.033
8.505,-0.031
8.506,-0.033
8.507,-0.028
8.508,-0.029
8.509,-0.028
8.510,-0.028
8.511,-0.028
8.512,-0.024
8.513,-0.022
8.514,-0.022
8.515,-0.022
8.516,-0.019
8.517,-0.016
8.518,-0.016
8.519,-0.016
8.520,-0.017
8.521,-0.019
8.522,-0.020
8.523,-0.019
8.524,-0.019
8.525,-0.019
8.526,-0.017
8.527,-0.016
8.528,-0.013
8.529,-0.009
8.530,-0.011
8.531,-0.013
8.532,-0.013
8.533,-0.013
8.534,-0.011
8.535,-0.013
8.536,-0.011
8.537,-0.013
8.538,-0.011
8.539,-0.006
8.540,-0.005
8.541,-0.003
8.542,-0.003
8.543,-0.003
8.544,-0.002
8.545,0.000
8.546,0.004
8.547,0.006
8.548,0.006
8.549,0.006
8.550,0.008
8.551,0.006
8.552,0.003
8.553,0.003
8.554,0.006
8.555,0.009
8.556,0.009
8.557,0.006
8.558,0.008
8.559,0.006
8.560,0.006
8.561,0.006
8.562,0.007
8.563,0.012
8.564,0.009
8.565,0.006
8.566,0.008
8.567,0.009
8.568,0.011
8.569,0.009
8.570,0.008
8.571,0.006
8.572,0.006
8.573,0.006
8.574,0.006
8.575,0.006
8.576,0.007
8.577,0.006
8.578,0.005
8.579,0.003
8.580,0.004
8.581,0.006
8.582,0.003
8.583,0.003
8.584,0.003
8.585,0.003
8.586,0.000
8.587,0.000
8.588,-0.003
8.589,-0.003
8.590,-0.005
8.591,-0.003
8.592,-0.008
8.593,-0.009
8.594,-0.014
8.595,-0.016
8.596,-0.016
8.597,-0.019
8.598,-0.022
8.599,-0.025
8.600,-0.025
8.601,-0.028
8.602,-0.028
8.603,-0.028
8.604,-0.031
8.605,-0.034
8.606,-0.039
8.607,-0.044
8.608,-0.043
8.609,-0.044
8.610,-0.048
8.611,-0.047
8.612,-0.047
8.613,-0.047
8.614,-0.050
8.615,-0.050
8.616,-0.050
8.617,-0.050
8.618,-0.055
8.619,-0.053
8.620,-0.053
8.621,-0.053
8.622,-0.055
8.623,-0.056
8.624,-0.056
8.625,-0.056
8.626,-0.063
8.627,-0.066
8.628,-0.066
8.629,-0.069
8.630,-0.070
8.631,-0.072
8.632,-0.072
8.633,-0.075
8.634,-0.073
8.635,-0.075
8.636,-0.074
8.637,-0.075
8.638,-0.076
8.639,-0.078
8.640,-0.078
8.641,-0.078
8.642,-0.077
8.643,-0.075
8.644,-0.071
8.645,-0.069
8.646,-0.072
8.647,-0.072
8.648,-0.072
8.649,-0.069
8.650,-0.066
8.651,-0.069
8.652,-0.066
8.653,-0.063
8.654,-0.063
8.655,-0.063
8.656,-0.063
8.657,-0.059
8.658,-0.056
8.659,-0.056
8.660,-0.058
8.661,-0.056
8.662,-0.054
8.663,-0.056
8.664,-0.050
8.665,-0.047
8.666,-0.047
8.667,-0.047
8.668,-0.046
8.669,-0.041
8.670,-0.039
8.671,-0.041
8.672,-0.038
8.673,-0.031
8.674,-0.029
8.675,-0.028
8.676,-0.029
8.677,-0.028
8.678,-0.019
8.679,-0.013
8.680,-0.011
8.681,-0.009
8.682,-0.008
8.683,-0.003
8.684,-0.003
8.685,-0.003
8.686,-0.003
8.687,-0.003
8.688,-0.003
8.689,0.000
8.690,0.003
8.691,0.006
8.692,0.006
8.693,0.006
8.694,0.003
8.695,0.003
8.696,0.003
8.697,0.003
8.698,0.007
8.699,0.009
8.700,0.009
8.701,0.009
8.702,0.009
8.703,0.009
8.704,0.011
8.705,0.009
8.706,0.009
8.707,0.012
8.708,0.009
8.709,0.009
8.710,0.009
8.711,0.009
8.712,0.011
8.713,0.009
8.714,0.008
8.715,0.003
8.716,0.002
8.717,0.000
8.718,0.000
8.719,0.000
8.720,0.001
8.721,0.003
8.722,0.001
8.723,0.000
8.724,-0.006
8.725,-0.009
8.726,-0.006
8.727,-0.009
8.728,-0.008
8.729,-0.009
8.730,-0.011
8.731,-0.013
8.732,-0.013
8.733,-0.016
8.734,-0.014
8.735,-0.016
8.736,-0.017
8.737,-0.019
8.738,-0.018
8.739,-0.019
8.740,-0.019
8.741,-0.019
8.742,-0.025
8.743,-0.028
8.744,-0.028
8.745,-0.028
8.746,-0.031
8.747,-0.028
8.748,-0.031
8.749,-0.031
8.750,-0.030
8.751,-0.031
8.752,-0.031
8.753,-0.031
8.754,-0.033
8.755,-0.034
8.756,-0.034
8.757,-0.034
8.758,-0.036
8.759,-0.034
8.760,-0.034
8.761,-0.034
8.762,-0.036
8.763,-0.038
8.764,-0.038
8.765,-0.038
8.766,-0.038
8.767,-0.038
8.768,-0.038
8.769,-0.038
8.770,-0.039
8.771,-0.041
8.772,-0.041
8.773,-0.041
8.774,-0.038
8.775,-0.034
8.776,-0.036
8.777,-0.034
8.778,-0.036
8.779,-0.038
8.780,-0.036
8.781,-0.034
8.782,-0.034
8.783,-0.034
8.784,-0.034
8.785,-0.034
8.786,-0.036
8.787,-0.034
8.788,-0.036
8.789,-0.034
8.790,-0.034
8.791,-0.034
8.792,-0.036
8.793,-0.038
8.794,-0.033
8.795,-0.031
8.796,-0.030
8.797,-0.031
8.798,-0.031
8.799,-0.031
8.800,-0.031
8.801,-0.031
8.802,-0.033
8.803,-0.034
8.804,-0.033
8.805,-0.028
8.806,-0.031
8.807,-0.031
8.808,-0.031
8.809,-0.034
8.810,-0.033
8.811,-0.034
8.812,-0.034
8.813,-0.034
8.814,-0.034
8.815,-0.034
8.816,-0.034
8.817,-0.034
8.818,-0.033
8.819,-0.034
8.820,-0.034
8.821,-0.034
8.822,-0.034
8.823,-0.034
8.824,-0.034
8.825,-0.034
8.826,-0.034
8.827,-0.034
8.828,-0.034
8.829,-0.034
8.830,-0.036
8.831,-0.038
8.832,-0.038
8.833,-0.038
8.834,-0.036
8.835,-0.038
8.836,-0.038
8.837,-0.038
8.838,-0.038
8.839,-0.038
8.840,-0.041
8.841,-0.041
8.842,-0.039
8.843,-0.038
8.844,-0.041
8.845,-0.041
8.846,-0.042
8.847,-0.044
8.848,-0.045
8.849,-0.047
8.850,-0.046
8.851,-0.044
8.852,-0.046
8.853,-0.044
8.854,-0.048
8.855,-0.053
8.856,-0.054
8.857,-0.053
8.858,-0.056
8.859,-0.053
8.860,-0.055
8.861,-0.053
8.862,-0.054
8.863,-0.056
8.864,-0.055
8.865,-0.053
8.866,-0.056
8.867,-0.056
8.868,-0.056
8.869,-0.059
8.870,-0.059
8.871,-0.059
8.872,-0.063
8.873,-0.063
8.874,-0.064
8.875,-0.066
8.876,-0.070
8.877,-0.069
8.878,-0.069
8.879,-0.069
8.880,-0.069
8.881,-0.072
8.882,-0.072
8.883,-0.075
8.884,-0.075
8.885,-0.072
8.886,-0.075
8.887,-0.072
8.888,-0.075
8.889,-0.075
8.890,-0.074
8.891,-0.072
8.892,-0.073
8.893,-0.075
8.894,-0.077
8.895,-0.075
8.896,-0.074
8.897,-0.072
8.898,-0.071
8.899,-0.072
8.900,-0.072
8.901,-0.069
8.902,-0.072
8.903,-0.072
8.904,-0.073
8.905,-0.075
8.906,-0.075
8.907,-0.075
8.908,-0.074
8.909,-0.075
8.910,-0.075
8.911,-0.075
8.912,-0.078
8.913,-0.081
8.914,-0.081
8.915,-0.081
8.916,-0.081
8.917,-0.081
8.918,-0.081
8.919,-0.081
8.920,-0.080
8.921,-0.078
8.922,-0.078
8.923,-0.078
8.924,-0.075
8.925,-0.072
8.926,-0.073
8.927,-0.069
8.928,-0.061
8.929,-0.056
8.930,-0.049
8.931,-0.044
8.932,-0.041
8.933,-0.034
8.934,-0.036
8.935,-0.031
8.936,-0.025
8.937,-0.022
8.938,-0.020
8.939,-0.016
8.940,-0.003
8.941,0.000
8.942,0.000
8.943,0.000
8.944,-0.005
8.945,-0.003
8.946,-0.006
8.947,-0.006
8.948,-0.003
8.949,-0.003
8.950,-0.004
8.951,-0.006
8.952,-0.008
8.953,-0.006
8.954,-0.003
8.955,0.000
8.956,0.003
8.957,0.006
8.958,0.006
8.959,0.006
8.960,0.003
8.961,0.003
8.962,0.003
8.963,0.006
8.964,0.009
8.965,0.012
8.966,0.020
8.967,0.019
8.968,0.020
8.969,0.019
8.970,0.016
8.971,0.012
8.972,0.014
8.973,0.012
8.974,0.011
8.975,0.012
8.976,0.009
8.977,0.009
8.978,0.006
8.979,0.000
8.980,-0.003
8.981,-0.009
8.982,-0.014
8.983,-0.019
8.984,-0.025
8.985,-0.028
8.986,-0.031
8.987,-0.031
8.988,-0.033
8.989,-0.038
8.990,-0.041
8.991,-0.044
8.992,-0.047
8.993,-0.050
8.994,-0.053
8.995,-0.056
8.996,-0.061
8.997,-0.059
8.998,-0.056
8.999,-0.053
9.000,-0.055
9.001,-0.053
9.002,-0.061
9.003,-0.066
9.004,-0.072
9.005,-0.075
9.006,-0.081
9.007,-0.084
9.008,-0.088
9.009,-0.091
9.010,-0.094
9.011,-0.097
9.012,-0.103
9.013,-0.106
9.014,-0.111
9.015,-0.116
9.016,-0.112
9.017,-0.112
9.018,-0.112
9.019,-0.112
9.020,-0.117
9.021,-0.119
9.022,-0.119
9.023,-0.119
9.024,-0.120
9.025,-0.122
9.026,-0.122
9.027,-0.122
9.028,-0.124
9.029,-0.122
9.030,-0.122
9.031,-0.122
9.032,-0.123
9.033,-0.125
9.034,-0.125
9.035,-0.125
9.036,-0.125
9.037,-0.122
9.038,-0.125
9.039,-0.125
9.040,-0.124
9.041,-0.125
9.042,-0.125
9.043,-0.125
9.044,-0.125
9.045,-0.125
9.046,-0.126
9.047,-0.128
9.048,-0.129
9.049,-0.131
9.050,-0.125
9.051,-0.125
9.052,-0.126
9.053,-0.128
9.054,-0.128
9.055,-0.128
9.056,-0.128
9.057,-0.128
9.058,-0.128
9.059,-0.128
9.060,-0.128
9.061,-0.128
9.062,-0.128
9.063,-0.128
9.064,-0.125
9.065,-0.125
9.066,-0.128
9.067,-0.128
9.068,-0.128
9.069,-0.128
9.070,-0.128
9.071,-0.128
9.072,-0.128
9.073,-0.128
9.074,-0.128
9.075,-0.128
9.076,-0.127
9.077,-0.128
9.078,-0.127
9.079,-0.128
9.080,-0.130
9.081,-0.138
9.082,-0.136
9.083,-0.141
9.084,-0.150
9.085,-0.159
9.086,-0.175
9.087,-0.194
9.088,-0.217
9.089,-0.238
9.090,-0.259
9.091,-0.272
9.092,-0.279
9.093,-0.281
9.094,-0.275
9.095,-0.263
9.096,-0.244
9.097,-0.216
9.098,-0.181
9.099,-0.147
9.100,-0.105
9.101,-0.066
9.102,-0.033
9.103,0.003
9.104,0.039
9.105,0.084
9.106,0.141
9.107,0.194
9.108,0.246
9.109,0.297
9.110,0.352
9.111,0.416
9.112,0.505
9.113,0.591
9.114,0.682
9.115,0.775
9.116,0.857
9.117,0.931
9.118,0.996
9.119,1.056
9.120,1.117
9.121,1.181
9.122,1.245
9.123,1.300
9.124,1.350
9.125,1.381
9.126,1.411
9.127,1.403
9.128,1.329
9.129,1.253
9.130,1.152
9.131,1.050
9.132,0.953
9.133,0.859
9.134,0.758
9.135,0.672
9.136,0.603
9.137,0.534
9.138,0.453
9.139,0.372
9.140,0.297
9.141,0.222
9.142,0.169
9.143,0.122
9.144,0.079
9.145,0.031
9.146,-0.034
9.147,-0.094
9.148,-0.142
9.149,-0.178
9.150,-0.208
9.151,-0.225
9.152,-0.233
9.153,-0.231
9.154,-0.213
9.155,-0.200
9.156,-0.184
9.157,-0.166
9.158,-0.141
9.159,-0.119
9.160,-0.099
9.161,-0.084
9.162,-0.071
9.163,-0.059
9.164,-0.048
9.165,-0.047
9.166,-0.039
9.167,-0.034
9.168,-0.033
9.169,-0.028
9.170,-0.029
9.171,-0.028
9.172,-0.025
9.173,-0.025
9.174,-0.028
9.175,-0.031
9.176,-0.038
9.177,-0.044
9.178,-0.048
9.179,-0.047
9.180,-0.048
9.181,-0.050
9.182,-0.051
9.183,-0.053
9.184,-0.051
9.185,-0.053
9.186,-0.050
9.187,-0.053
9.188,-0.054
9.189,-0.056
9.190,-0.053
9.191,-0.053
9.192,-0.055
9.193,-0.056
9.194,-0.056
9.195,-0.056
9.196,-0.056
9.197,-0.059
9.198,-0.059
9.199,-0.056
9.200,-0.055
9.201,-0.053
9.202,-0.053
9.203,-0.056
9.204,-0.059
9.205,-0.056
9.206,-0.056
9.207,-0.056
9.208,-0.056
9.209,-0.056
9.210,-0.056
9.211,-0.056
9.212,-0.056
9.213,-0.056
9.214,-0.053
9.215,-0.050
9.216,-0.051
9.217,-0.050
9.218,-0.050
9.219,-0.050
9.220,-0.050
9.221,-0.050
9.222,-0.050
9.223,-0.050
9.224,-0.050
9.225,-0.050
9.226,-0.048
9.227,-0.050
9.228,-0.048
9.229,-0.050
9.230,-0.049
9.231,-0.047
9.232,-0.049
9.233,-0.044
9.234,-0.043
9.235,-0.041
9.236,-0.041
9.237,-0.034
9.238,-0.034
9.239,-0.034
9.240,-0.034
9.241,-0.034
9.242,-0.034
9.243,-0.034
9.244,-0.036
9.245,-0.034
9.246,-0.034
9.247,-0.034
9.248,-0.033
9.249,-0.028
9.250,-0.029
9.251,-0.031
9.252,-0.028
9.253,-0.031
9.254,-0.029
9.255,-0.031
9.256,-0.028
9.257,-0.028
9.258,-0.024
9.259,-0.016
9.260,-0.016
9.261,-0.016
9.262,-0.019
9.263,-0.019
9.264,-0.017
9.265,-0.019
9.266,-0.018
9.267,-0.016
9.268,-0.016
9.269,-0.016
9.270,-0.013
9.271,-0.013
9.272,-0.011
9.273,-0.006
9.274,-0.003
9.275,-0.003
9.276,-0.003
9.277,-0.003
9.278,-0.004
9.279,-0.003
9.280,0.001
9.281,0.003
9.282,0.000
9.283,0.003
9.284,0.003
9.285,0.003
9.286,0.005
9.287,0.003
9.288,0.006
9.289,0.009
9.290,0.009
9.291,0.009
9.292,0.008
9.293,0.009
9.294,0.009
9.295,0.009
9.296,0.008
9.297,0.009
9.298,0.009
9.299,0.009
9.300,0.011
9.301,0.009
9.302,0.011
9.303,0.012
9.304,0.009
9.305,0.012
9.306,0.012
9.307,0.012
9.308,0.012
9.309,0.012
9.310,0.019
9.311,0.019
9.312,0.016
9.313,0.019
9.314,0.021
9.315,0.019
9.316,0.016
9.317,0.016
9.318,0.016
9.319,0.016
9.320,0.016
9.321,0.016
9.322,0.014
9.323,0.012
9.324,0.011
9.325,0.012
9.326,0.011
9.327,0.009
9.328,0.009
9.329,0.006
9.330,0.006
9.331,0.006
9.332,0.006
9.333,0.003
9.334,0.004
9.335,0.003
9.336,0.004
9.337,0.003
9.338,0.003
9.339,0.000
9.340,0.000
9.341,-0.003
9.342,-0.002
9.343,0.000
9.344,0.000
9.345,0.000
9.346,-0.002
9.347,0.000
9.348,-0.006
9.349,-0.009
9.350,-0.011
9.351,-0.016
9.352,-0.020
9.353,-0.025
9.354,-0.027
9.355,-0.025
9.356,-0.029
9.357,-0.034
9.358,-0.030
9.359,-0.031
9.360,-0.036
9.361,-0.041
9.362,-0.042
9.363,-0.044
9.364,-0.041
9.365,-0.044
9.366,-0.044
9.367,-0.044
9.368,-0.044
9.369,-0.047
9.370,-0.050
9.371,-0.050
9.372,-0.049
9.373,-0.050
9.374,-0.049
9.375,-0.047
9.376,-0.051
9.377,-0.053
9.378,-0.053
9.379,-0.053
9.380,-0.058
9.381,-0.056
9.382,-0.055
9.383,-0.053
9.384,-0.056
9.385,-0.056
9.386,-0.056
9.387,-0.056
9.388,-0.056
9.389,-0.056
9.390,-0.058
9.391,-0.056
9.392,-0.055
9.393,-0.056
9.394,-0.056
9.395,-0.056
9.396,-0.053
9.397,-0.050
9.398,-0.054
9.399,-0.053
